time_seconds;temperature
0;40.61616
300;40.66814
600;40.69577
900;40.72349
1200;40.73901
1500;40.75299
1800;40.76273
2100;40.76962
2400;40.77543
2700;40.77890
3000;40.78209
3300;40.78363
3600;40.78541
3900;40.78649
4200;40.78735
4500;40.78777
4800;40.78821
5100;40.78844
5400;40.78869
5700;40.78882
6000;40.78893
6300;40.78901
6600;40.78909
6900;40.78911
7200;40.78911
7500;40.78911
7800;40.78911
8100;40.78911
8400;40.78911
8700;40.78911
9000;40.78911
9300;40.78911
9600;40.78911
9900;40.78911
10200;40.78911
10500;40.78911
10800;40.78911
11100;40.78911
11400;40.78911
11700;40.78911
12000;40.78911
12300;40.78911
12600;40.78911
12900;40.78911
13200;40.78911
13500;40.78911
13800;40.78911
14100;40.78911
14400;41.52820
14700;41.71297
15000;41.71297
15300;41.71297
15600;41.76402
15900;41.87591
16200;41.99682
16500;42.10910
16800;42.17632
17100;42.25162
17400;42.28878
17700;42.33011
18000;42.34968
18300;42.37123
18600;42.38240
18900;42.39383
19200;42.39919
19500;42.40471
19800;42.40802
20100;42.41072
20400;42.41272
20700;42.41405
21000;42.41516
21300;42.41580
21600;42.41640
21900;42.41669
22200;42.41701
22500;42.41713
22800;42.41732
23100;42.41742
23400;42.41744
23700;42.41744
24000;42.41744
24300;42.41744
24600;42.41744
24900;42.41744
25200;42.41744
25500;42.41744
25800;42.41744
26100;42.41744
26400;42.41744
26700;42.41744
27000;42.41744
27300;42.41744
27600;42.41744
27900;42.41744
28200;42.41744
28500;42.41744
28800;42.41744
29100;42.41744
29400;42.41744
29700;42.41744
30000;42.41744
30300;42.41744
30600;42.41744
30900;42.41744
31200;42.41744
31500;42.41744
31800;42.41744
32100;42.41744
32400;42.41744
32700;42.41744
33000;42.41744
33300;42.41744
33600;42.41744
33900;42.41744
34200;42.41744
34500;42.41744
34800;42.41744
35100;42.41744
35400;42.41744
35700;42.41744
36000;42.41744
36300;42.41744
36600;42.41744
36900;42.41744
37200;42.41744
37500;42.41744
37800;42.41744
38100;42.41744
38400;42.41744
38700;42.41744
39000;42.41744
39300;42.41744
39600;42.41744
39900;42.41744
40200;42.41744
40500;42.41744
40800;42.41744
41100;42.41744
41400;42.41744
41700;42.41744
42000;42.41744
42300;42.41744
42600;42.41744
42900;42.41744
43200;42.41744
43500;42.41744
43800;42.41744
44100;42.41744
44400;42.41744
44700;42.41744
45000;42.41744
45300;42.41744
45600;42.41744
45900;42.41744
46200;42.41744
46500;42.41744
46800;42.41744
47100;42.41744
47400;42.41744
47700;42.41744
48000;42.41744
48300;42.41744
48600;42.41744
48900;42.41744
49200;42.41744
49500;42.41744
49800;42.41744
50100;42.41744
50400;42.41744
50700;42.41744
51000;42.41744
51300;42.40532
51600;42.33997
51900;42.21935
52200;42.09685
52500;42.01482
52800;41.92260
53100;41.88128
53400;41.82885
53700;41.80447
54000;41.77696
54300;41.76256
54600;41.74848
54900;41.73960
55200;41.73307
55500;41.72767
55800;41.72430
56100;41.72094
56400;41.71941
56700;41.71745
57000;41.71663
57300;41.71559
57600;41.71509
57900;41.71457
58200;41.71426
58500;41.71398
58800;41.71380
59100;41.71367
59400;41.71357
59700;41.71351
60000;41.71342
60300;41.71340
60600;41.71340
60900;41.71340
61200;41.71340
61500;41.71340
61800;41.71340
62100;41.71340
62400;41.71340
62700;41.71340
63000;41.71340
63300;41.71340
63600;41.71340
63900;41.71340
64200;41.71340
64500;41.71340
64800;41.71340
65100;41.71340
65400;41.71340
65700;41.71340
66000;41.71340
66300;41.71340
66600;41.71340
66900;41.71340
67200;41.71340
67500;41.71340
67800;41.71340
68100;41.71340
68400;41.71340
68700;41.71340
69000;41.71340
69300;41.71340
69600;41.71340
69900;41.71340
70200;41.71340
70500;41.71340
70800;41.71340
71100;41.71340
71400;41.71340
71700;41.72649
72000;41.83488
72300;41.94265
72600;42.05535
72900;42.14493
73200;42.21418
73500;42.27144
73800;42.30611
74100;42.33916
74400;42.35713
74700;42.37588
75000;42.38562
75300;42.39533
75600;42.40064
75900;42.40566
76200;42.40870
76500;42.41131
76800;42.41285
77100;42.41413
77400;42.41510
77700;42.41570
78000;42.41628
78300;42.41658
78600;42.41691
78900;42.41706
79200;41.73049
79500;41.63959
79800;41.76567
80100;41.88841
80400;41.98241
80700;42.06339
81000;42.11698
81300;42.16513
81600;42.19231
81900;42.21751
82200;42.23117
82500;42.24433
82800;42.25123
83100;42.25666
83400;42.25991
83700;42.26369
84000;42.26656
84300;42.26891
84600;42.27056
84900;42.27181
85200;42.27273
85500;42.27334
85800;42.27385
86100;42.27419
