time_seconds;temperature
0;38.84548
300;39.21395
600;39.59536
900;39.80654
1200;39.91500
1500;39.96596
1800;39.99214
2100;40.00440
2400;40.01065
2700;40.01361
3000;40.01511
3300;40.01582
3600;40.01617
3900;40.01635
4200;40.01638
4500;40.01638
4800;40.01638
5100;40.01638
5400;40.01638
5700;40.01638
6000;40.01638
6300;40.12400
6600;40.59993
6900;41.03751
7200;41.28707
7500;41.43691
7800;41.91973
8100;42.42971
8400;42.72540
8700;42.94480
9000;43.27148
9300;43.29051
9600;43.15522
9900;42.87018
10200;42.58837
10500;42.43048
10800;42.35144
11100;42.31267
11400;42.17161
11700;41.89278
12000;41.71527
12300;41.62197
12600;41.57653
12900;41.55388
13200;41.54301
13500;41.53752
13800;41.53493
14100;41.53363
14400;42.21341
14700;42.16022
15000;41.94969
15300;41.82932
15600;41.77104
15900;41.74124
16200;41.72715
16500;41.71997
16800;41.71659
17100;41.71488
17400;41.71407
17700;41.71365
18000;41.71346
18300;41.71340
18600;41.71340
18900;41.71340
19200;41.71340
19500;41.71340
19800;41.71340
20100;41.65544
20400;41.40032
20700;41.19379
21000;41.08751
21300;41.03227
21600;41.00632
21900;40.99300
22200;40.98671
22500;40.98352
22800;40.98202
23100;40.98125
23400;40.98090
23700;40.98072
24000;40.98067
24300;40.98067
24600;40.98067
24900;40.97123
25200;40.77867
25500;40.53020
25800;40.38928
26100;40.31595
26400;40.28132
26700;40.26413
27000;40.25572
27300;40.25166
27600;40.24971
27900;40.24874
28200;40.24827
28500;40.24805
28800;40.24794
29100;40.24794
29400;40.24794
29700;40.24794
30000;40.24794
30300;40.24794
30600;40.24794
30900;40.24794
31200;40.24794
31500;40.19470
31800;39.94317
32100;39.74361
32400;39.63527
32700;39.58145
33000;39.55461
33300;39.54177
33600;39.48316
33900;39.22416
34200;39.01511
34500;38.90598
34800;38.84960
35100;38.82280
35400;38.80921
35700;38.80275
36000;38.79949
36300;38.79797
36600;38.79700
36900;38.67099
37200;38.40826
37500;38.24698
37800;38.15998
38100;38.11886
38400;38.09764
38700;38.08766
39000;38.08257
39300;38.08018
39600;38.07895
39900;38.07838
40200;38.07810
40500;38.07796
40800;38.07794
41100;38.07794
41400;38.07794
41700;38.07794
42000;38.07794
42300;38.07794
42600;38.07794
42900;38.05001
43200;37.81276
43500;37.60096
43800;37.47850
44100;37.41919
44400;37.38828
44700;37.37363
45000;37.36618
45300;37.36264
45600;37.36085
45900;37.36000
46200;37.35957
46500;37.35938
46800;37.35931
47100;37.35931
47400;37.35062
47700;37.16870
48000;36.92997
48300;36.79308
48600;36.72239
48900;36.68810
49200;36.67100
49500;36.66268
49800;36.65858
50100;36.65657
50400;36.65558
50700;36.65509
51000;36.56950
51300;36.30788
51600;36.12616
51900;36.02967
52200;35.98221
52500;35.95854
52800;35.94717
53100;35.94141
53400;35.89758
53700;35.65527
54000;35.45371
54300;35.34054
54600;35.17401
54900;34.88831
55200;34.71096
55500;34.59894
55800;34.34566
56100;34.09505
56400;33.96032
56700;33.88954
57000;33.83132
57300;33.58577
57600;33.36588
57900;33.23843
58200;33.17623
58500;33.00469
58800;32.74466
59100;32.57784
59400;32.49611
59700;32.45334
60000;32.43318
60300;32.38640
60600;32.14103
60900;31.91683
61200;31.79921
61500;31.80518
61800;32.03336
62100;32.21978
62400;32.31621
62700;32.39691
63000;32.64743
63300;32.87528
63600;32.99597
63900;33.05860
64200;33.08834
64500;33.10342
64800;33.11062
65100;33.11423
65400;33.11920
65700;33.28753
66000;33.52880
66300;33.67567
66600;33.74942
66900;33.78674
67200;33.80470
67500;33.81366
67800;33.81800
68100;33.82014
68400;33.82118
68700;33.82169
69000;33.82194
69300;33.82206
69600;33.82212
69900;33.82212
70200;33.82212
70500;33.82212
70800;33.82212
71100;33.82212
71400;33.83694
71700;34.04565
72000;34.27235
72300;34.39859
72600;34.46432
72900;34.49585
73200;34.51169
73500;34.51929
73800;34.52312
74100;34.52494
74400;34.52587
74700;34.52631
75000;34.52652
75300;34.52662
75600;34.52666
75900;34.52666
76200;34.52666
76500;34.52666
76800;34.52666
77100;34.52666
77400;34.52666
77700;34.54204
78000;34.75144
78300;34.97391
78600;35.19565
78900;35.51015
79200;35.06784
79500;35.00635
79800;35.05901
80100;35.08394
80400;35.09668
80700;35.10269
81000;35.10574
81300;35.10718
81600;35.10791
81900;35.10826
82200;35.10843
82500;35.10852
82800;35.10854
83100;35.10854
83400;35.10854
83700;35.10854
84000;35.10854
84300;35.10854
84600;35.10854
84900;35.10854
85200;35.10854
85500;35.18477
85800;35.43610
86100;35.61208
