ts,MLII,V5
0,-0.145,-0.065
2777777,-0.145,-0.065
5555554,-0.145,-0.065
8333331,-0.145,-0.065
11111108,-0.145,-0.065
13888885,-0.145,-0.065
16666662,-0.145,-0.065
19444439,-0.145,-0.065
22222216,-0.12,-0.08
24999993,-0.135,-0.08
27777770,-0.145,-0.085
30555547,-0.15,-0.085
33333324,-0.16,-0.075
36111101,-0.155,-0.07
38888878,-0.16,-0.07
41666655,-0.175,-0.065
44444432,-0.18,-0.055
47222209,-0.185,-0.05
49999986,-0.17,-0.05
52777763,-0.155,-0.04
55555540,-0.175,-0.04
58333317,-0.18,-0.055
61111094,-0.19,-0.075
63888871,-0.18,-0.08
66666648,-0.155,-0.085
69444425,-0.135,-0.07
72222202,-0.155,-0.08
74999979,-0.19,-0.08
77777756,-0.205,-0.09
80555533,-0.235,-0.095
83333310,-0.225,-0.09
86111087,-0.245,-0.095
88888864,-0.25,-0.11
91666641,-0.26,-0.12
94444418,-0.275,-0.145
97222195,-0.275,-0.135
99999972,-0.275,-0.105
102777749,-0.265,-0.095
105555526,-0.255,-0.105
108333303,-0.265,-0.12
111111080,-0.275,-0.135
113888857,-0.29,-0.125
116666634,-0.29,-0.125
119444411,-0.29,-0.115
122222188,-0.29,-0.115
124999965,-0.285,-0.125
127777742,-0.295,-0.14
130555519,-0.305,-0.14
133333296,-0.285,-0.13
136111073,-0.275,-0.125
138888850,-0.275,-0.14
141666627,-0.28,-0.145
144444404,-0.285,-0.15
147222181,-0.305,-0.15
149999958,-0.29,-0.13
152777735,-0.3,-0.115
155555512,-0.28,-0.125
158333289,-0.29,-0.135
161111066,-0.3,-0.16
163888843,-0.315,-0.195
166666620,-0.32,-0.2
169444397,-0.335,-0.205
172222174,-0.36,-0.225
174999951,-0.385,-0.255
177777728,-0.385,-0.3
180555505,-0.405,-0.29
183333282,-0.455,-0.235
186111059,-0.485,-0.13
188888836,-0.485,-0.035
191666613,-0.425,0.05
194444390,-0.33,0.12
197222167,-0.22,0.2
199999944,-0.07,0.31
202777721,0.12,0.435
205555498,0.375,0.535
208333275,0.62,0.58
211111052,0.78,0.475
213888829,0.84,0.21
216666606,0.765,-0.085
219444383,0.52,-0.23
222222160,0.17,-0.25
224999937,-0.165,-0.215
227777714,-0.365,-0.18
230555491,-0.435,-0.185
233333268,-0.425,-0.16
236111045,-0.37,-0.15
238888822,-0.33,-0.15
241666599,-0.325,-0.18
244444376,-0.335,-0.18
247222153,-0.345,-0.16
249999930,-0.33,-0.165
252777707,-0.325,-0.17
255555484,-0.315,-0.165
258333261,-0.31,-0.185
261111038,-0.32,-0.185
263888815,-0.335,-0.185
266666592,-0.34,-0.17
269444369,-0.325,-0.16
272222146,-0.345,-0.155
274999923,-0.335,-0.175
277777700,-0.33,-0.195
280555477,-0.335,-0.185
283333254,-0.33,-0.185
286111031,-0.325,-0.175
288888808,-0.33,-0.175
291666585,-0.33,-0.195
294444362,-0.345,-0.19
297222139,-0.355,-0.18
299999916,-0.335,-0.165
302777693,-0.325,-0.17
305555470,-0.305,-0.17
308333247,-0.32,-0.17
311111024,-0.32,-0.19
313888801,-0.33,-0.185
316666578,-0.34,-0.18
319444355,-0.335,-0.17
322222132,-0.34,-0.175
324999909,-0.345,-0.19
327777686,-0.355,-0.2
330555463,-0.355,-0.195
333333240,-0.34,-0.185
336111017,-0.33,-0.17
338888794,-0.33,-0.17
341666571,-0.33,-0.185
344444348,-0.34,-0.195
347222125,-0.35,-0.175
349999902,-0.325,-0.2
352777679,-0.325,-0.185
355555456,-0.33,-0.18
358333233,-0.33,-0.185
361111010,-0.335,-0.205
363888787,-0.335,-0.19
366666564,-0.34,-0.18
369444341,-0.33,-0.185
372222118,-0.34,-0.2
374999895,-0.35,-0.215
377777672,-0.355,-0.205
380555449,-0.35,-0.21
383333226,-0.345,-0.2
386111003,-0.33,-0.185
388888780,-0.32,-0.205
391666557,-0.335,-0.2
394444334,-0.33,-0.21
397222111,-0.345,-0.205
399999888,-0.33,-0.185
402777665,-0.335,-0.185
405555442,-0.335,-0.2
408333219,-0.345,-0.215
411110996,-0.345,-0.225
413888773,-0.355,-0.22
416666550,-0.34,-0.2
419444327,-0.34,-0.2
422222104,-0.335,-0.215
424999881,-0.33,-0.225
427777658,-0.35,-0.235
430555435,-0.35,-0.245
433333212,-0.345,-0.24
436110989,-0.335,-0.24
438888766,-0.335,-0.24
441666543,-0.335,-0.245
444444320,-0.35,-0.26
447222097,-0.355,-0.26
449999874,-0.355,-0.265
452777651,-0.345,-0.265
455555428,-0.345,-0.28
458333205,-0.335,-0.285
461110982,-0.35,-0.295
463888759,-0.36,-0.295
466666536,-0.36,-0.3
469444313,-0.36,-0.29
472222090,-0.365,-0.3
474999867,-0.36,-0.315
477777644,-0.37,-0.315
480555421,-0.385,-0.315
483333198,-0.37,-0.315
486110975,-0.36,-0.31
488888752,-0.355,-0.31
491666529,-0.36,-0.325
494444306,-0.375,-0.33
497222083,-0.375,-0.325
499999860,-0.365,-0.315
502777637,-0.365,-0.305
505555414,-0.36,-0.305
508333191,-0.36,-0.29
511110968,-0.365,-0.29
513888745,-0.37,-0.275
516666522,-0.355,-0.27
519444299,-0.33,-0.245
522222076,-0.325,-0.24
524999853,-0.325,-0.25
527777630,-0.335,-0.25
530555407,-0.34,-0.235
533333184,-0.315,-0.22
536110961,-0.3,-0.195
538888738,-0.3,-0.19
541666515,-0.29,-0.19
544444292,-0.295,-0.19
547222069,-0.29,-0.18
549999846,-0.285,-0.16
552777623,-0.275,-0.145
555555400,-0.255,-0.15
558333177,-0.25,-0.16
561110954,-0.25,-0.16
563888731,-0.265,-0.155
566666508,-0.255,-0.145
569444285,-0.245,-0.14
572222062,-0.23,-0.16
574999839,-0.245,-0.15
577777616,-0.245,-0.175
580555393,-0.255,-0.17
583333170,-0.255,-0.16
586110947,-0.24,-0.16
588888724,-0.25,-0.15
591666501,-0.255,-0.155
594444278,-0.245,-0.16
597222055,-0.255,-0.17
599999832,-0.25,-0.155
602777609,-0.25,-0.155
605555386,-0.265,-0.15
608333163,-0.26,-0.165
611110940,-0.26,-0.175
613888717,-0.265,-0.165
616666494,-0.27,-0.165
619444271,-0.265,-0.16
622222048,-0.26,-0.16
624999825,-0.275,-0.18
627777602,-0.28,-0.175
630555379,-0.29,-0.185
633333156,-0.275,-0.165
636110933,-0.27,-0.15
638888710,-0.26,-0.15
641666487,-0.28,-0.17
644444264,-0.28,-0.185
647222041,-0.285,-0.195
649999818,-0.275,-0.19
652777595,-0.275,-0.19
655555372,-0.265,-0.185
658333149,-0.27,-0.19
661110926,-0.285,-0.21
663888703,-0.29,-0.195
666666480,-0.28,-0.19
669444257,-0.275,-0.18
672222034,-0.285,-0.205
674999811,-0.28,-0.215
677777588,-0.3,-0.225
680555365,-0.3,-0.21
683333142,-0.305,-0.205
686110919,-0.295,-0.195
688888696,-0.3,-0.2
691666473,-0.31,-0.195
694444250,-0.31,-0.21
697222027,-0.305,-0.215
699999804,-0.295,-0.205
702777581,-0.285,-0.185
705555358,-0.285,-0.195
708333135,-0.29,-0.195
711110912,-0.295,-0.22
713888689,-0.31,-0.22
716666466,-0.29,-0.21
719444243,-0.295,-0.215
722222020,-0.3,-0.22
724999797,-0.305,-0.22
727777574,-0.31,-0.225
730555351,-0.325,-0.21
733333128,-0.31,-0.2
736110905,-0.3,-0.21
738888682,-0.29,-0.225
741666459,-0.31,-0.23
744444236,-0.325,-0.225
747222013,-0.33,-0.22
749999790,-0.315,-0.23
752777567,-0.3,-0.21
755555344,-0.305,-0.215
758333121,-0.31,-0.215
761110898,-0.32,-0.23
763888675,-0.33,-0.215
766666452,-0.325,-0.22
769444229,-0.315,-0.205
772222006,-0.31,-0.205
774999783,-0.305,-0.21
777777560,-0.305,-0.215
780555337,-0.31,-0.225
783333114,-0.3,-0.215
786110891,-0.305,-0.215
788888668,-0.29,-0.215
791666445,-0.3,-0.225
794444222,-0.3,-0.225
797221999,-0.305,-0.225
799999776,-0.305,-0.205
802777553,-0.29,-0.195
805555330,-0.28,-0.21
808333107,-0.295,-0.21
811110884,-0.305,-0.215
813888661,-0.315,-0.235
816666438,-0.305,-0.23
819444215,-0.295,-0.22
822221992,-0.29,-0.22
824999769,-0.28,-0.23
827777546,-0.27,-0.225
830555323,-0.275,-0.23
833333100,-0.275,-0.215
836110877,-0.27,-0.195
838888654,-0.25,-0.195
841666431,-0.25,-0.19
844444208,-0.255,-0.2
847221985,-0.225,-0.195
849999762,-0.22,-0.18
852777539,-0.205,-0.17
855555316,-0.2,-0.18
858333093,-0.205,-0.175
861110870,-0.215,-0.195
863888647,-0.23,-0.195
866666424,-0.22,-0.17
869444201,-0.225,-0.175
872221978,-0.225,-0.175
874999755,-0.225,-0.18
877777532,-0.23,-0.185
880555309,-0.235,-0.185
883333086,-0.24,-0.175
886110863,-0.235,-0.175
888888640,-0.22,-0.175
891666417,-0.21,-0.19
894444194,-0.205,-0.205
897221971,-0.245,-0.2
899999748,-0.285,-0.205
902777525,-0.285,-0.205
905555302,-0.3,-0.215
908333079,-0.31,-0.215
911110856,-0.33,-0.225
913888633,-0.33,-0.215
916666410,-0.325,-0.21
919444187,-0.315,-0.2
922221964,-0.32,-0.215
924999741,-0.315,-0.225
927777518,-0.325,-0.245
930555295,-0.34,-0.245
933333072,-0.345,-0.25
936110849,-0.34,-0.225
938888626,-0.34,-0.23
941666403,-0.35,-0.235
944444180,-0.345,-0.24
947221957,-0.355,-0.235
949999734,-0.33,-0.235
952777511,-0.335,-0.22
955555288,-0.33,-0.23
958333065,-0.32,-0.24
961110842,-0.345,-0.24
963888619,-0.355,-0.245
966666396,-0.34,-0.225
969444173,-0.33,-0.225
972221950,-0.325,-0.235
974999727,-0.33,-0.25
977777504,-0.35,-0.27
980555281,-0.365,-0.28
983333058,-0.36,-0.29
986110835,-0.38,-0.3
988888612,-0.425,-0.33
991666389,-0.445,-0.36
994444166,-0.475,-0.355
997221943,-0.51,-0.305
999999720,-0.535,-0.205
1002777497,-0.505,-0.08
1005555274,-0.415,0.015
1008333051,-0.3,0.065
1011110828,-0.16,0.115
1013888605,-0.015,0.19
1016666382,0.235,0.3
1019444159,0.49,0.41
1022221936,0.72,0.495
1024999713,0.875,0.485
1027777490,0.94,0.36
1030555267,0.905,0.105
1033333044,0.755,-0.165
1036110821,0.49,-0.35
1038888598,0.165,-0.45
1041666375,-0.11,-0.47
1044444152,-0.27,-0.45
1047221929,-0.39,-0.395
1049999706,-0.45,-0.345
1052777483,-0.475,-0.31
1055555260,-0.455,-0.295
1058333037,-0.425,-0.285
1061110814,-0.39,-0.295
1063888591,-0.39,-0.295
1066666368,-0.385,-0.28
1069444145,-0.39,-0.285
1072221922,-0.38,-0.285
1074999699,-0.38,-0.285
1077777476,-0.38,-0.29
1080555253,-0.395,-0.275
1083333030,-0.385,-0.275
1086110807,-0.385,-0.275
1088888584,-0.385,-0.27
1091666361,-0.375,-0.285
1094444138,-0.395,-0.295
1097221915,-0.41,-0.29
1099999692,-0.41,-0.275
1102777469,-0.4,-0.265
1105555246,-0.395,-0.265
1108333023,-0.39,-0.275
1111110800,-0.405,-0.295
1113888577,-0.395,-0.29
1116666354,-0.385,-0.285
1119444131,-0.375,-0.27
1122221908,-0.39,-0.265
1124999685,-0.39,-0.275
1127777462,-0.405,-0.28
1130555239,-0.41,-0.28
1133333016,-0.41,-0.27
1136110793,-0.39,-0.265
1138888570,-0.39,-0.27
1141666347,-0.395,-0.27
1144444124,-0.405,-0.28
1147221901,-0.415,-0.27
1149999678,-0.4,-0.265
1152777455,-0.41,-0.265
1155555232,-0.405,-0.265
1158333009,-0.41,-0.27
1161110786,-0.415,-0.285
1163888563,-0.41,-0.285
1166666340,-0.4,-0.265
1169444117,-0.4,-0.265
1172221894,-0.395,-0.255
1174999671,-0.39,-0.275
1177777448,-0.405,-0.275
1180555225,-0.41,-0.28
1183333002,-0.39,-0.27
1186110779,-0.39,-0.265
1188888556,-0.385,-0.275
1191666333,-0.385,-0.285
1194444110,-0.41,-0.28
1197221887,-0.405,-0.28
1199999664,-0.395,-0.275
1202777441,-0.39,-0.275
1205555218,-0.375,-0.275
1208332995,-0.39,-0.285
1211110772,-0.395,-0.295
1213888549,-0.41,-0.295
1216666326,-0.4,-0.275
1219444103,-0.39,-0.275
1222221880,-0.39,-0.285
1224999657,-0.385,-0.29
1227777434,-0.405,-0.315
1230555211,-0.415,-0.315
1233332988,-0.415,-0.305
1236110765,-0.4,-0.29
1238888542,-0.395,-0.31
1241666319,-0.405,-0.32
1244444096,-0.415,-0.32
1247221873,-0.42,-0.335
1249999650,-0.42,-0.33
1252777427,-0.41,-0.325
1255555204,-0.415,-0.345
1258332981,-0.425,-0.35
1261110758,-0.42,-0.365
1263888535,-0.435,-0.37
1266666312,-0.43,-0.355
1269444089,-0.43,-0.36
1272221866,-0.42,-0.37
1274999643,-0.43,-0.39
1277777420,-0.45,-0.395
1280555197,-0.455,-0.4
1283332974,-0.45,-0.39
1286110751,-0.435,-0.385
1288888528,-0.445,-0.39
1291666305,-0.45,-0.4
1294444082,-0.455,-0.41
1297221859,-0.47,-0.42
1299999636,-0.46,-0.405
1302777413,-0.455,-0.41
1305555190,-0.45,-0.41
1308332967,-0.455,-0.4
1311110744,-0.47,-0.405
1313888521,-0.475,-0.39
1316666298,-0.46,-0.385
1319444075,-0.45,-0.365
1322221852,-0.445,-0.355
1324999629,-0.44,-0.345
1327777406,-0.435,-0.355
1330555183,-0.44,-0.33
1333332960,-0.41,-0.295
1336110737,-0.395,-0.275
1338888514,-0.37,-0.27
1341666291,-0.365,-0.26
1344444068,-0.36,-0.265
1347221845,-0.365,-0.265
1349999622,-0.34,-0.245
1352777399,-0.325,-0.225
1355555176,-0.315,-0.21
1358332953,-0.32,-0.215
1361110730,-0.33,-0.215
1363888507,-0.33,-0.205
1366666284,-0.32,-0.195
1369444061,-0.31,-0.185
1372221838,-0.3,-0.185
1374999615,-0.3,-0.195
1377777392,-0.32,-0.195
1380555169,-0.32,-0.195
1383332946,-0.315,-0.185
1386110723,-0.305,-0.17
1388888500,-0.305,-0.185
1391666277,-0.295,-0.195
1394444054,-0.32,-0.195
1397221831,-0.33,-0.195
1399999608,-0.305,-0.185
1402777385,-0.31,-0.175
1405555162,-0.3,-0.175
1408332939,-0.3,-0.185
1411110716,-0.32,-0.195
1413888493,-0.325,-0.195
1416666270,-0.31,-0.195
1419444047,-0.305,-0.18
1422221824,-0.315,-0.185
1424999601,-0.305,-0.19
1427777378,-0.315,-0.195
1430555155,-0.315,-0.195
1433332932,-0.31,-0.19
1436110709,-0.295,-0.185
1438888486,-0.29,-0.185
1441666263,-0.305,-0.19
1444444040,-0.31,-0.2
1447221817,-0.32,-0.215
1449999594,-0.315,-0.195
1452777371,-0.3,-0.185
1455555148,-0.315,-0.185
1458332925,-0.315,-0.185
1461110702,-0.315,-0.2
1463888479,-0.33,-0.205
1466666256,-0.315,-0.19
1469444033,-0.32,-0.19
1472221810,-0.315,-0.2
1474999587,-0.325,-0.2
1477777364,-0.335,-0.195
1480555141,-0.34,-0.22
1483332918,-0.335,-0.205
1486110695,-0.335,-0.19
1488888472,-0.33,-0.2
1491666249,-0.325,-0.22
1494444026,-0.345,-0.23
1497221803,-0.35,-0.21
1499999580,-0.345,-0.205
1502777357,-0.335,-0.2
1505555134,-0.33,-0.195
1508332911,-0.33,-0.22
1511110688,-0.345,-0.225
1513888465,-0.345,-0.225
1516666242,-0.345,-0.215
1519444019,-0.32,-0.205
1522221796,-0.33,-0.205
1524999573,-0.335,-0.215
1527777350,-0.34,-0.225
1530555127,-0.355,-0.22
1533332904,-0.335,-0.225
1536110681,-0.33,-0.195
1538888458,-0.33,-0.215
1541666235,-0.335,-0.22
1544444012,-0.355,-0.215
1547221789,-0.36,-0.225
1549999566,-0.355,-0.215
1552777343,-0.35,-0.21
1555555120,-0.34,-0.21
1558332897,-0.345,-0.225
1561110674,-0.345,-0.23
1563888451,-0.345,-0.22
1566666228,-0.345,-0.21
1569444005,-0.33,-0.205
1572221782,-0.33,-0.2
1574999559,-0.335,-0.205
1577777336,-0.345,-0.22
1580555113,-0.35,-0.23
1583332890,-0.35,-0.215
1586110667,-0.34,-0.205
1588888444,-0.33,-0.2
1591666221,-0.345,-0.23
1594443998,-0.345,-0.22
1597221775,-0.355,-0.215
1599999552,-0.35,-0.205
1602777329,-0.34,-0.2
1605555106,-0.33,-0.205
1608332883,-0.34,-0.22
1611110660,-0.34,-0.22
1613888437,-0.34,-0.225
1616666214,-0.33,-0.205
1619443991,-0.335,-0.2
1622221768,-0.33,-0.2
1624999545,-0.335,-0.21
1627777322,-0.345,-0.23
1630555099,-0.345,-0.215
1633332876,-0.34,-0.2
1636110653,-0.33,-0.2
1638888430,-0.315,-0.205
1641666207,-0.295,-0.21
1644443984,-0.3,-0.215
1647221761,-0.295,-0.22
1649999538,-0.285,-0.205
1652777315,-0.275,-0.2
1655555092,-0.265,-0.195
1658332869,-0.265,-0.205
1661110646,-0.265,-0.205
1663888423,-0.255,-0.205
1666666200,-0.25,-0.18
1669443977,-0.24,-0.17
1672221754,-0.225,-0.19
1674999531,-0.215,-0.19
1677777308,-0.24,-0.2
1680555085,-0.245,-0.185
1683332862,-0.24,-0.165
1686110639,-0.245,-0.145
1688888416,-0.235,-0.145
1691666193,-0.245,-0.17
1694443970,-0.25,-0.175
1697221747,-0.275,-0.17
1699999524,-0.275,-0.165
1702777301,-0.265,-0.15
1705555078,-0.25,-0.16
1708332855,-0.225,-0.175
1711110632,-0.22,-0.19
1713888409,-0.23,-0.19
1716666186,-0.265,-0.185
1719443963,-0.27,-0.185
1722221740,-0.28,-0.175
1724999517,-0.285,-0.195
1727777294,-0.305,-0.215
1730555071,-0.32,-0.205
1733332848,-0.34,-0.2
1736110625,-0.33,-0.195
1738888402,-0.335,-0.205
1741666179,-0.335,-0.21
1744443956,-0.355,-0.22
1747221733,-0.37,-0.215
1749999510,-0.36,-0.21
1752777287,-0.345,-0.205
1755555064,-0.35,-0.2
1758332841,-0.355,-0.21
1761110618,-0.365,-0.22
1763888395,-0.375,-0.22
1766666172,-0.38,-0.22
1769443949,-0.37,-0.2
1772221726,-0.365,-0.205
1774999503,-0.365,-0.215
1777777280,-0.38,-0.225
1780555057,-0.385,-0.22
1783332834,-0.38,-0.215
1786110611,-0.375,-0.205
1788888388,-0.355,-0.22
1791666165,-0.37,-0.225
1794443942,-0.39,-0.24
1797221719,-0.405,-0.26
1799999496,-0.41,-0.28
1802777273,-0.435,-0.3
1805555050,-0.465,-0.345
1808332827,-0.49,-0.375
1811110604,-0.52,-0.345
1813888381,-0.555,-0.26
1816666158,-0.57,-0.125
1819443935,-0.525,0.025
1822221712,-0.405,0.145
1824999489,-0.25,0.26
1827777266,-0.09,0.375
1830555043,0.12,0.505
1833332820,0.41,0.635
1836110597,0.69,0.705
1838888374,0.885,0.61
1841666151,0.96,0.32
1844443928,0.85,-0.045
1847221705,0.52,-0.25
1849999482,0.05,-0.27
1852777259,-0.32,-0.24
1855555036,-0.5,-0.24
1858332813,-0.505,-0.25
1861110590,-0.445,-0.255
1863888367,-0.415,-0.245
1866666144,-0.395,-0.245
1869443921,-0.39,-0.245
1872221698,-0.395,-0.255
1874999475,-0.39,-0.26
1877777252,-0.395,-0.26
1880555029,-0.405,-0.27
1883332806,-0.395,-0.245
1886110583,-0.405,-0.245
1888888360,-0.39,-0.25
1891666137,-0.395,-0.265
1894443914,-0.395,-0.27
1897221691,-0.41,-0.27
1899999468,-0.405,-0.265
1902777245,-0.4,-0.26
1905555022,-0.4,-0.26
1908332799,-0.415,-0.27
1911110576,-0.405,-0.28
1913888353,-0.42,-0.28
1916666130,-0.415,-0.27
1919443907,-0.405,-0.255
1922221684,-0.405,-0.265
1924999461,-0.42,-0.28
1927777238,-0.42,-0.29
1930555015,-0.435,-0.275
1933332792,-0.42,-0.265
1936110569,-0.41,-0.255
1938888346,-0.41,-0.26
1941666123,-0.405,-0.26
1944443900,-0.425,-0.28
1947221677,-0.43,-0.28
1949999454,-0.42,-0.265
1952777231,-0.415,-0.26
1955555008,-0.41,-0.255
1958332785,-0.41,-0.26
1961110562,-0.425,-0.275
1963888339,-0.42,-0.27
1966666116,-0.4,-0.275
1969443893,-0.395,-0.265
1972221670,-0.4,-0.265
1974999447,-0.4,-0.27
1977777224,-0.395,-0.28
1980555001,-0.415,-0.285
1983332778,-0.405,-0.28
1986110555,-0.39,-0.255
1988888332,-0.4,-0.27
1991666109,-0.4,-0.28
1994443886,-0.415,-0.29
1997221663,-0.425,-0.29
1999999440,-0.425,-0.27
2002777217,-0.415,-0.27
2005554994,-0.415,-0.285
2008332771,-0.41,-0.3
2011110548,-0.425,-0.3
2013888325,-0.425,-0.3
2016666102,-0.42,-0.295
2019443879,-0.415,-0.275
2022221656,-0.4,-0.295
2024999433,-0.4,-0.3
2027777210,-0.41,-0.31
2030554987,-0.425,-0.31
2033332764,-0.41,-0.315
2036110541,-0.405,-0.31
2038888318,-0.395,-0.31
2041666095,-0.4,-0.335
2044443872,-0.4,-0.345
2047221649,-0.405,-0.355
2049999426,-0.385,-0.35
2052777203,-0.4,-0.345
2055554980,-0.39,-0.36
2058332757,-0.39,-0.37
2061110534,-0.4,-0.375
2063888311,-0.415,-0.385
2066666088,-0.405,-0.37
2069443865,-0.405,-0.37
2072221642,-0.41,-0.385
2074999419,-0.415,-0.4
2077777196,-0.42,-0.415
2080554973,-0.42,-0.405
2083332750,-0.425,-0.41
2086110527,-0.415,-0.39
2088888304,-0.415,-0.405
2091666081,-0.41,-0.41
2094443858,-0.435,-0.425
2097221635,-0.43,-0.42
2099999412,-0.435,-0.41
2102777189,-0.42,-0.405
2105554966,-0.42,-0.4
2108332743,-0.42,-0.4
2111110520,-0.42,-0.405
2113888297,-0.425,-0.385
2116666074,-0.425,-0.365
2119443851,-0.415,-0.345
2122221628,-0.395,-0.335
2124999405,-0.395,-0.325
2127777182,-0.39,-0.31
2130554959,-0.375,-0.295
2133332736,-0.36,-0.275
2136110513,-0.34,-0.255
2138888290,-0.335,-0.25
2141666067,-0.33,-0.24
2144443844,-0.335,-0.245
2147221621,-0.335,-0.23
2149999398,-0.325,-0.205
2152777175,-0.32,-0.2
2155554952,-0.305,-0.2
2158332729,-0.305,-0.205
2161110506,-0.315,-0.21
2163888283,-0.31,-0.22
2166666060,-0.305,-0.195
2169443837,-0.3,-0.19
2172221614,-0.3,-0.2
2174999391,-0.3,-0.2
2177777168,-0.31,-0.21
2180554945,-0.31,-0.2
2183332722,-0.31,-0.19
2186110499,-0.315,-0.175
2188888276,-0.3,-0.2
2191666053,-0.305,-0.205
2194443830,-0.315,-0.21
2197221607,-0.32,-0.2
2199999384,-0.325,-0.2
2202777161,-0.31,-0.18
2205554938,-0.305,-0.19
2208332715,-0.305,-0.19
2211110492,-0.32,-0.205
2213888269,-0.325,-0.205
2216666046,-0.305,-0.195
2219443823,-0.31,-0.185
2222221600,-0.295,-0.19
2224999377,-0.31,-0.19
2227777154,-0.325,-0.21
2230554931,-0.33,-0.21
2233332708,-0.32,-0.205
2236110485,-0.32,-0.205
2238888262,-0.32,-0.2
2241666039,-0.325,-0.215
2244443816,-0.35,-0.225
2247221593,-0.35,-0.21
2249999370,-0.34,-0.21
2252777147,-0.335,-0.21
2255554924,-0.33,-0.215
2258332701,-0.335,-0.225
2261110478,-0.34,-0.225
2263888255,-0.36,-0.23
2266666032,-0.35,-0.21
2269443809,-0.35,-0.21
2272221586,-0.355,-0.23
2274999363,-0.36,-0.25
2277777140,-0.355,-0.25
2280554917,-0.365,-0.245
2283332694,-0.355,-0.23
2286110471,-0.35,-0.215
2288888248,-0.34,-0.23
2291666025,-0.355,-0.24
2294443802,-0.35,-0.245
2297221579,-0.365,-0.245
2299999356,-0.365,-0.24
2302777133,-0.35,-0.215
2305554910,-0.355,-0.225
2308332687,-0.35,-0.24
2311110464,-0.37,-0.24
2313888241,-0.38,-0.245
2316666018,-0.37,-0.24
2319443795,-0.36,-0.23
2322221572,-0.365,-0.235
2324999349,-0.36,-0.24
2327777126,-0.365,-0.23
2330554903,-0.38,-0.25
2333332680,-0.37,-0.225
2336110457,-0.365,-0.215
2338888234,-0.35,-0.23
2341666011,-0.35,-0.24
2344443788,-0.35,-0.25
2347221565,-0.37,-0.265
2349999342,-0.365,-0.23
2352777119,-0.345,-0.22
2355554896,-0.345,-0.235
2358332673,-0.34,-0.225
2361110450,-0.355,-0.235
2363888227,-0.365,-0.235
2366666004,-0.36,-0.225
2369443781,-0.355,-0.225
2372221558,-0.355,-0.215
2374999335,-0.355,-0.225
2377777112,-0.375,-0.235
2380554889,-0.385,-0.23
2383332666,-0.355,-0.225
2386110443,-0.36,-0.225
2388888220,-0.355,-0.225
2391665997,-0.36,-0.225
2394443774,-0.36,-0.23
2397221551,-0.37,-0.23
2399999328,-0.36,-0.215
2402777105,-0.345,-0.21
2405554882,-0.355,-0.225
2408332659,-0.345,-0.24
2411110436,-0.345,-0.235
2413888213,-0.345,-0.24
2416665990,-0.34,-0.225
2419443767,-0.31,-0.215
2422221544,-0.305,-0.22
2424999321,-0.305,-0.22
2427777098,-0.31,-0.23
2430554875,-0.305,-0.23
2433332652,-0.29,-0.205
2436110429,-0.285,-0.2
2438888206,-0.275,-0.205
2441665983,-0.28,-0.195
2444443760,-0.28,-0.21
2447221537,-0.275,-0.205
2449999314,-0.265,-0.19
2452777091,-0.255,-0.185
2455554868,-0.245,-0.2
2458332645,-0.26,-0.195
2461110422,-0.265,-0.2
2463888199,-0.275,-0.19
2466665976,-0.28,-0.17
2469443753,-0.265,-0.14
2472221530,-0.27,-0.165
2474999307,-0.275,-0.165
2477777084,-0.28,-0.185
2480554861,-0.275,-0.18
2483332638,-0.28,-0.17
2486110415,-0.275,-0.15
2488888192,-0.265,-0.165
2491665969,-0.255,-0.18
2494443746,-0.24,-0.2
2497221523,-0.26,-0.21
2499999300,-0.28,-0.21
2502777077,-0.31,-0.185
2505554854,-0.31,-0.19
2508332631,-0.345,-0.2
2511110408,-0.36,-0.215
2513888185,-0.38,-0.22
2516665962,-0.385,-0.21
2519443739,-0.38,-0.195
2522221516,-0.37,-0.205
2524999293,-0.375,-0.22
2527777070,-0.385,-0.225
2530554847,-0.39,-0.23
2533332624,-0.395,-0.22
2536110401,-0.385,-0.21
2538888178,-0.385,-0.21
2541665955,-0.385,-0.23
2544443732,-0.395,-0.235
2547221509,-0.405,-0.23
2549999286,-0.4,-0.225
2552777063,-0.375,-0.215
2555554840,-0.375,-0.22
2558332617,-0.39,-0.22
2561110394,-0.395,-0.23
2563888171,-0.415,-0.24
2566665948,-0.405,-0.22
2569443725,-0.4,-0.225
2572221502,-0.39,-0.235
2574999279,-0.405,-0.25
2577777056,-0.425,-0.28
2580554833,-0.46,-0.305
2583332610,-0.475,-0.325
2586110387,-0.505,-0.345
2588888164,-0.51,-0.375
2591665941,-0.525,-0.415
2594443718,-0.54,-0.425
2597221495,-0.6,-0.385
2599999272,-0.645,-0.295
2602777049,-0.63,-0.18
2605554826,-0.575,-0.065
2608332603,-0.495,0.035
2611110380,-0.385,0.13
2613888157,-0.27,0.24
2616665934,-0.115,0.37
2619443711,0.09,0.495
2622221488,0.37,0.61
2624999265,0.635,0.655
2627777042,0.81,0.545
2630554819,0.86,0.23
2633332596,0.77,-0.105
2636110373,0.475,-0.28
2638888150,0.065,-0.285
2641665927,-0.305,-0.255
2644443704,-0.5,-0.255
2647221481,-0.52,-0.26
2649999258,-0.475,-0.23
2652777035,-0.41,-0.22
2655554812,-0.39,-0.245
2658332589,-0.39,-0.255
2661110366,-0.4,-0.26
2663888143,-0.41,-0.25
2666665920,-0.405,-0.235
2669443697,-0.385,-0.245
2672221474,-0.39,-0.245
2674999251,-0.395,-0.26
2677777028,-0.405,-0.265
2680554805,-0.41,-0.265
2683332582,-0.405,-0.26
2686110359,-0.4,-0.24
2688888136,-0.39,-0.245
2691665913,-0.395,-0.26
2694443690,-0.41,-0.27
2697221467,-0.415,-0.27
2699999244,-0.41,-0.255
2702777021,-0.395,-0.255
2705554798,-0.405,-0.25
2708332575,-0.41,-0.265
2711110352,-0.405,-0.27
2713888129,-0.405,-0.27
2716665906,-0.41,-0.265
2719443683,-0.39,-0.25
2722221460,-0.385,-0.245
2724999237,-0.39,-0.265
2727777014,-0.395,-0.27
2730554791,-0.4,-0.26
2733332568,-0.4,-0.255
2736110345,-0.4,-0.245
2738888122,-0.395,-0.25
2741665899,-0.395,-0.26
2744443676,-0.405,-0.27
2747221453,-0.405,-0.26
2749999230,-0.4,-0.255
2752777007,-0.395,-0.25
2755554784,-0.385,-0.255
2758332561,-0.375,-0.255
2761110338,-0.385,-0.275
2763888115,-0.395,-0.27
2766665892,-0.39,-0.265
2769443669,-0.385,-0.26
2772221446,-0.375,-0.26
2774999223,-0.385,-0.275
2777777000,-0.395,-0.27
2780554777,-0.395,-0.26
2783332554,-0.385,-0.245
2786110331,-0.375,-0.255
2788888108,-0.375,-0.265
2791665885,-0.385,-0.265
2794443662,-0.395,-0.27
2797221439,-0.39,-0.265
2799999216,-0.39,-0.26
2802776993,-0.365,-0.27
2805554770,-0.375,-0.265
2808332547,-0.385,-0.27
2811110324,-0.395,-0.28
2813888101,-0.38,-0.285
2816665878,-0.385,-0.28
2819443655,-0.375,-0.285
2822221432,-0.38,-0.29
2824999209,-0.39,-0.31
2827776986,-0.38,-0.305
2830554763,-0.375,-0.3
2833332540,-0.375,-0.3
2836110317,-0.375,-0.31
2838888094,-0.375,-0.325
2841665871,-0.38,-0.34
2844443648,-0.39,-0.34
2847221425,-0.39,-0.325
2849999202,-0.365,-0.32
2852776979,-0.37,-0.355
2855554756,-0.375,-0.36
2858332533,-0.385,-0.38
2861110310,-0.39,-0.385
2863888087,-0.39,-0.375
2866665864,-0.375,-0.365
2869443641,-0.365,-0.375
2872221418,-0.385,-0.385
2874999195,-0.38,-0.39
2877776972,-0.39,-0.395
2880554749,-0.375,-0.385
2883332526,-0.375,-0.375
2886110303,-0.365,-0.375
2888888080,-0.37,-0.375
2891665857,-0.385,-0.38
2894443634,-0.395,-0.365
2897221411,-0.385,-0.345
2899999188,-0.385,-0.335
2902776965,-0.37,-0.315
2905554742,-0.365,-0.31
2908332519,-0.37,-0.305
2911110296,-0.375,-0.29
2913888073,-0.35,-0.27
2916665850,-0.335,-0.255
2919443627,-0.32,-0.25
2922221404,-0.315,-0.245
2924999181,-0.32,-0.235
2927776958,-0.325,-0.235
2930554735,-0.315,-0.225
2933332512,-0.295,-0.22
2936110289,-0.285,-0.195
2938888066,-0.3,-0.215
2941665843,-0.295,-0.23
2944443620,-0.285,-0.215
2947221397,-0.285,-0.205
2949999174,-0.28,-0.195
2952776951,-0.27,-0.2
2955554728,-0.28,-0.195
2958332505,-0.29,-0.195
2961110282,-0.295,-0.205
2963888059,-0.295,-0.195
2966665836,-0.29,-0.18
2969443613,-0.28,-0.19
2972221390,-0.29,-0.205
2974999167,-0.295,-0.21
2977776944,-0.31,-0.205
2980554721,-0.295,-0.18
2983332498,-0.285,-0.185
2986110275,-0.28,-0.19
2988888052,-0.275,-0.205
2991665829,-0.295,-0.215
2994443606,-0.305,-0.215
2997221383,-0.3,-0.215
2999999160,-0.295,-0.19
3002776937,-0.295,-0.21
3005554714,-0.285,-0.2
3008332491,-0.3,-0.215
3011110268,-0.305,-0.22
3013888045,-0.3,-0.225
3016665822,-0.295,-0.215
3019443599,-0.3,-0.215
3022221376,-0.305,-0.23
3024999153,-0.315,-0.225
3027776930,-0.31,-0.225
3030554707,-0.315,-0.21
3033332484,-0.295,-0.21
3036110261,-0.3,-0.215
3038888038,-0.31,-0.23
3041665815,-0.33,-0.235
3044443592,-0.34,-0.23
3047221369,-0.33,-0.22
3049999146,-0.32,-0.215
3052776923,-0.32,-0.23
3055554700,-0.315,-0.235
3058332477,-0.325,-0.25
3061110254,-0.335,-0.245
3063888031,-0.33,-0.24
3066665808,-0.315,-0.22
3069443585,-0.32,-0.23
3072221362,-0.32,-0.23
3074999139,-0.33,-0.235
3077776916,-0.345,-0.24
3080554693,-0.34,-0.235
3083332470,-0.335,-0.22
3086110247,-0.33,-0.23
3088888024,-0.335,-0.24
3091665801,-0.345,-0.255
3094443578,-0.35,-0.245
3097221355,-0.345,-0.235
3099999132,-0.34,-0.22
3102776909,-0.335,-0.23
3105554686,-0.335,-0.24
3108332463,-0.33,-0.25
3111110240,-0.335,-0.255
3113888017,-0.34,-0.24
3116665794,-0.335,-0.225
3119443571,-0.32,-0.23
3122221348,-0.34,-0.235
3124999125,-0.34,-0.24
3127776902,-0.35,-0.245
3130554679,-0.365,-0.235
3133332456,-0.36,-0.23
3136110233,-0.345,-0.235
3138888010,-0.345,-0.24
3141665787,-0.35,-0.245
3144443564,-0.35,-0.235
3147221341,-0.35,-0.235
3149999118,-0.34,-0.23
3152776895,-0.34,-0.24
3155554672,-0.345,-0.235
3158332449,-0.345,-0.245
3161110226,-0.38,-0.25
3163888003,-0.36,-0.23
3166665780,-0.36,-0.21
3169443557,-0.345,-0.23
3172221334,-0.345,-0.235
3174999111,-0.35,-0.245
3177776888,-0.355,-0.25
3180554665,-0.345,-0.245
3183332442,-0.33,-0.23
3186110219,-0.33,-0.23
3188887996,-0.335,-0.235
3191665773,-0.335,-0.25
3194443550,-0.34,-0.25
3197221327,-0.33,-0.24
3199999104,-0.32,-0.225
3202776881,-0.29,-0.23
3205554658,-0.29,-0.235
3208332435,-0.3,-0.24
3211110212,-0.305,-0.245
3213887989,-0.285,-0.24
3216665766,-0.28,-0.225
3219443543,-0.275,-0.225
3222221320,-0.28,-0.23
3224999097,-0.275,-0.23
3227776874,-0.27,-0.225
3230554651,-0.265,-0.205
3233332428,-0.25,-0.21
3236110205,-0.23,-0.22
3238887982,-0.245,-0.205
3241665759,-0.24,-0.22
3244443536,-0.255,-0.22
3247221313,-0.255,-0.21
3249999090,-0.245,-0.19
3252776867,-0.235,-0.18
3255554644,-0.255,-0.18
3258332421,-0.265,-0.185
3261110198,-0.26,-0.19
3263887975,-0.255,-0.19
3266665752,-0.27,-0.185
3269443529,-0.265,-0.205
3272221306,-0.28,-0.2
3274999083,-0.255,-0.22
3277776860,-0.25,-0.22
3280554637,-0.245,-0.22
3283332414,-0.265,-0.21
3286110191,-0.28,-0.225
3288887968,-0.3,-0.22
3291665745,-0.315,-0.24
3294443522,-0.325,-0.245
3297221299,-0.335,-0.235
3299999076,-0.345,-0.23
3302776853,-0.33,-0.245
3305554630,-0.335,-0.245
3308332407,-0.345,-0.25
3311110184,-0.36,-0.255
3313887961,-0.35,-0.23
3316665738,-0.34,-0.225
3319443515,-0.335,-0.23
3322221292,-0.345,-0.245
3324999069,-0.36,-0.255
3327776846,-0.365,-0.265
3330554623,-0.375,-0.255
3333332400,-0.37,-0.245
3336110177,-0.365,-0.26
3338887954,-0.365,-0.25
3341665731,-0.38,-0.26
3344443508,-0.375,-0.27
3347221285,-0.375,-0.24
3349999062,-0.365,-0.245
3352776839,-0.37,-0.25
3355554616,-0.36,-0.25
3358332393,-0.37,-0.25
3361110170,-0.38,-0.265
3363887947,-0.365,-0.255
3366665724,-0.36,-0.245
3369443501,-0.35,-0.255
3372221278,-0.355,-0.265
3374999055,-0.37,-0.28
3377776832,-0.385,-0.305
3380554609,-0.395,-0.32
3383332386,-0.43,-0.35
3386110163,-0.445,-0.38
3388887940,-0.485,-0.39
3391665717,-0.515,-0.345
3394443494,-0.565,-0.24
3397221271,-0.555,-0.11
3399999048,-0.475,-0.02
3402776825,-0.355,0.04
3405554602,-0.22,0.11
3408332379,-0.055,0.22
3411110156,0.185,0.35
3413887933,0.475,0.44
3416665710,0.705,0.395
3419443487,0.82,0.155
3422221264,0.78,-0.17
3424999041,0.535,-0.38
3427776818,0.145,-0.41
3430554595,-0.2,-0.355
3433332372,-0.42,-0.32
3436110149,-0.5,-0.305
3438887926,-0.48,-0.3
3441665703,-0.45,-0.295
3444443480,-0.41,-0.295
3447221257,-0.4,-0.285
3449999034,-0.39,-0.3
3452776811,-0.39,-0.31
3455554588,-0.4,-0.305
3458332365,-0.405,-0.305
3461110142,-0.425,-0.295
3463887919,-0.425,-0.27
3466665696,-0.405,-0.27
3469443473,-0.395,-0.285
3472221250,-0.405,-0.305
3474999027,-0.405,-0.31
3477776804,-0.415,-0.3
3480554581,-0.405,-0.29
3483332358,-0.385,-0.275
3486110135,-0.39,-0.285
3488887912,-0.395,-0.285
3491665689,-0.395,-0.305
3494443466,-0.395,-0.29
3497221243,-0.395,-0.29
3499999020,-0.385,-0.285
3502776797,-0.39,-0.285
3505554574,-0.39,-0.29
3508332351,-0.4,-0.3
3511110128,-0.425,-0.295
3513887905,-0.41,-0.285
3516665682,-0.4,-0.275
3519443459,-0.395,-0.29
3522221236,-0.4,-0.295
3524999013,-0.405,-0.275
3527776790,-0.425,-0.285
3530554567,-0.415,-0.285
3533332344,-0.405,-0.26
3536110121,-0.405,-0.27
3538887898,-0.405,-0.265
3541665675,-0.41,-0.285
3544443452,-0.415,-0.29
3547221229,-0.405,-0.295
3549999006,-0.42,-0.28
3552776783,-0.405,-0.29
3555554560,-0.41,-0.295
3558332337,-0.41,-0.3
3561110114,-0.42,-0.31
3563887891,-0.415,-0.305
3566665668,-0.405,-0.295
3569443445,-0.395,-0.3
3572221222,-0.395,-0.28
3574998999,-0.395,-0.29
3577776776,-0.4,-0.305
3580554553,-0.395,-0.29
3583332330,-0.395,-0.285
3586110107,-0.405,-0.305
3588887884,-0.405,-0.31
3591665661,-0.42,-0.315
3594443438,-0.435,-0.305
3597221215,-0.415,-0.295
3599998992,-0.405,-0.29
3602776769,-0.395,-0.295
3605554546,-0.39,-0.3
3608332323,-0.415,-0.305
3611110100,-0.405,-0.325
3613887877,-0.405,-0.31
3616665654,-0.4,-0.3
3619443431,-0.395,-0.31
3622221208,-0.395,-0.335
3624998985,-0.405,-0.34
3627776762,-0.42,-0.35
3630554539,-0.415,-0.355
3633332316,-0.4,-0.34
3636110093,-0.395,-0.35
3638887870,-0.4,-0.365
3641665647,-0.405,-0.38
3644443424,-0.425,-0.4
3647221201,-0.425,-0.385
3649998978,-0.425,-0.38
3652776755,-0.42,-0.39
3655554532,-0.425,-0.4
3658332309,-0.45,-0.405
3661110086,-0.445,-0.405
3663887863,-0.45,-0.405
3666665640,-0.435,-0.415
3669443417,-0.445,-0.415
3672221194,-0.47,-0.42
3674998971,-0.455,-0.415
3677776748,-0.46,-0.425
3680554525,-0.44,-0.41
3683332302,-0.435,-0.395
3686110079,-0.425,-0.385
3688887856,-0.43,-0.405
3691665633,-0.445,-0.395
3694443410,-0.45,-0.395
3697221187,-0.445,-0.375
3699998964,-0.43,-0.37
3702776741,-0.42,-0.375
3705554518,-0.41,-0.375
3708332295,-0.425,-0.37
3711110072,-0.42,-0.36
3713887849,-0.405,-0.345
3716665626,-0.38,-0.32
3719443403,-0.37,-0.305
3722221180,-0.365,-0.305
3724998957,-0.365,-0.3
3727776734,-0.365,-0.285
3730554511,-0.345,-0.275
3733332288,-0.33,-0.26
3736110065,-0.315,-0.245
3738887842,-0.305,-0.245
3741665619,-0.305,-0.25
3744443396,-0.32,-0.255
3747221173,-0.31,-0.245
3749998950,-0.31,-0.23
3752776727,-0.305,-0.235
3755554504,-0.31,-0.245
3758332281,-0.315,-0.255
3761110058,-0.32,-0.255
3763887835,-0.315,-0.225
3766665612,-0.305,-0.23
3769443389,-0.305,-0.235
3772221166,-0.295,-0.24
3774998943,-0.31,-0.25
3777776720,-0.32,-0.245
3780554497,-0.31,-0.225
3783332274,-0.315,-0.215
3786110051,-0.295,-0.22
3788887828,-0.3,-0.24
3791665605,-0.305,-0.25
3794443382,-0.3,-0.255
3797221159,-0.285,-0.245
3799998936,-0.28,-0.24
3802776713,-0.29,-0.235
3805554490,-0.295,-0.245
3808332267,-0.305,-0.255
3811110044,-0.325,-0.25
3813887821,-0.305,-0.235
3816665598,-0.3,-0.23
3819443375,-0.3,-0.25
3822221152,-0.315,-0.26
3824998929,-0.325,-0.275
3827776706,-0.335,-0.28
3830554483,-0.325,-0.275
3833332260,-0.315,-0.26
3836110037,-0.32,-0.27
3838887814,-0.335,-0.255
3841665591,-0.33,-0.265
3844443368,-0.34,-0.255
3847221145,-0.325,-0.265
3849998922,-0.325,-0.26
3852776699,-0.32,-0.265
3855554476,-0.315,-0.265
3858332253,-0.335,-0.275
3861110030,-0.335,-0.27
3863887807,-0.345,-0.265
3866665584,-0.335,-0.255
3869443361,-0.325,-0.255
3872221138,-0.33,-0.265
3874998915,-0.315,-0.275
3877776692,-0.335,-0.29
3880554469,-0.33,-0.275
3883332246,-0.33,-0.26
3886110023,-0.33,-0.27
3888887800,-0.33,-0.265
3891665577,-0.335,-0.27
3894443354,-0.34,-0.265
3897221131,-0.33,-0.265
3899998908,-0.32,-0.25
3902776685,-0.315,-0.265
3905554462,-0.325,-0.265
3908332239,-0.335,-0.27
3911110016,-0.355,-0.27
3913887793,-0.345,-0.265
3916665570,-0.34,-0.255
3919443347,-0.335,-0.26
3922221124,-0.32,-0.255
3924998901,-0.325,-0.27
3927776678,-0.35,-0.27
3930554455,-0.33,-0.285
3933332232,-0.315,-0.265
3936110009,-0.315,-0.26
3938887786,-0.33,-0.265
3941665563,-0.33,-0.27
3944443340,-0.335,-0.265
3947221117,-0.335,-0.26
3949998894,-0.33,-0.25
3952776671,-0.33,-0.265
3955554448,-0.33,-0.265
3958332225,-0.34,-0.27
3961110002,-0.34,-0.265
3963887779,-0.34,-0.255
3966665556,-0.325,-0.245
3969443333,-0.325,-0.255
3972221110,-0.325,-0.275
3974998887,-0.345,-0.275
3977776664,-0.35,-0.275
3980554441,-0.34,-0.255
3983332218,-0.33,-0.255
3986109995,-0.32,-0.26
3988887772,-0.31,-0.265
3991665549,-0.305,-0.285
3994443326,-0.305,-0.28
3997221103,-0.275,-0.265
3999998880,-0.27,-0.26
4002776657,-0.255,-0.255
4005554434,-0.26,-0.25
4008332211,-0.265,-0.255
4011109988,-0.26,-0.25
4013887765,-0.25,-0.24
4016665542,-0.235,-0.23
4019443319,-0.235,-0.235
4022221096,-0.22,-0.225
4024998873,-0.235,-0.235
4027776650,-0.235,-0.24
4030554427,-0.22,-0.225
4033332204,-0.23,-0.215
4036109981,-0.225,-0.235
4038887758,-0.235,-0.23
4041665535,-0.245,-0.225
4044443312,-0.255,-0.215
4047221089,-0.24,-0.205
4049998866,-0.23,-0.2
4052776643,-0.23,-0.21
4055554420,-0.25,-0.225
4058332197,-0.255,-0.23
4061109974,-0.25,-0.225
4063887751,-0.23,-0.215
4066665528,-0.205,-0.21
4069443305,-0.195,-0.235
4072221082,-0.21,-0.24
4074998859,-0.23,-0.255
4077776636,-0.27,-0.245
4080554413,-0.27,-0.235
4083332190,-0.285,-0.23
4086109967,-0.285,-0.235
4088887744,-0.31,-0.245
4091665521,-0.33,-0.27
4094443298,-0.34,-0.26
4097221075,-0.34,-0.25
4099998852,-0.345,-0.24
4102776629,-0.35,-0.24
4105554406,-0.35,-0.255
4108332183,-0.34,-0.26
4111109960,-0.355,-0.265
4113887737,-0.345,-0.255
4116665514,-0.34,-0.245
4119443291,-0.34,-0.245
4122221068,-0.345,-0.26
4124998845,-0.355,-0.255
4127776622,-0.37,-0.26
4130554399,-0.355,-0.255
4133332176,-0.37,-0.24
4136109953,-0.345,-0.24
4138887730,-0.34,-0.26
4141665507,-0.36,-0.26
4144443284,-0.38,-0.25
4147221061,-0.36,-0.24
4149998838,-0.345,-0.235
4152776615,-0.35,-0.24
4155554392,-0.35,-0.255
4158332169,-0.355,-0.27
4161109946,-0.38,-0.285
4163887723,-0.39,-0.29
4166665500,-0.395,-0.31
4169443277,-0.425,-0.33
4172221054,-0.455,-0.365
4174998831,-0.475,-0.37
4177776608,-0.51,-0.35
4180554385,-0.545,-0.26
4183332162,-0.54,-0.135
4186109939,-0.495,-0.02
4188887716,-0.405,0.035
4191665493,-0.295,0.095
4194443270,-0.16,0.185
4197221047,0.04,0.315
4199998824,0.315,0.45
4202776601,0.595,0.515
4205554378,0.8,0.45
4208332155,0.885,0.175
4211109932,0.795,-0.18
4213887709,0.52,-0.385
4216665486,0.13,-0.395
4219443263,-0.215,-0.345
4222221040,-0.425,-0.31
4224998817,-0.5,-0.29
4227776594,-0.49,-0.275
4230554371,-0.45,-0.265
4233332148,-0.4,-0.235
4236109925,-0.39,-0.25
4238887702,-0.395,-0.265
4241665479,-0.395,-0.255
4244443256,-0.4,-0.245
4247221033,-0.39,-0.24
4249998810,-0.38,-0.24
4252776587,-0.385,-0.25
4255554364,-0.385,-0.26
4258332141,-0.4,-0.265
4261109918,-0.41,-0.275
4263887695,-0.41,-0.255
4266665472,-0.39,-0.24
4269443249,-0.39,-0.245
4272221026,-0.405,-0.26
4274998803,-0.405,-0.26
4277776580,-0.415,-0.265
4280554357,-0.41,-0.25
4283332134,-0.395,-0.25
4286109911,-0.395,-0.245
4288887688,-0.4,-0.25
4291665465,-0.415,-0.265
4294443242,-0.415,-0.255
4297221019,-0.415,-0.25
4299998796,-0.4,-0.245
4302776573,-0.39,-0.245
4305554350,-0.39,-0.255
4308332127,-0.41,-0.26
4311109904,-0.415,-0.25
4313887681,-0.405,-0.24
4316665458,-0.395,-0.215
4319443235,-0.395,-0.23
4322221012,-0.395,-0.25
4324998789,-0.405,-0.25
4327776566,-0.41,-0.255
4330554343,-0.41,-0.24
4333332120,-0.4,-0.22
4336109897,-0.39,-0.235
4338887674,-0.395,-0.235
4341665451,-0.41,-0.24
4344443228,-0.425,-0.255
4347221005,-0.415,-0.245
4349998782,-0.405,-0.225
4352776559,-0.41,-0.23
4355554336,-0.405,-0.235
4358332113,-0.415,-0.24
4361109890,-0.425,-0.24
4363887667,-0.425,-0.24
4366665444,-0.41,-0.23
4369443221,-0.395,-0.245
4372220998,-0.39,-0.255
4374998775,-0.4,-0.25
4377776552,-0.41,-0.25
4380554329,-0.41,-0.235
4383332106,-0.4,-0.24
4386109883,-0.39,-0.235
4388887660,-0.41,-0.255
4391665437,-0.42,-0.255
4394443214,-0.42,-0.255
4397220991,-0.415,-0.25
4399998768,-0.415,-0.235
4402776545,-0.405,-0.26
4405554322,-0.42,-0.255
4408332099,-0.415,-0.27
4411109876,-0.425,-0.285
4413887653,-0.41,-0.285
4416665430,-0.4,-0.28
4419443207,-0.405,-0.285
4422220984,-0.4,-0.285
4424998761,-0.4,-0.305
4427776538,-0.41,-0.295
4430554315,-0.4,-0.285
4433332092,-0.395,-0.29
4436109869,-0.395,-0.305
4438887646,-0.405,-0.32
4441665423,-0.41,-0.335
4444443200,-0.425,-0.34
4447220977,-0.425,-0.315
4449998754,-0.41,-0.315
4452776531,-0.41,-0.33
4455554308,-0.42,-0.345
4458332085,-0.43,-0.35
4461109862,-0.445,-0.355
4463887639,-0.44,-0.365
4466665416,-0.435,-0.355
4469443193,-0.43,-0.365
4472220970,-0.43,-0.37
4474998747,-0.45,-0.375
4477776524,-0.445,-0.375
4480554301,-0.445,-0.37
4483332078,-0.435,-0.355
4486109855,-0.435,-0.36
4488887632,-0.445,-0.34
4491665409,-0.44,-0.34
4494443186,-0.45,-0.33
4497220963,-0.43,-0.315
4499998740,-0.43,-0.29
4502776517,-0.415,-0.275
4505554294,-0.4,-0.265
4508332071,-0.4,-0.26
4511109848,-0.385,-0.245
4513887625,-0.365,-0.225
4516665402,-0.335,-0.205
4519443179,-0.33,-0.2
4522220956,-0.325,-0.19
4524998733,-0.33,-0.2
4527776510,-0.33,-0.185
4530554287,-0.31,-0.175
4533332064,-0.295,-0.16
4536109841,-0.285,-0.155
4538887618,-0.29,-0.165
4541665395,-0.29,-0.16
4544443172,-0.31,-0.17
4547220949,-0.295,-0.15
4549998726,-0.285,-0.145
4552776503,-0.28,-0.15
4555554280,-0.3,-0.145
4558332057,-0.29,-0.145
4561109834,-0.295,-0.155
4563887611,-0.29,-0.15
4566665388,-0.28,-0.135
4569443165,-0.275,-0.145
4572220942,-0.275,-0.145
4574998719,-0.29,-0.15
4577776496,-0.29,-0.145
4580554273,-0.285,-0.14
4583332050,-0.27,-0.13
4586109827,-0.27,-0.135
4588887604,-0.27,-0.14
4591665381,-0.275,-0.145
4594443158,-0.29,-0.165
4597220935,-0.285,-0.155
4599998712,-0.275,-0.145
4602776489,-0.275,-0.15
4605554266,-0.29,-0.16
4608332043,-0.295,-0.16
4611109820,-0.305,-0.16
4613887597,-0.295,-0.145
4616665374,-0.295,-0.14
4619443151,-0.285,-0.15
4622220928,-0.29,-0.165
4624998705,-0.3,-0.17
4627776482,-0.305,-0.165
4630554259,-0.31,-0.165
4633332036,-0.295,-0.15
4636109813,-0.3,-0.15
4638887590,-0.305,-0.165
4641665367,-0.31,-0.17
4644443144,-0.325,-0.18
4647220921,-0.325,-0.165
4649998698,-0.315,-0.155
4652776475,-0.31,-0.16
4655554252,-0.315,-0.165
4658332029,-0.315,-0.175
4661109806,-0.325,-0.18
4663887583,-0.32,-0.165
4666665360,-0.31,-0.15
4669443137,-0.32,-0.17
4672220914,-0.315,-0.17
4674998691,-0.33,-0.185
4677776468,-0.33,-0.175
4680554245,-0.32,-0.175
4683332022,-0.31,-0.16
4686109799,-0.31,-0.165
4688887576,-0.31,-0.17
4691665353,-0.33,-0.18
4694443130,-0.335,-0.175
4697220907,-0.33,-0.17
4699998684,-0.32,-0.16
4702776461,-0.325,-0.16
4705554238,-0.325,-0.17
4708332015,-0.33,-0.19
4711109792,-0.335,-0.165
4713887569,-0.33,-0.16
4716665346,-0.325,-0.155
4719443123,-0.325,-0.16
4722220900,-0.32,-0.155
4724998677,-0.325,-0.165
4727776454,-0.33,-0.185
4730554231,-0.325,-0.175
4733332008,-0.315,-0.15
4736109785,-0.305,-0.155
4738887562,-0.325,-0.165
4741665339,-0.315,-0.17
4744443116,-0.335,-0.17
4747220893,-0.33,-0.165
4749998670,-0.31,-0.15
4752776447,-0.32,-0.16
4755554224,-0.33,-0.17
4758332001,-0.33,-0.175
4761109778,-0.335,-0.18
4763887555,-0.33,-0.155
4766665332,-0.33,-0.15
4769443109,-0.32,-0.145
4772220886,-0.32,-0.16
4774998663,-0.33,-0.165
4777776440,-0.33,-0.16
4780554217,-0.325,-0.16
4783331994,-0.315,-0.145
4786109771,-0.315,-0.15
4788887548,-0.315,-0.15
4791665325,-0.33,-0.16
4794443102,-0.33,-0.16
4797220879,-0.32,-0.15
4799998656,-0.315,-0.15
4802776433,-0.305,-0.15
4805554210,-0.305,-0.155
4808331987,-0.295,-0.16
4811109764,-0.315,-0.16
4813887541,-0.3,-0.15
4816665318,-0.275,-0.13
4819443095,-0.255,-0.15
4822220872,-0.255,-0.155
4824998649,-0.26,-0.16
4827776426,-0.265,-0.15
4830554203,-0.255,-0.125
4833331980,-0.235,-0.12
4836109757,-0.23,-0.115
4838887534,-0.225,-0.125
4841665311,-0.22,-0.135
4844443088,-0.22,-0.14
4847220865,-0.215,-0.13
4849998642,-0.2,-0.105
4852776419,-0.205,-0.105
4855554196,-0.205,-0.1
4858331973,-0.225,-0.105
4861109750,-0.235,-0.09
4863887527,-0.24,-0.08
4866665304,-0.23,-0.075
4869443081,-0.215,-0.09
4872220858,-0.24,-0.09
4874998635,-0.24,-0.1
4877776412,-0.25,-0.1
4880554189,-0.235,-0.095
4883331966,-0.21,-0.09
4886109743,-0.2,-0.11
4888887520,-0.22,-0.125
4891665297,-0.255,-0.13
4894443074,-0.275,-0.12
4897220851,-0.285,-0.12
4899998628,-0.3,-0.11
4902776405,-0.305,-0.11
4905554182,-0.32,-0.12
4908331959,-0.33,-0.13
4911109736,-0.325,-0.14
4913887513,-0.32,-0.145
4916665290,-0.33,-0.125
4919443067,-0.33,-0.13
4922220844,-0.335,-0.15
4924998621,-0.34,-0.145
4927776398,-0.345,-0.14
4930554175,-0.34,-0.14
4933331952,-0.335,-0.12
4936109729,-0.32,-0.135
4938887506,-0.325,-0.145
4941665283,-0.335,-0.16
4944443060,-0.345,-0.15
4947220837,-0.345,-0.135
4949998614,-0.345,-0.125
4952776391,-0.335,-0.135
4955554168,-0.34,-0.145
4958331945,-0.345,-0.15
4961109722,-0.355,-0.16
4963887499,-0.34,-0.145
4966665276,-0.34,-0.135
4969443053,-0.34,-0.135
4972220830,-0.34,-0.125
4974998607,-0.345,-0.16
4977776384,-0.355,-0.175
4980554161,-0.365,-0.195
4983331938,-0.37,-0.21
4986109715,-0.405,-0.23
4988887492,-0.445,-0.27
4991665269,-0.48,-0.29
4994443046,-0.495,-0.28
4997220823,-0.52,-0.195
4999998600,-0.535,-0.05
5002776377,-0.505,0.085
5005554154,-0.415,0.195
5008331931,-0.28,0.305
5011109708,-0.135,0.42
5013887485,0.065,0.565
5016665262,0.3,0.705
5019443039,0.58,0.8
5022220816,0.81,0.795
5024998593,0.945,0.595
5027776370,0.92,0.235
5030554147,0.775,-0.075
5033331924,0.445,-0.19
5036109701,0.02,-0.185
5038887478,-0.295,-0.155
5041665255,-0.445,-0.17
5044443032,-0.47,-0.165
5047220809,-0.425,-0.155
5049998586,-0.38,-0.145
5052776363,-0.36,-0.155
5055554140,-0.36,-0.19
5058331917,-0.37,-0.2
5061109694,-0.38,-0.195
5063887471,-0.38,-0.175
5066665248,-0.375,-0.175
5069443025,-0.37,-0.18
5072220802,-0.365,-0.185
5074998579,-0.37,-0.2
5077776356,-0.385,-0.195
5080554133,-0.385,-0.2
5083331910,-0.375,-0.195
5086109687,-0.37,-0.19
5088887464,-0.37,-0.195
5091665241,-0.385,-0.2
5094443018,-0.395,-0.2
5097220795,-0.385,-0.19
5099998572,-0.385,-0.18
5102776349,-0.39,-0.185
5105554126,-0.385,-0.195
5108331903,-0.395,-0.21
5111109680,-0.41,-0.21
5113887457,-0.4,-0.175
5116665234,-0.395,-0.19
5119443011,-0.38,-0.185
5122220788,-0.395,-0.185
5124998565,-0.395,-0.195
5127776342,-0.4,-0.2
5130554119,-0.4,-0.195
5133331896,-0.395,-0.18
5136109673,-0.39,-0.19
5138887450,-0.39,-0.195
5141665227,-0.395,-0.19
5144443004,-0.405,-0.195
5147220781,-0.39,-0.175
5149998558,-0.385,-0.175
5152776335,-0.375,-0.185
5155554112,-0.375,-0.19
5158331889,-0.38,-0.195
5161109666,-0.39,-0.19
5163887443,-0.385,-0.185
5166665220,-0.37,-0.17
5169442997,-0.37,-0.17
5172220774,-0.37,-0.19
5174998551,-0.375,-0.2
5177776328,-0.385,-0.2
5180554105,-0.37,-0.18
5183331882,-0.39,-0.175
5186109659,-0.375,-0.195
5188887436,-0.37,-0.175
5191665213,-0.38,-0.19
5194442990,-0.39,-0.19
5197220767,-0.39,-0.19
5199998544,-0.385,-0.18
5202776321,-0.375,-0.19
5205554098,-0.375,-0.21
5208331875,-0.385,-0.205
5211109652,-0.395,-0.2
5213887429,-0.39,-0.21
5216665206,-0.385,-0.195
5219442983,-0.375,-0.205
5222220760,-0.38,-0.215
5224998537,-0.385,-0.23
5227776314,-0.39,-0.215
5230554091,-0.38,-0.225
5233331868,-0.38,-0.205
5236109645,-0.37,-0.215
5238887422,-0.37,-0.235
5241665199,-0.365,-0.245
5244442976,-0.39,-0.245
5247220753,-0.365,-0.24
5249998530,-0.365,-0.245
5252776307,-0.36,-0.235
5255554084,-0.375,-0.26
5258331861,-0.38,-0.265
5261109638,-0.4,-0.27
5263887415,-0.39,-0.265
5266665192,-0.375,-0.265
5269442969,-0.375,-0.27
5272220746,-0.37,-0.285
5274998523,-0.385,-0.3
5277776300,-0.39,-0.295
5280554077,-0.39,-0.295
5283331854,-0.39,-0.295
5286109631,-0.39,-0.305
5288887408,-0.375,-0.31
5291665185,-0.385,-0.32
5294442962,-0.395,-0.325
5297220739,-0.38,-0.32
5299998516,-0.37,-0.31
5302776293,-0.375,-0.32
5305554070,-0.375,-0.32
5308331847,-0.39,-0.325
5311109624,-0.405,-0.31
5313887401,-0.375,-0.28
5316665178,-0.37,-0.28
5319442955,-0.36,-0.28
5322220732,-0.375,-0.265
5324998509,-0.385,-0.265
5327776286,-0.38,-0.25
5330554063,-0.37,-0.225
5333331840,-0.36,-0.2
5336109617,-0.345,-0.195
5338887394,-0.345,-0.19
5341665171,-0.33,-0.18
5344442948,-0.33,-0.17
5347220725,-0.315,-0.15
5349998502,-0.31,-0.135
5352776279,-0.295,-0.115
5355554056,-0.285,-0.125
5358331833,-0.285,-0.13
5361109610,-0.295,-0.12
5363887387,-0.28,-0.105
5366665164,-0.27,-0.1
5369442941,-0.28,-0.1
5372220718,-0.28,-0.1
5374998495,-0.28,-0.115
5377776272,-0.29,-0.12
5380554049,-0.29,-0.105
5383331826,-0.28,-0.1
5386109603,-0.275,-0.105
5388887380,-0.28,-0.115
5391665157,-0.285,-0.12
5394442934,-0.29,-0.11
5397220711,-0.29,-0.105
5399998488,-0.28,-0.095
5402776265,-0.28,-0.1
5405554042,-0.285,-0.11
5408331819,-0.29,-0.12
5411109596,-0.3,-0.12
5413887373,-0.295,-0.115
5416665150,-0.285,-0.105
5419442927,-0.28,-0.105
5422220704,-0.285,-0.095
5424998481,-0.285,-0.105
5427776258,-0.295,-0.12
5430554035,-0.285,-0.115
5433331812,-0.28,-0.105
5436109589,-0.275,-0.11
5438887366,-0.28,-0.125
5441665143,-0.29,-0.115
5444442920,-0.31,-0.13
5447220697,-0.305,-0.115
5449998474,-0.285,-0.095
5452776251,-0.27,-0.1
5455554028,-0.27,-0.11
5458331805,-0.275,-0.115
5461109582,-0.285,-0.115
5463887359,-0.285,-0.105
5466665136,-0.27,-0.1
5469442913,-0.265,-0.11
5472220690,-0.265,-0.1
5474998467,-0.265,-0.1
5477776244,-0.28,-0.105
5480554021,-0.265,-0.095
5483331798,-0.245,-0.095
5486109575,-0.235,-0.095
5488887352,-0.235,-0.11
5491665129,-0.25,-0.115
5494442906,-0.25,-0.11
5497220683,-0.245,-0.105
5499998460,-0.215,-0.105
5502776237,-0.22,-0.115
5505554014,-0.245,-0.115
5508331791,-0.255,-0.135
5511109568,-0.23,-0.125
5513887345,-0.205,-0.135
5516665122,-0.21,-0.125
5519442899,-0.22,-0.13
5522220676,-0.23,-0.15
5524998453,-0.24,-0.155
5527776230,-0.24,-0.165
5530554007,-0.245,-0.165
5533331784,-0.25,-0.17
5536109561,-0.27,-0.175
5538887338,-0.285,-0.17
5541665115,-0.315,-0.175
5544442892,-0.32,-0.17
5547220669,-0.32,-0.165
5549998446,-0.31,-0.16
5552776223,-0.33,-0.16
5555554000,-0.34,-0.17
5558331777,-0.345,-0.18
5561109554,-0.36,-0.17
5563887331,-0.365,-0.155
5566665108,-0.36,-0.155
5569442885,-0.35,-0.16
5572220662,-0.355,-0.16
5574998439,-0.375,-0.175
5577776216,-0.385,-0.17
5580553993,-0.375,-0.155
5583331770,-0.37,-0.15
5586109547,-0.365,-0.16
5588887324,-0.365,-0.155
5591665101,-0.37,-0.165
5594442878,-0.38,-0.16
5597220655,-0.36,-0.15
5599998432,-0.35,-0.15
5602776209,-0.355,-0.145
5605553986,-0.355,-0.155
5608331763,-0.35,-0.165
5611109540,-0.365,-0.155
5613887317,-0.35,-0.135
5616665094,-0.35,-0.13
5619442871,-0.34,-0.145
5622220648,-0.355,-0.155
5624998425,-0.35,-0.16
5627776202,-0.375,-0.16
5630553979,-0.365,-0.175
5633331756,-0.375,-0.19
5636109533,-0.4,-0.235
5638887310,-0.43,-0.25
5641665087,-0.475,-0.295
5644442864,-0.52,-0.315
5647220641,-0.52,-0.295
5649998418,-0.55,-0.19
5652776195,-0.57,-0.085
5655553972,-0.54,0.06
5658331749,-0.445,0.175
5661109526,-0.305,0.265
5663887303,-0.14,0.38
5666665080,0.025,0.485
5669442857,0.26,0.59
5672220634,0.51,0.665
5674998411,0.735,0.665
5677776188,0.845,0.5
5680553965,0.875,0.205
5683331742,0.735,-0.075
5686109519,0.4,-0.215
5688887296,-0.025,-0.205
5691665073,-0.335,-0.18
5694442850,-0.48,-0.175
5697220627,-0.47,-0.165
5699998404,-0.415,-0.145
5702776181,-0.375,-0.145
5705553958,-0.365,-0.16
5708331735,-0.385,-0.165
5711109512,-0.4,-0.17
5713887289,-0.38,-0.155
5716665066,-0.39,-0.155
5719442843,-0.375,-0.155
5722220620,-0.385,-0.17
5724998397,-0.395,-0.175
5727776174,-0.405,-0.17
5730553951,-0.39,-0.155
5733331728,-0.38,-0.155
5736109505,-0.385,-0.16
5738887282,-0.385,-0.165
5741665059,-0.395,-0.18
5744442836,-0.4,-0.175
5747220613,-0.405,-0.17
5749998390,-0.4,-0.16
5752776167,-0.39,-0.16
5755553944,-0.39,-0.17
5758331721,-0.395,-0.18
5761109498,-0.4,-0.18
5763887275,-0.39,-0.17
5766665052,-0.385,-0.165
5769442829,-0.39,-0.165
5772220606,-0.385,-0.175
5774998383,-0.41,-0.18
5777776160,-0.42,-0.185
5780553937,-0.405,-0.17
5783331714,-0.41,-0.16
5786109491,-0.39,-0.165
5788887268,-0.39,-0.175
5791665045,-0.39,-0.175
5794442822,-0.4,-0.175
5797220599,-0.4,-0.18
5799998376,-0.39,-0.17
5802776153,-0.375,-0.16
5805553930,-0.38,-0.17
5808331707,-0.395,-0.18
5811109484,-0.4,-0.185
5813887261,-0.39,-0.17
5816665038,-0.4,-0.16
5819442815,-0.39,-0.18
5822220592,-0.395,-0.18
5824998369,-0.41,-0.185
5827776146,-0.415,-0.185
5830553923,-0.405,-0.165
5833331700,-0.385,-0.155
5836109477,-0.385,-0.17
5838887254,-0.38,-0.175
5841665031,-0.4,-0.195
5844442808,-0.4,-0.195
5847220585,-0.395,-0.19
5849998362,-0.39,-0.175
5852776139,-0.38,-0.175
5855553916,-0.375,-0.19
5858331693,-0.395,-0.19
5861109470,-0.395,-0.19
5863887247,-0.385,-0.185
5866665024,-0.38,-0.19
5869442801,-0.375,-0.215
5872220578,-0.385,-0.22
5874998355,-0.39,-0.215
5877776132,-0.4,-0.225
5880553909,-0.4,-0.215
5883331686,-0.385,-0.2
5886109463,-0.38,-0.23
5888887240,-0.395,-0.225
5891665017,-0.39,-0.245
5894442794,-0.4,-0.24
5897220571,-0.395,-0.245
5899998348,-0.385,-0.22
5902776125,-0.38,-0.245
5905553902,-0.385,-0.26
5908331679,-0.395,-0.28
5911109456,-0.405,-0.28
5913887233,-0.4,-0.285
5916665010,-0.39,-0.27
5919442787,-0.38,-0.285
5922220564,-0.38,-0.295
5924998341,-0.385,-0.305
5927776118,-0.405,-0.305
5930553895,-0.395,-0.315
5933331672,-0.4,-0.305
5936109449,-0.39,-0.31
5938887226,-0.4,-0.33
5941665003,-0.405,-0.325
5944442780,-0.425,-0.33
5947220557,-0.42,-0.315
5949998334,-0.405,-0.31
5952776111,-0.4,-0.315
5955553888,-0.405,-0.31
5958331665,-0.405,-0.32
5961109442,-0.415,-0.305
5963887219,-0.4,-0.29
5966664996,-0.39,-0.275
5969442773,-0.38,-0.27
5972220550,-0.385,-0.265
5974998327,-0.395,-0.265
5977776104,-0.405,-0.255
5980553881,-0.39,-0.245
5983331658,-0.37,-0.225
5986109435,-0.37,-0.215
5988887212,-0.37,-0.215
5991664989,-0.385,-0.215
5994442766,-0.37,-0.21
5997220543,-0.355,-0.205
5999998320,-0.345,-0.185
6002776097,-0.34,-0.18
6005553874,-0.335,-0.19
6008331651,-0.34,-0.19
6011109428,-0.355,-0.17
6013887205,-0.335,-0.155
6016664982,-0.325,-0.14
6019442759,-0.31,-0.145
6022220536,-0.305,-0.165
6024998313,-0.305,-0.16
6027776090,-0.32,-0.16
6030553867,-0.315,-0.15
6033331644,-0.31,-0.145
6036109421,-0.305,-0.14
6038887198,-0.305,-0.15
6041664975,-0.33,-0.15
6044442752,-0.325,-0.17
6047220529,-0.345,-0.155
6049998306,-0.325,-0.145
6052776083,-0.315,-0.13
6055553860,-0.315,-0.14
6058331637,-0.305,-0.15
6061109414,-0.31,-0.145
6063887191,-0.31,-0.15
6066664968,-0.3,-0.135
6069442745,-0.305,-0.14
6072220522,-0.305,-0.155
6074998299,-0.315,-0.15
6077776076,-0.32,-0.165
6080553853,-0.325,-0.145
6083331630,-0.315,-0.145
6086109407,-0.305,-0.155
6088887184,-0.315,-0.16
6091664961,-0.325,-0.16
6094442738,-0.325,-0.175
6097220515,-0.33,-0.155
6099998292,-0.315,-0.155
6102776069,-0.315,-0.15
6105553846,-0.31,-0.16
6108331623,-0.33,-0.165
6111109400,-0.34,-0.165
6113887177,-0.335,-0.175
6116664954,-0.33,-0.165
6119442731,-0.345,-0.165
6122220508,-0.355,-0.165
6124998285,-0.365,-0.17
6127776062,-0.37,-0.165
6130553839,-0.345,-0.16
6133331616,-0.34,-0.16
6136109393,-0.34,-0.165
6138887170,-0.345,-0.17
6141664947,-0.36,-0.195
6144442724,-0.365,-0.185
6147220501,-0.36,-0.18
6149998278,-0.36,-0.17
6152776055,-0.345,-0.165
6155553832,-0.355,-0.185
6158331609,-0.365,-0.18
6161109386,-0.35,-0.185
6163887163,-0.36,-0.17
6166664940,-0.35,-0.175
6169442717,-0.34,-0.175
6172220494,-0.345,-0.175
6174998271,-0.355,-0.18
6177776048,-0.37,-0.175
6180553825,-0.35,-0.155
6183331602,-0.35,-0.16
6186109379,-0.35,-0.17
6188887156,-0.345,-0.18
6191664933,-0.35,-0.2
6194442710,-0.355,-0.195
6197220487,-0.36,-0.165
6199998264,-0.345,-0.16
6202776041,-0.355,-0.16
6205553818,-0.35,-0.165
6208331595,-0.36,-0.185
6211109372,-0.37,-0.19
6213887149,-0.355,-0.18
6216664926,-0.355,-0.17
6219442703,-0.35,-0.17
6222220480,-0.355,-0.17
6224998257,-0.36,-0.18
6227776034,-0.39,-0.18
6230553811,-0.385,-0.17
6233331588,-0.36,-0.18
6236109365,-0.36,-0.18
6238887142,-0.37,-0.2
6241664919,-0.37,-0.195
6244442696,-0.39,-0.195
6247220473,-0.375,-0.155
6249998250,-0.37,-0.145
6252776027,-0.35,-0.165
6255553804,-0.34,-0.18
6258331581,-0.345,-0.185
6261109358,-0.36,-0.18
6263887135,-0.36,-0.17
6266664912,-0.35,-0.16
6269442689,-0.35,-0.16
6272220466,-0.335,-0.17
6274998243,-0.36,-0.18
6277776020,-0.365,-0.19
6280553797,-0.365,-0.18
6283331574,-0.36,-0.165
6286109351,-0.36,-0.17
6288887128,-0.365,-0.185
6291664905,-0.375,-0.195
6294442682,-0.385,-0.185
6297220459,-0.385,-0.185
6299998236,-0.365,-0.185
6302776013,-0.37,-0.185
6305553790,-0.375,-0.19
6308331567,-0.37,-0.18
6311109344,-0.375,-0.19
6313887121,-0.365,-0.19
6316664898,-0.355,-0.18
6319442675,-0.355,-0.19
6322220452,-0.36,-0.19
6324998229,-0.365,-0.195
6327776006,-0.37,-0.195
6330553783,-0.36,-0.185
6333331560,-0.35,-0.175
6336109337,-0.34,-0.195
6338887114,-0.345,-0.18
6341664891,-0.34,-0.18
6344442668,-0.35,-0.185
6347220445,-0.345,-0.19
6349998222,-0.35,-0.175
6352775999,-0.36,-0.19
6355553776,-0.35,-0.19
6358331553,-0.36,-0.21
6361109330,-0.37,-0.205
6363887107,-0.36,-0.185
6366664884,-0.36,-0.18
6369442661,-0.355,-0.18
6372220438,-0.36,-0.19
6374998215,-0.375,-0.215
6377775992,-0.375,-0.22
6380553769,-0.37,-0.205
6383331546,-0.35,-0.195
6386109323,-0.355,-0.19
6388887100,-0.36,-0.195
6391664877,-0.365,-0.215
6394442654,-0.375,-0.235
6397220431,-0.37,-0.21
6399998208,-0.365,-0.2
6402775985,-0.36,-0.21
6405553762,-0.355,-0.205
6408331539,-0.36,-0.215
6411109316,-0.36,-0.215
6413887093,-0.35,-0.205
6416664870,-0.34,-0.2
6419442647,-0.345,-0.19
6422220424,-0.345,-0.22
6424998201,-0.355,-0.225
6427775978,-0.36,-0.225
6430553755,-0.36,-0.205
6433331532,-0.365,-0.2
6436109309,-0.345,-0.205
6438887086,-0.355,-0.205
6441664863,-0.35,-0.21
6444442640,-0.36,-0.21
6447220417,-0.355,-0.195
6449998194,-0.36,-0.195
6452775971,-0.345,-0.195
6455553748,-0.335,-0.2
6458331525,-0.33,-0.225
6461109302,-0.33,-0.225
6463887079,-0.31,-0.205
6466664856,-0.305,-0.19
6469442633,-0.3,-0.195
6472220410,-0.305,-0.19
6474998187,-0.295,-0.2
6477775964,-0.305,-0.185
6480553741,-0.285,-0.18
6483331518,-0.275,-0.165
6486109295,-0.265,-0.17
6488887072,-0.255,-0.18
6491664849,-0.255,-0.175
6494442626,-0.26,-0.17
6497220403,-0.265,-0.165
6499998180,-0.255,-0.15
6502775957,-0.255,-0.155
6505553734,-0.26,-0.165
6508331511,-0.28,-0.17
6511109288,-0.29,-0.165
6513887065,-0.28,-0.165
6516664842,-0.27,-0.155
6519442619,-0.255,-0.17
6522220396,-0.275,-0.18
6524998173,-0.29,-0.17
6527775950,-0.32,-0.165
6530553727,-0.3,-0.16
6533331504,-0.295,-0.16
6536109281,-0.27,-0.18
6538887058,-0.265,-0.19
6541664835,-0.27,-0.205
6544442612,-0.285,-0.19
6547220389,-0.3,-0.19
6549998166,-0.31,-0.17
6552775943,-0.315,-0.185
6555553720,-0.32,-0.19
6558331497,-0.35,-0.195
6561109274,-0.37,-0.225
6563887051,-0.365,-0.215
6566664828,-0.365,-0.2
6569442605,-0.365,-0.205
6572220382,-0.37,-0.205
6574998159,-0.37,-0.205
6577775936,-0.37,-0.22
6580553713,-0.38,-0.21
6583331490,-0.36,-0.21
6586109267,-0.375,-0.21
6588887044,-0.375,-0.215
6591664821,-0.4,-0.225
6594442598,-0.42,-0.235
6597220375,-0.405,-0.23
6599998152,-0.4,-0.205
6602775929,-0.385,-0.215
6605553706,-0.38,-0.225
6608331483,-0.4,-0.225
6611109260,-0.415,-0.22
6613887037,-0.405,-0.22
6616664814,-0.395,-0.215
6619442591,-0.395,-0.225
6622220368,-0.395,-0.225
6624998145,-0.41,-0.255
6627775922,-0.43,-0.275
6630553699,-0.44,-0.29
6633331476,-0.455,-0.29
6636109253,-0.49,-0.315
6638887030,-0.485,-0.33
6641664807,-0.52,-0.305
6644442584,-0.57,-0.245
6647220361,-0.575,-0.115
6649998138,-0.525,-0.025
6652775915,-0.42,0.03
6655553692,-0.305,0.08
6658331469,-0.19,0.155
6661109246,-0.02,0.265
6663887023,0.22,0.385
6666664800,0.485,0.5
6669442577,0.715,0.545
6672220354,0.845,0.45
6674998131,0.885,0.215
6677775908,0.79,-0.09
6680553685,0.56,-0.325
6683331462,0.225,-0.39
6686109239,-0.07,-0.385
6688887016,-0.285,-0.365
6691664793,-0.425,-0.335
6694442570,-0.5,-0.295
6697220347,-0.55,-0.285
6699998124,-0.535,-0.27
6702775901,-0.5,-0.265
6705553678,-0.465,-0.27
6708331455,-0.45,-0.275
6711109232,-0.45,-0.285
6713887009,-0.435,-0.265
6716664786,-0.42,-0.25
6719442563,-0.41,-0.26
6722220340,-0.41,-0.26
6724998117,-0.415,-0.265
6727775894,-0.42,-0.27
6730553671,-0.425,-0.265
6733331448,-0.42,-0.245
6736109225,-0.43,-0.26
6738887002,-0.43,-0.255
6741664779,-0.44,-0.28
6744442556,-0.45,-0.26
6747220333,-0.45,-0.25
6749998110,-0.43,-0.25
6752775887,-0.43,-0.255
6755553664,-0.43,-0.255
6758331441,-0.445,-0.26
6761109218,-0.445,-0.26
6763886995,-0.44,-0.255
6766664772,-0.425,-0.225
6769442549,-0.43,-0.24
6772220326,-0.43,-0.245
6774998103,-0.425,-0.265
6777775880,-0.445,-0.275
6780553657,-0.445,-0.25
6783331434,-0.43,-0.245
6786109211,-0.435,-0.23
6788886988,-0.435,-0.24
6791664765,-0.445,-0.255
6794442542,-0.445,-0.25
6797220319,-0.435,-0.25
6799998096,-0.43,-0.245
6802775873,-0.425,-0.235
6805553650,-0.43,-0.24
6808331427,-0.43,-0.25
6811109204,-0.44,-0.25
6813886981,-0.42,-0.245
6816664758,-0.43,-0.22
6819442535,-0.425,-0.245
6822220312,-0.43,-0.245
6824998089,-0.44,-0.24
6827775866,-0.44,-0.255
6830553643,-0.43,-0.245
6833331420,-0.43,-0.225
6836109197,-0.415,-0.24
6838886974,-0.425,-0.25
6841664751,-0.43,-0.26
6844442528,-0.455,-0.265
6847220305,-0.445,-0.255
6849998082,-0.445,-0.24
6852775859,-0.43,-0.25
6855553636,-0.43,-0.25
6858331413,-0.44,-0.265
6861109190,-0.44,-0.26
6863886967,-0.435,-0.26
6866664744,-0.43,-0.265
6869442521,-0.415,-0.275
6872220298,-0.415,-0.27
6874998075,-0.425,-0.27
6877775852,-0.425,-0.27
6880553629,-0.42,-0.27
6883331406,-0.405,-0.245
6886109183,-0.405,-0.265
6888886960,-0.415,-0.265
6891664737,-0.415,-0.27
6894442514,-0.425,-0.285
6897220291,-0.43,-0.26
6899998068,-0.405,-0.245
6902775845,-0.405,-0.255
6905553622,-0.405,-0.265
6908331399,-0.405,-0.285
6911109176,-0.43,-0.295
6913886953,-0.415,-0.3
6916664730,-0.41,-0.295
6919442507,-0.415,-0.285
6922220284,-0.43,-0.32
6924998061,-0.445,-0.325
6927775838,-0.465,-0.335
6930553615,-0.46,-0.335
6933331392,-0.45,-0.33
6936109169,-0.455,-0.35
6938886946,-0.46,-0.345
6941664723,-0.465,-0.365
6944442500,-0.485,-0.38
6947220277,-0.495,-0.375
6949998054,-0.475,-0.375
6952775831,-0.49,-0.385
6955553608,-0.5,-0.385
6958331385,-0.495,-0.4
6961109162,-0.515,-0.4
6963886939,-0.5,-0.395
6966664716,-0.485,-0.39
6969442493,-0.49,-0.39
6972220270,-0.485,-0.4
6974998047,-0.5,-0.405
6977775824,-0.5,-0.41
6980553601,-0.49,-0.38
6983331378,-0.48,-0.355
6986109155,-0.46,-0.35
6988886932,-0.46,-0.34
6991664709,-0.47,-0.345
6994442486,-0.465,-0.335
6997220263,-0.44,-0.31
6999998040,-0.43,-0.285
7002775817,-0.425,-0.28
7005553594,-0.41,-0.27
7008331371,-0.41,-0.255
7011109148,-0.4,-0.245
7013886925,-0.39,-0.235
7016664702,-0.38,-0.21
7019442479,-0.355,-0.215
7022220256,-0.35,-0.22
7024998033,-0.355,-0.22
7027775810,-0.35,-0.215
7030553587,-0.34,-0.19
7033331364,-0.33,-0.18
7036109141,-0.325,-0.18
7038886918,-0.305,-0.185
7041664695,-0.32,-0.195
7044442472,-0.315,-0.195
7047220249,-0.305,-0.19
7049998026,-0.3,-0.17
7052775803,-0.305,-0.17
7055553580,-0.305,-0.185
7058331357,-0.31,-0.185
7061109134,-0.33,-0.185
7063886911,-0.31,-0.18
7066664688,-0.315,-0.17
7069442465,-0.315,-0.19
7072220242,-0.32,-0.18
7074998019,-0.325,-0.195
7077775796,-0.325,-0.19
7080553573,-0.325,-0.17
7083331350,-0.31,-0.17
7086109127,-0.31,-0.175
7088886904,-0.315,-0.19
7091664681,-0.325,-0.195
7094442458,-0.33,-0.19
7097220235,-0.325,-0.185
7099998012,-0.325,-0.185
7102775789,-0.315,-0.18
7105553566,-0.32,-0.185
7108331343,-0.33,-0.19
7111109120,-0.335,-0.205
7113886897,-0.33,-0.195
7116664674,-0.315,-0.185
7119442451,-0.32,-0.185
7122220228,-0.32,-0.185
7124998005,-0.335,-0.205
7127775782,-0.335,-0.205
7130553559,-0.325,-0.18
7133331336,-0.325,-0.195
7136109113,-0.32,-0.195
7138886890,-0.32,-0.205
7141664667,-0.325,-0.21
7144442444,-0.35,-0.225
7147220221,-0.345,-0.21
7149997998,-0.345,-0.2
7152775775,-0.335,-0.2
7155553552,-0.345,-0.205
7158331329,-0.355,-0.21
7161109106,-0.355,-0.225
7163886883,-0.355,-0.21
7166664660,-0.345,-0.2
7169442437,-0.335,-0.2
7172220214,-0.335,-0.205
7174997991,-0.345,-0.21
7177775768,-0.355,-0.2
7180553545,-0.34,-0.195
7183331322,-0.335,-0.185
7186109099,-0.33,-0.205
7188886876,-0.335,-0.21
7191664653,-0.345,-0.22
7194442430,-0.35,-0.215
7197220207,-0.35,-0.205
7199997984,-0.34,-0.2
7202775761,-0.335,-0.215
7205553538,-0.33,-0.21
7208331315,-0.36,-0.225
7211109092,-0.355,-0.22
7213886869,-0.345,-0.215
7216664646,-0.335,-0.2
7219442423,-0.345,-0.21
7222220200,-0.35,-0.205
7224997977,-0.36,-0.215
7227775754,-0.38,-0.215
7230553531,-0.37,-0.215
7233331308,-0.345,-0.2
7236109085,-0.345,-0.2
7238886862,-0.35,-0.21
7241664639,-0.355,-0.22
7244442416,-0.365,-0.21
7247220193,-0.36,-0.195
7249997970,-0.345,-0.2
7252775747,-0.345,-0.19
7255553524,-0.35,-0.21
7258331301,-0.36,-0.22
7261109078,-0.36,-0.215
7263886855,-0.35,-0.2
7266664632,-0.355,-0.185
7269442409,-0.34,-0.195
7272220186,-0.345,-0.2
7274997963,-0.355,-0.2
7277775740,-0.355,-0.205
7280553517,-0.355,-0.195
7283331294,-0.34,-0.185
7286109071,-0.34,-0.19
7288886848,-0.345,-0.195
7291664625,-0.365,-0.2
7294442402,-0.37,-0.2
7297220179,-0.35,-0.2
7299997956,-0.33,-0.19
7302775733,-0.32,-0.2
7305553510,-0.315,-0.19
7308331287,-0.295,-0.2
7311109064,-0.305,-0.195
7313886841,-0.295,-0.18
7316664618,-0.3,-0.16
7319442395,-0.285,-0.18
7322220172,-0.275,-0.18
7324997949,-0.26,-0.185
7327775726,-0.275,-0.18
7330553503,-0.265,-0.16
7333331280,-0.26,-0.145
7336109057,-0.25,-0.155
7338886834,-0.245,-0.17
7341664611,-0.255,-0.17
7344442388,-0.265,-0.155
7347220165,-0.26,-0.145
7349997942,-0.26,-0.13
7352775719,-0.25,-0.135
7355553496,-0.26,-0.14
7358331273,-0.28,-0.135
7361109050,-0.28,-0.14
7363886827,-0.275,-0.14
7366664604,-0.285,-0.125
7369442381,-0.28,-0.13
7372220158,-0.255,-0.15
7374997935,-0.245,-0.165
7377775712,-0.245,-0.165
7380553489,-0.26,-0.165
7383331266,-0.285,-0.155
7386109043,-0.29,-0.15
7388886820,-0.3,-0.165
7391664597,-0.32,-0.18
7394442374,-0.335,-0.195
7397220151,-0.355,-0.175
7399997928,-0.35,-0.17
7402775705,-0.355,-0.175
7405553482,-0.355,-0.185
7408331259,-0.375,-0.195
7411109036,-0.385,-0.19
7413886813,-0.38,-0.175
7416664590,-0.36,-0.185
7419442367,-0.35,-0.19
7422220144,-0.36,-0.205
7424997921,-0.365,-0.215
7427775698,-0.37,-0.215
7430553475,-0.37,-0.195
7433331252,-0.365,-0.18
7436109029,-0.36,-0.19
7438886806,-0.365,-0.2
7441664583,-0.37,-0.2
7444442360,-0.385,-0.215
7447220137,-0.385,-0.2
7449997914,-0.365,-0.18
7452775691,-0.36,-0.195
7455553468,-0.38,-0.2
7458331245,-0.385,-0.205
7461109022,-0.395,-0.21
7463886799,-0.395,-0.2
7466664576,-0.385,-0.205
7469442353,-0.38,-0.235
7472220130,-0.395,-0.26
7474997907,-0.425,-0.285
7477775684,-0.465,-0.3
7480553461,-0.5,-0.325
7483331238,-0.515,-0.32
7486109015,-0.53,-0.29
7488886792,-0.56,-0.19
7491664569,-0.585,-0.055
7494442346,-0.53,0.05
7497220123,-0.41,0.15
7499997900,-0.255,0.245
7502775677,-0.105,0.345
7505553454,0.105,0.445
7508331231,0.355,0.53
7511109008,0.6,0.595
7513886785,0.81,0.52
7516664562,0.89,0.275
7519442339,0.83,-0.085
7522220116,0.58,-0.3
7524997893,0.185,-0.335
7527775670,-0.205,-0.285
7530553447,-0.45,-0.25
7533331224,-0.525,-0.245
7536109001,-0.495,-0.235
7538886778,-0.465,-0.215
7541664555,-0.435,-0.23
7544442332,-0.415,-0.23
7547220109,-0.415,-0.24
7549997886,-0.415,-0.235
7552775663,-0.4,-0.235
7555553440,-0.395,-0.245
7558331217,-0.405,-0.255
7561108994,-0.425,-0.25
7563886771,-0.435,-0.24
7566664548,-0.415,-0.225
7569442325,-0.415,-0.23
7572220102,-0.415,-0.25
7574997879,-0.415,-0.24
7577775656,-0.43,-0.255
7580553433,-0.42,-0.23
7583331210,-0.41,-0.225
7586108987,-0.405,-0.225
7588886764,-0.42,-0.225
7591664541,-0.41,-0.23
7594442318,-0.42,-0.24
7597220095,-0.4,-0.225
7599997872,-0.395,-0.215
7602775649,-0.385,-0.215
7605553426,-0.4,-0.225
7608331203,-0.4,-0.235
7611108980,-0.4,-0.24
7613886757,-0.4,-0.225
7616664534,-0.395,-0.205
7619442311,-0.4,-0.21
7622220088,-0.4,-0.225
7624997865,-0.4,-0.23
7627775642,-0.41,-0.235
7630553419,-0.395,-0.225
7633331196,-0.41,-0.215
7636108973,-0.4,-0.22
7638886750,-0.395,-0.23
7641664527,-0.405,-0.235
7644442304,-0.41,-0.23
7647220081,-0.415,-0.215
7649997858,-0.405,-0.215
7652775635,-0.4,-0.215
7655553412,-0.395,-0.225
7658331189,-0.405,-0.235
7661108966,-0.415,-0.235
7663886743,-0.405,-0.23
7666664520,-0.415,-0.215
7669442297,-0.41,-0.225
7672220074,-0.405,-0.225
7674997851,-0.405,-0.235
7677775628,-0.41,-0.245
7680553405,-0.405,-0.24
7683331182,-0.4,-0.225
7686108959,-0.395,-0.21
7688886736,-0.405,-0.23
7691664513,-0.405,-0.23
7694442290,-0.4,-0.245
7697220067,-0.395,-0.22
7699997844,-0.39,-0.225
7702775621,-0.395,-0.235
7705553398,-0.39,-0.245
7708331175,-0.395,-0.25
7711108952,-0.42,-0.25
7713886729,-0.415,-0.24
7716664506,-0.405,-0.24
7719442283,-0.4,-0.245
7722220060,-0.4,-0.25
7724997837,-0.415,-0.27
7727775614,-0.42,-0.27
7730553391,-0.41,-0.265
7733331168,-0.395,-0.26
7736108945,-0.4,-0.28
7738886722,-0.405,-0.295
7741664499,-0.415,-0.295
7744442276,-0.435,-0.315
7747220053,-0.415,-0.31
7749997830,-0.415,-0.305
7752775607,-0.4,-0.31
7755553384,-0.405,-0.325
7758331161,-0.42,-0.33
7761108938,-0.43,-0.35
7763886715,-0.425,-0.34
7766664492,-0.41,-0.335
7769442269,-0.41,-0.35
7772220046,-0.405,-0.35
7774997823,-0.415,-0.37
7777775600,-0.425,-0.365
7780553377,-0.425,-0.355
7783331154,-0.42,-0.335
7786108931,-0.41,-0.355
7788886708,-0.41,-0.365
7791664485,-0.42,-0.37
7794442262,-0.43,-0.36
7797220039,-0.425,-0.335
7799997816,-0.42,-0.315
7802775593,-0.405,-0.315
7805553370,-0.415,-0.305
7808331147,-0.41,-0.285
7811108924,-0.41,-0.285
7813886701,-0.385,-0.27
7816664478,-0.37,-0.24
7819442255,-0.36,-0.23
7822220032,-0.35,-0.22
7824997809,-0.35,-0.22
7827775586,-0.35,-0.2
7830553363,-0.335,-0.18
7833331140,-0.32,-0.175
7836108917,-0.305,-0.18
7838886694,-0.315,-0.185
7841664471,-0.315,-0.19
7844442248,-0.32,-0.185
7847220025,-0.305,-0.18
7849997802,-0.305,-0.175
7852775579,-0.295,-0.17
7855553356,-0.29,-0.165
7858331133,-0.295,-0.175
7861108910,-0.295,-0.17
7863886687,-0.285,-0.165
7866664464,-0.285,-0.155
7869442241,-0.27,-0.16
7872220018,-0.28,-0.16
7874997795,-0.28,-0.165
7877775572,-0.295,-0.165
7880553349,-0.28,-0.16
7883331126,-0.285,-0.145
7886108903,-0.275,-0.15
7888886680,-0.285,-0.16
7891664457,-0.295,-0.165
7894442234,-0.305,-0.175
7897220011,-0.295,-0.15
7899997788,-0.285,-0.14
7902775565,-0.285,-0.155
7905553342,-0.29,-0.16
7908331119,-0.3,-0.175
7911108896,-0.31,-0.175
7913886673,-0.295,-0.17
7916664450,-0.3,-0.16
7919442227,-0.29,-0.155
7922220004,-0.285,-0.165
7924997781,-0.305,-0.175
7927775558,-0.31,-0.18
7930553335,-0.3,-0.17
7933331112,-0.295,-0.165
7936108889,-0.305,-0.17
7938886666,-0.3,-0.185
7941664443,-0.305,-0.185
7944442220,-0.32,-0.18
7947219997,-0.32,-0.175
7949997774,-0.31,-0.17
7952775551,-0.3,-0.18
7955553328,-0.31,-0.185
7958331105,-0.32,-0.2
7961108882,-0.34,-0.195
7963886659,-0.33,-0.185
7966664436,-0.31,-0.175
7969442213,-0.315,-0.18
7972219990,-0.325,-0.185
7974997767,-0.325,-0.205
7977775544,-0.345,-0.21
7980553321,-0.33,-0.19
7983331098,-0.32,-0.185
7986108875,-0.32,-0.19
7988886652,-0.335,-0.2
7991664429,-0.335,-0.205
7994442206,-0.355,-0.215
7997219983,-0.34,-0.2
7999997760,-0.32,-0.18
8002775537,-0.315,-0.185
8005553314,-0.33,-0.2
8008331091,-0.34,-0.205
8011108868,-0.34,-0.2
8013886645,-0.35,-0.205
8016664422,-0.33,-0.19
8019442199,-0.33,-0.19
8022219976,-0.34,-0.18
8024997753,-0.35,-0.205
8027775530,-0.355,-0.2
8030553307,-0.345,-0.195
8033331084,-0.335,-0.18
8036108861,-0.335,-0.185
8038886638,-0.34,-0.185
8041664415,-0.34,-0.2
8044442192,-0.345,-0.2
8047219969,-0.335,-0.18
8049997746,-0.335,-0.18
8052775523,-0.325,-0.185
8055553300,-0.325,-0.185
8058331077,-0.335,-0.2
8061108854,-0.34,-0.195
8063886631,-0.34,-0.175
8066664408,-0.32,-0.175
8069442185,-0.315,-0.185
8072219962,-0.32,-0.19
8074997739,-0.335,-0.195
8077775516,-0.335,-0.205
8080553293,-0.32,-0.185
8083331070,-0.325,-0.16
8086108847,-0.315,-0.17
8088886624,-0.32,-0.19
8091664401,-0.32,-0.19
8094442178,-0.345,-0.19
8097219955,-0.335,-0.18
8099997732,-0.32,-0.17
8102775509,-0.31,-0.16
8105553286,-0.32,-0.17
8108331063,-0.32,-0.185
8111108840,-0.34,-0.195
8113886617,-0.33,-0.18
8116664394,-0.32,-0.175
8119442171,-0.31,-0.17
8122219948,-0.31,-0.17
8124997725,-0.31,-0.195
8127775502,-0.295,-0.2
8130553279,-0.28,-0.18
8133331056,-0.255,-0.17
8136108833,-0.25,-0.175
8138886610,-0.25,-0.18
8141664387,-0.255,-0.18
8144442164,-0.26,-0.17
8147219941,-0.24,-0.155
8149997718,-0.22,-0.135
8152775495,-0.23,-0.145
8155553272,-0.23,-0.16
8158331049,-0.215,-0.16
8161108826,-0.22,-0.16
8163886603,-0.225,-0.14
8166664380,-0.23,-0.12
8169442157,-0.23,-0.12
8172219934,-0.235,-0.13
8174997711,-0.245,-0.13
8177775488,-0.255,-0.125
8180553265,-0.24,-0.125
8183331042,-0.235,-0.115
8186108819,-0.245,-0.11
8188886596,-0.235,-0.13
8191664373,-0.23,-0.145
8194442150,-0.22,-0.155
8197219927,-0.195,-0.14
8199997704,-0.22,-0.14
8202775481,-0.245,-0.145
8205553258,-0.26,-0.15
8208331035,-0.27,-0.16
8211108812,-0.29,-0.165
8213886589,-0.3,-0.16
8216664366,-0.305,-0.15
8219442143,-0.305,-0.165
8222219920,-0.32,-0.185
8224997697,-0.33,-0.18
8227775474,-0.35,-0.185
8230553251,-0.35,-0.17
8233331028,-0.335,-0.155
8236108805,-0.335,-0.175
8238886582,-0.335,-0.19
8241664359,-0.34,-0.195
8244442136,-0.35,-0.195
8247219913,-0.35,-0.18
8249997690,-0.345,-0.175
8252775467,-0.335,-0.18
8255553244,-0.345,-0.18
8258331021,-0.355,-0.19
8261108798,-0.37,-0.17
8263886575,-0.35,-0.18
8266664352,-0.345,-0.175
8269442129,-0.335,-0.18
8272219906,-0.335,-0.185
8274997683,-0.335,-0.2
8277775460,-0.355,-0.195
8280553237,-0.355,-0.2
8283331014,-0.345,-0.225
8286108791,-0.355,-0.255
8288886568,-0.395,-0.295
8291664345,-0.45,-0.33
8294442122,-0.48,-0.34
8297219899,-0.505,-0.305
8299997676,-0.525,-0.195
8302775453,-0.545,-0.065
8305553230,-0.5,0.07
8308331007,-0.395,0.18
8311108784,-0.255,0.285
8313886561,-0.07,0.415
8316664338,0.145,0.555
8319442115,0.425,0.67
8322219892,0.685,0.7
8324997669,0.875,0.555
8327775446,0.925,0.21
8330553223,0.795,-0.125
8333331000,0.47,-0.265
8336108777,0.02,-0.24
8338886554,-0.325,-0.215
8341664331,-0.47,-0.215
8344442108,-0.485,-0.23
8347219885,-0.41,-0.22
8349997662,-0.365,-0.21
8352775439,-0.355,-0.235
8355553216,-0.365,-0.235
8358330993,-0.38,-0.235
8361108770,-0.385,-0.23
8363886547,-0.38,-0.225
8366664324,-0.37,-0.21
8369442101,-0.37,-0.215
8372219878,-0.375,-0.225
8374997655,-0.385,-0.24
8377775432,-0.395,-0.25
8380553209,-0.385,-0.23
8383330986,-0.38,-0.23
8386108763,-0.385,-0.225
8388886540,-0.375,-0.23
8391664317,-0.39,-0.24
8394442094,-0.405,-0.235
8397219871,-0.405,-0.23
8399997648,-0.39,-0.225
8402775425,-0.385,-0.23
8405553202,-0.385,-0.245
8408330979,-0.39,-0.235
8411108756,-0.41,-0.235
8413886533,-0.4,-0.22
8416664310,-0.39,-0.22
8419442087,-0.385,-0.225
8422219864,-0.385,-0.23
8424997641,-0.395,-0.245
8427775418,-0.39,-0.225
8430553195,-0.395,-0.22
8433330972,-0.38,-0.21
8436108749,-0.375,-0.21
8438886526,-0.38,-0.22
8441664303,-0.385,-0.24
8444442080,-0.4,-0.235
8447219857,-0.385,-0.225
8449997634,-0.38,-0.21
8452775411,-0.375,-0.2
8455553188,-0.38,-0.225
8458330965,-0.395,-0.225
8461108742,-0.395,-0.225
8463886519,-0.385,-0.225
8466664296,-0.375,-0.215
8469442073,-0.37,-0.215
8472219850,-0.365,-0.235
8474997627,-0.385,-0.24
8477775404,-0.395,-0.24
8480553181,-0.385,-0.235
8483330958,-0.385,-0.22
8486108735,-0.37,-0.225
8488886512,-0.375,-0.235
8491664289,-0.37,-0.245
8494442066,-0.375,-0.245
8497219843,-0.375,-0.23
8499997620,-0.37,-0.225
8502775397,-0.355,-0.22
8505553174,-0.365,-0.245
8508330951,-0.38,-0.25
8511108728,-0.375,-0.255
8513886505,-0.37,-0.255
8516664282,-0.38,-0.24
8519442059,-0.365,-0.25
8522219836,-0.37,-0.26
8524997613,-0.375,-0.275
8527775390,-0.39,-0.285
8530553167,-0.38,-0.275
8533330944,-0.375,-0.28
8536108721,-0.38,-0.29
8538886498,-0.37,-0.3
8541664275,-0.375,-0.305
8544442052,-0.38,-0.315
8547219829,-0.385,-0.31
8549997606,-0.385,-0.315
8552775383,-0.37,-0.325
8555553160,-0.375,-0.335
8558330937,-0.375,-0.35
8561108714,-0.38,-0.345
8563886491,-0.38,-0.34
8566664268,-0.38,-0.335
8569442045,-0.38,-0.35
8572219822,-0.375,-0.36
8574997599,-0.39,-0.37
8577775376,-0.395,-0.365
8580553153,-0.385,-0.36
8583330930,-0.385,-0.345
8586108707,-0.375,-0.34
8588886484,-0.375,-0.35
8591664261,-0.385,-0.355
8594442038,-0.385,-0.345
8597219815,-0.39,-0.325
8599997592,-0.37,-0.305
8602775369,-0.365,-0.3
8605553146,-0.365,-0.285
8608330923,-0.375,-0.285
8611108700,-0.385,-0.28
8613886477,-0.35,-0.265
8616664254,-0.345,-0.23
8619442031,-0.325,-0.235
8622219808,-0.325,-0.24
8624997585,-0.33,-0.245
8627775362,-0.325,-0.225
8630553139,-0.325,-0.215
8633330916,-0.315,-0.195
8636108693,-0.315,-0.18
8638886470,-0.315,-0.18
8641664247,-0.3,-0.19
8644442024,-0.3,-0.18
8647219801,-0.285,-0.165
8649997578,-0.27,-0.14
8652775355,-0.265,-0.155
8655553132,-0.26,-0.165
8658330909,-0.275,-0.16
8661108686,-0.285,-0.155
8663886463,-0.265,-0.145
8666664240,-0.255,-0.135
8669442017,-0.25,-0.15
8672219794,-0.27,-0.165
8674997571,-0.28,-0.17
8677775348,-0.285,-0.15
8680553125,-0.285,-0.145
8683330902,-0.28,-0.145
8686108679,-0.27,-0.145
8688886456,-0.27,-0.16
8691664233,-0.27,-0.17
8694442010,-0.285,-0.17
8697219787,-0.28,-0.155
8699997564,-0.275,-0.135
8702775341,-0.27,-0.145
8705553118,-0.265,-0.155
8708330895,-0.275,-0.165
8711108672,-0.29,-0.18
8713886449,-0.285,-0.165
8716664226,-0.285,-0.15
8719442003,-0.275,-0.16
8722219780,-0.27,-0.15
8724997557,-0.28,-0.17
8727775334,-0.295,-0.175
8730553111,-0.28,-0.165
8733330888,-0.27,-0.155
8736108665,-0.27,-0.165
8738886442,-0.275,-0.175
8741664219,-0.285,-0.18
8744441996,-0.3,-0.175
8747219773,-0.295,-0.165
8749997550,-0.29,-0.16
8752775327,-0.295,-0.165
8755553104,-0.3,-0.185
8758330881,-0.29,-0.195
8761108658,-0.305,-0.185
8763886435,-0.295,-0.185
8766664212,-0.29,-0.17
8769441989,-0.295,-0.175
8772219766,-0.29,-0.17
8774997543,-0.31,-0.185
8777775320,-0.32,-0.18
8780553097,-0.315,-0.185
8783330874,-0.315,-0.18
8786108651,-0.3,-0.175
8788886428,-0.305,-0.185
8791664205,-0.315,-0.19
8794441982,-0.33,-0.185
8797219759,-0.32,-0.17
8799997536,-0.305,-0.16
8802775313,-0.315,-0.185
8805553090,-0.305,-0.185
8808330867,-0.315,-0.19
8811108644,-0.325,-0.2
8813886421,-0.31,-0.195
8816664198,-0.295,-0.165
8819441975,-0.3,-0.175
8822219752,-0.305,-0.18
8824997529,-0.31,-0.19
8827775306,-0.325,-0.195
8830553083,-0.315,-0.19
8833330860,-0.315,-0.16
8836108637,-0.305,-0.175
8838886414,-0.305,-0.165
8841664191,-0.325,-0.185
8844441968,-0.32,-0.18
8847219745,-0.32,-0.18
8849997522,-0.31,-0.155
8852775299,-0.305,-0.17
8855553076,-0.32,-0.18
8858330853,-0.32,-0.18
8861108630,-0.32,-0.185
8863886407,-0.31,-0.165
8866664184,-0.305,-0.15
8869441961,-0.29,-0.16
8872219738,-0.285,-0.165
8874997515,-0.29,-0.18
8877775292,-0.305,-0.18
8880553069,-0.31,-0.165
8883330846,-0.3,-0.15
8886108623,-0.3,-0.155
8888886400,-0.31,-0.155
8891664177,-0.315,-0.17
8894441954,-0.315,-0.175
8897219731,-0.31,-0.165
8899997508,-0.295,-0.155
8902775285,-0.3,-0.15
8905553062,-0.295,-0.155
8908330839,-0.315,-0.165
8911108616,-0.31,-0.165
8913886393,-0.29,-0.16
8916664170,-0.265,-0.16
8919441947,-0.24,-0.165
8922219724,-0.255,-0.17
8924997501,-0.24,-0.175
8927775278,-0.25,-0.16
8930553055,-0.225,-0.135
8933330832,-0.225,-0.14
8936108609,-0.215,-0.145
8938886386,-0.21,-0.14
8941664163,-0.2,-0.145
8944441940,-0.195,-0.135
8947219717,-0.195,-0.125
8949997494,-0.18,-0.115
8952775271,-0.175,-0.115
8955553048,-0.18,-0.125
8958330825,-0.205,-0.13
8961108602,-0.215,-0.105
8963886379,-0.21,-0.095
8966664156,-0.21,-0.095
8969441933,-0.21,-0.095
8972219710,-0.21,-0.095
8974997487,-0.215,-0.095
8977775264,-0.225,-0.115
8980553041,-0.21,-0.12
8983330818,-0.18,-0.12
8986108595,-0.17,-0.13
8988886372,-0.185,-0.135
8991664149,-0.24,-0.125
8994441926,-0.255,-0.14
8997219703,-0.255,-0.135
8999997480,-0.27,-0.12
9002775257,-0.275,-0.15
9005553034,-0.285,-0.15
9008330811,-0.3,-0.155
9011108588,-0.3,-0.16
9013886365,-0.315,-0.145
9016664142,-0.305,-0.14
9019441919,-0.3,-0.145
9022219696,-0.295,-0.145
9024997473,-0.3,-0.16
9027775250,-0.315,-0.165
9030553027,-0.31,-0.155
9033330804,-0.31,-0.145
9036108581,-0.3,-0.155
9038886358,-0.3,-0.155
9041664135,-0.305,-0.17
9044441912,-0.315,-0.165
9047219689,-0.325,-0.16
9049997466,-0.32,-0.155
9052775243,-0.32,-0.16
9055553020,-0.32,-0.17
9058330797,-0.325,-0.17
9061108574,-0.34,-0.165
9063886351,-0.335,-0.165
9066664128,-0.325,-0.145
9069441905,-0.315,-0.17
9072219682,-0.32,-0.19
9074997459,-0.345,-0.225
9077775236,-0.37,-0.25
9080553013,-0.395,-0.27
9083330790,-0.425,-0.28
9086108567,-0.445,-0.305
9088886344,-0.465,-0.29
9091664121,-0.51,-0.2
9094441898,-0.53,-0.075
9097219675,-0.485,0.04
9099997452,-0.37,0.135
9102775229,-0.235,0.215
9105553006,-0.09,0.32
9108330783,0.105,0.435
9111108560,0.375,0.54
9113886337,0.655,0.58
9116664114,0.82,0.465
9119441891,0.865,0.145
9122219668,0.735,-0.155
9124997445,0.45,-0.285
9127775222,0.06,-0.25
9130552999,-0.27,-0.2
9133330776,-0.43,-0.18
9136108553,-0.46,-0.19
9138886330,-0.415,-0.19
9141664107,-0.385,-0.185
9144441884,-0.365,-0.195
9147219661,-0.355,-0.185
9149997438,-0.355,-0.175
9152775215,-0.345,-0.19
9155552992,-0.35,-0.195
9158330769,-0.35,-0.205
9161108546,-0.36,-0.205
9163886323,-0.345,-0.185
9166664100,-0.34,-0.165
9169441877,-0.34,-0.185
9172219654,-0.335,-0.19
9174997431,-0.335,-0.21
9177775208,-0.355,-0.21
9180552985,-0.345,-0.2
9183330762,-0.34,-0.19
9186108539,-0.335,-0.185
9188886316,-0.34,-0.195
9191664093,-0.35,-0.21
9194441870,-0.365,-0.21
9197219647,-0.36,-0.19
9199997424,-0.365,-0.18
9202775201,-0.35,-0.19
9205552978,-0.345,-0.195
9208330755,-0.365,-0.215
9211108532,-0.36,-0.215
9213886309,-0.35,-0.195
9216664086,-0.355,-0.185
9219441863,-0.35,-0.18
9222219640,-0.355,-0.185
9224997417,-0.35,-0.2
9227775194,-0.36,-0.205
9230552971,-0.335,-0.19
9233330748,-0.335,-0.18
9236108525,-0.33,-0.185
9238886302,-0.34,-0.195
9241664079,-0.35,-0.195
9244441856,-0.35,-0.195
9247219633,-0.345,-0.19
9249997410,-0.335,-0.185
9252775187,-0.345,-0.195
9255552964,-0.355,-0.195
9258330741,-0.355,-0.205
9261108518,-0.37,-0.2
9263886295,-0.355,-0.19
9266664072,-0.35,-0.185
9269441849,-0.345,-0.195
9272219626,-0.365,-0.21
9274997403,-0.365,-0.215
9277775180,-0.37,-0.215
9280552957,-0.365,-0.205
9283330734,-0.355,-0.19
9286108511,-0.345,-0.19
9288886288,-0.345,-0.205
9291664065,-0.345,-0.22
9294441842,-0.34,-0.215
9297219619,-0.335,-0.205
9299997396,-0.325,-0.21
9302775173,-0.335,-0.22
9305552950,-0.345,-0.23
9308330727,-0.35,-0.24
9311108504,-0.35,-0.255
9313886281,-0.355,-0.24
9316664058,-0.355,-0.225
9319441835,-0.36,-0.23
9322219612,-0.35,-0.25
9324997389,-0.36,-0.25
9327775166,-0.365,-0.26
9330552943,-0.345,-0.26
9333330720,-0.345,-0.255
9336108497,-0.33,-0.26
9338886274,-0.35,-0.285
9341664051,-0.345,-0.295
9344441828,-0.355,-0.3
9347219605,-0.35,-0.285
9349997382,-0.34,-0.28
9352775159,-0.335,-0.29
9355552936,-0.35,-0.305
9358330713,-0.365,-0.315
9361108490,-0.38,-0.32
9363886267,-0.385,-0.31
9366664044,-0.355,-0.305
9369441821,-0.36,-0.31
9372219598,-0.355,-0.32
9374997375,-0.37,-0.325
9377775152,-0.385,-0.335
9380552929,-0.37,-0.32
9383330706,-0.37,-0.3
9386108483,-0.35,-0.3
9388886260,-0.345,-0.3
9391664037,-0.365,-0.285
9394441814,-0.365,-0.28
9397219591,-0.36,-0.26
9399997368,-0.345,-0.24
9402775145,-0.33,-0.235
9405552922,-0.33,-0.225
9408330699,-0.33,-0.23
9411108476,-0.335,-0.225
9413886253,-0.315,-0.19
9416664030,-0.31,-0.18
9419441807,-0.285,-0.185
9422219584,-0.29,-0.18
9424997361,-0.29,-0.195
9427775138,-0.3,-0.18
9430552915,-0.28,-0.17
9433330692,-0.275,-0.16
9436108469,-0.26,-0.17
9438886246,-0.26,-0.17
9441664023,-0.27,-0.18
9444441800,-0.265,-0.18
9447219577,-0.255,-0.17
9449997354,-0.25,-0.155
9452775131,-0.245,-0.155
9455552908,-0.245,-0.16
9458330685,-0.255,-0.18
9461108462,-0.265,-0.175
9463886239,-0.26,-0.165
9466664016,-0.255,-0.16
9469441793,-0.24,-0.17
9472219570,-0.25,-0.175
9474997347,-0.255,-0.19
9477775124,-0.275,-0.19
9480552901,-0.275,-0.175
9483330678,-0.265,-0.165
9486108455,-0.27,-0.175
9488886232,-0.275,-0.18
9491664009,-0.28,-0.185
9494441786,-0.29,-0.185
9497219563,-0.28,-0.185
9499997340,-0.275,-0.165
9502775117,-0.27,-0.185
9505552894,-0.27,-0.185
9508330671,-0.28,-0.205
9511108448,-0.29,-0.21
9513886225,-0.28,-0.195
9516664002,-0.285,-0.17
9519441779,-0.275,-0.18
9522219556,-0.29,-0.185
9524997333,-0.28,-0.19
9527775110,-0.29,-0.2
9530552887,-0.28,-0.2
9533330664,-0.285,-0.195
9536108441,-0.275,-0.2
9538886218,-0.28,-0.205
9541663995,-0.295,-0.21
9544441772,-0.305,-0.215
9547219549,-0.3,-0.205
9549997326,-0.3,-0.205
9552775103,-0.305,-0.22
9555552880,-0.315,-0.215
9558330657,-0.32,-0.225
9561108434,-0.31,-0.215
9563886211,-0.31,-0.21
9566663988,-0.3,-0.19
9569441765,-0.31,-0.205
9572219542,-0.31,-0.215
9574997319,-0.32,-0.22
9577775096,-0.325,-0.225
9580552873,-0.31,-0.21
9583330650,-0.32,-0.2
9586108427,-0.31,-0.205
9588886204,-0.31,-0.215
9591663981,-0.315,-0.22
9594441758,-0.325,-0.225
9597219535,-0.315,-0.215
9599997312,-0.305,-0.205
9602775089,-0.315,-0.195
9605552866,-0.31,-0.215
9608330643,-0.32,-0.23
9611108420,-0.325,-0.235
9613886197,-0.325,-0.22
9616663974,-0.32,-0.205
9619441751,-0.305,-0.22
9622219528,-0.305,-0.23
9624997305,-0.3,-0.24
9627775082,-0.315,-0.235
9630552859,-0.3,-0.215
9633330636,-0.31,-0.21
9636108413,-0.315,-0.205
9638886190,-0.305,-0.205
9641663967,-0.31,-0.21
9644441744,-0.32,-0.215
9647219521,-0.31,-0.22
9649997298,-0.3,-0.205
9652775075,-0.295,-0.22
9655552852,-0.3,-0.23
9658330629,-0.315,-0.225
9661108406,-0.325,-0.225
9663886183,-0.325,-0.195
9666663960,-0.305,-0.195
9669441737,-0.31,-0.22
9672219514,-0.29,-0.23
9674997291,-0.315,-0.25
9677775068,-0.325,-0.24
9680552845,-0.32,-0.225
9683330622,-0.29,-0.21
9686108399,-0.28,-0.21
9688886176,-0.26,-0.23
9691663953,-0.26,-0.235
9694441730,-0.265,-0.24
9697219507,-0.26,-0.21
9699997284,-0.25,-0.195
9702775061,-0.23,-0.195
9705552838,-0.22,-0.19
9708330615,-0.22,-0.2
9711108392,-0.235,-0.195
9713886169,-0.22,-0.18
9716663946,-0.205,-0.18
9719441723,-0.205,-0.19
9722219500,-0.21,-0.19
9724997277,-0.21,-0.18
9727775054,-0.23,-0.185
9730552831,-0.24,-0.165
9733330608,-0.23,-0.165
9736108385,-0.225,-0.175
9738886162,-0.235,-0.185
9741663939,-0.25,-0.2
9744441716,-0.265,-0.195
9747219493,-0.26,-0.185
9749997270,-0.245,-0.18
9752775047,-0.215,-0.195
9755552824,-0.215,-0.195
9758330601,-0.245,-0.215
9761108378,-0.28,-0.2
9763886155,-0.275,-0.21
9766663932,-0.275,-0.195
9769441709,-0.295,-0.225
9772219486,-0.31,-0.235
9774997263,-0.325,-0.245
9777775040,-0.34,-0.245
9780552817,-0.34,-0.22
9783330594,-0.325,-0.23
9786108371,-0.315,-0.22
9788886148,-0.31,-0.225
9791663925,-0.315,-0.24
9794441702,-0.33,-0.225
9797219479,-0.33,-0.21
9799997256,-0.325,-0.22
9802775033,-0.325,-0.23
9805552810,-0.335,-0.23
9808330587,-0.345,-0.24
9811108364,-0.35,-0.245
9813886141,-0.35,-0.245
9816663918,-0.35,-0.24
9819441695,-0.345,-0.235
9822219472,-0.35,-0.24
9824997249,-0.365,-0.255
9827775026,-0.36,-0.255
9830552803,-0.35,-0.25
9833330580,-0.355,-0.23
9836108357,-0.345,-0.24
9838886134,-0.345,-0.25
9841663911,-0.35,-0.265
9844441688,-0.365,-0.29
9847219465,-0.38,-0.31
9849997242,-0.405,-0.305
9852775019,-0.425,-0.335
9855552796,-0.44,-0.355
9858330573,-0.47,-0.335
9861108350,-0.52,-0.27
9863886127,-0.54,-0.16
9866663904,-0.49,-0.05
9869441681,-0.39,0.01
9872219458,-0.26,0.065
9874997235,-0.115,0.135
9877775012,0.085,0.24
9880552789,0.36,0.355
9883330566,0.615,0.395
9886108343,0.78,0.255
9888886120,0.835,-0.015
9891663897,0.72,-0.295
9894441674,0.41,-0.405
9897219451,0.03,-0.39
9899997228,-0.255,-0.34
9902775005,-0.415,-0.305
9905552782,-0.47,-0.31
9908330559,-0.465,-0.295
9911108336,-0.435,-0.295
9913886113,-0.395,-0.28
9916663890,-0.375,-0.27
9919441667,-0.37,-0.265
9922219444,-0.375,-0.285
9924997221,-0.375,-0.29
9927774998,-0.39,-0.29
9930552775,-0.4,-0.29
9933330552,-0.38,-0.285
9936108329,-0.385,-0.29
9938886106,-0.385,-0.29
9941663883,-0.385,-0.285
9944441660,-0.385,-0.285
9947219437,-0.37,-0.285
9949997214,-0.37,-0.265
9952774991,-0.36,-0.265
9955552768,-0.38,-0.275
9958330545,-0.38,-0.285
9961108322,-0.385,-0.28
9963886099,-0.37,-0.27
9966663876,-0.37,-0.27
9969441653,-0.365,-0.275
9972219430,-0.375,-0.27
9974997207,-0.385,-0.285
9977774984,-0.39,-0.3
9980552761,-0.39,-0.28
9983330538,-0.385,-0.275
9986108315,-0.385,-0.285
9988886092,-0.395,-0.285
9991663869,-0.39,-0.295
9994441646,-0.4,-0.29
9997219423,-0.405,-0.285
9999997200,-0.39,-0.275
10002774977,-0.395,-0.265
10005552754,-0.39,-0.285
10008330531,-0.405,-0.3
10011108308,-0.405,-0.305
10013886085,-0.4,-0.285
10016663862,-0.375,-0.27
10019441639,-0.38,-0.28
10022219416,-0.39,-0.275
10024997193,-0.395,-0.29
10027774970,-0.395,-0.28
10030552747,-0.39,-0.29
10033330524,-0.39,-0.28
10036108301,-0.385,-0.28
10038886078,-0.405,-0.285
10041663855,-0.4,-0.285
10044441632,-0.405,-0.285
10047219409,-0.395,-0.295
10049997186,-0.39,-0.275
10052774963,-0.395,-0.28
10055552740,-0.39,-0.29
10058330517,-0.4,-0.295
10061108294,-0.405,-0.295
10063886071,-0.405,-0.285
10066663848,-0.39,-0.275
10069441625,-0.39,-0.295
10072219402,-0.395,-0.305
10074997179,-0.4,-0.305
10077774956,-0.4,-0.32
10080552733,-0.395,-0.305
10083330510,-0.38,-0.295
10086108287,-0.37,-0.3
10088886064,-0.38,-0.3
10091663841,-0.385,-0.32
10094441618,-0.395,-0.32
10097219395,-0.39,-0.31
10099997172,-0.38,-0.305
10102774949,-0.38,-0.315
10105552726,-0.385,-0.33
10108330503,-0.39,-0.345
10111108280,-0.39,-0.355
10113886057,-0.4,-0.34
10116663834,-0.4,-0.335
10119441611,-0.405,-0.35
10122219388,-0.415,-0.37
10124997165,-0.42,-0.38
10127774942,-0.43,-0.38
10130552719,-0.43,-0.375
10133330496,-0.425,-0.385
10136108273,-0.42,-0.405
10138886050,-0.43,-0.405
10141663827,-0.445,-0.42
10144441604,-0.465,-0.43
10147219381,-0.455,-0.415
10149997158,-0.44,-0.41
10152774935,-0.425,-0.415
10155552712,-0.435,-0.425
10158330489,-0.45,-0.425
10161108266,-0.44,-0.425
10163886043,-0.445,-0.405
10166663820,-0.425,-0.385
10169441597,-0.425,-0.39
10172219374,-0.425,-0.385
10174997151,-0.43,-0.385
10177774928,-0.43,-0.38
10180552705,-0.415,-0.35
10183330482,-0.415,-0.32
10186108259,-0.385,-0.315
10188886036,-0.375,-0.315
10191663813,-0.385,-0.305
10194441590,-0.37,-0.305
10197219367,-0.36,-0.27
10199997144,-0.35,-0.25
10202774921,-0.335,-0.235
10205552698,-0.335,-0.235
10208330475,-0.325,-0.245
10211108252,-0.32,-0.24
10213886029,-0.325,-0.235
10216663806,-0.305,-0.215
10219441583,-0.295,-0.22
10222219360,-0.3,-0.22
10224997137,-0.29,-0.225
10227774914,-0.295,-0.22
10230552691,-0.29,-0.215
10233330468,-0.29,-0.205
10236108245,-0.285,-0.215
10238886022,-0.285,-0.215
10241663799,-0.285,-0.225
10244441576,-0.29,-0.225
10247219353,-0.29,-0.215
10249997130,-0.285,-0.19
10252774907,-0.27,-0.195
10255552684,-0.27,-0.21
10258330461,-0.28,-0.205
10261108238,-0.29,-0.205
10263886015,-0.285,-0.2
10266663792,-0.275,-0.205
10269441569,-0.275,-0.205
10272219346,-0.275,-0.205
10274997123,-0.29,-0.215
10277774900,-0.305,-0.21
10280552677,-0.305,-0.21
10283330454,-0.3,-0.2
10286108231,-0.28,-0.2
10288886008,-0.29,-0.205
10291663785,-0.305,-0.22
10294441562,-0.315,-0.21
10297219339,-0.31,-0.2
10299997116,-0.295,-0.2
10302774893,-0.29,-0.195
10305552670,-0.3,-0.215
10308330447,-0.305,-0.215
10311108224,-0.305,-0.22
10313886001,-0.31,-0.21
10316663778,-0.3,-0.21
10319441555,-0.295,-0.21
10322219332,-0.305,-0.215
10324997109,-0.305,-0.225
10327774886,-0.315,-0.23
10330552663,-0.31,-0.215
10333330440,-0.31,-0.215
10336108217,-0.295,-0.215
10338885994,-0.3,-0.22
10341663771,-0.305,-0.23
10344441548,-0.31,-0.22
10347219325,-0.305,-0.205
10349997102,-0.305,-0.2
10352774879,-0.295,-0.22
10355552656,-0.3,-0.225
10358330433,-0.315,-0.24
10361108210,-0.325,-0.23
10363885987,-0.32,-0.23
10366663764,-0.32,-0.215
10369441541,-0.315,-0.225
10372219318,-0.31,-0.22
10374997095,-0.325,-0.235
10377774872,-0.335,-0.225
10380552649,-0.33,-0.225
10383330426,-0.32,-0.21
10386108203,-0.32,-0.225
10388885980,-0.31,-0.225
10391663757,-0.33,-0.225
10394441534,-0.33,-0.23
10397219311,-0.325,-0.22
10399997088,-0.31,-0.21
10402774865,-0.305,-0.22
10405552642,-0.305,-0.215
10408330419,-0.32,-0.23
10411108196,-0.33,-0.235
10413885973,-0.325,-0.215
10416663750,-0.3,-0.21
10419441527,-0.31,-0.215
10422219304,-0.305,-0.225
10424997081,-0.315,-0.225
10427774858,-0.33,-0.235
10430552635,-0.33,-0.23
10433330412,-0.33,-0.215
10436108189,-0.32,-0.225
10438885966,-0.325,-0.22
10441663743,-0.325,-0.23
10444441520,-0.335,-0.225
10447219297,-0.325,-0.22
10449997074,-0.315,-0.21
10452774851,-0.31,-0.215
10455552628,-0.315,-0.22
10458330405,-0.32,-0.22
10461108182,-0.325,-0.225
10463885959,-0.315,-0.21
10466663736,-0.31,-0.205
10469441513,-0.305,-0.215
10472219290,-0.31,-0.225
10474997067,-0.315,-0.23
10477774844,-0.32,-0.24
10480552621,-0.315,-0.225
10483330398,-0.31,-0.205
10486108175,-0.295,-0.215
10488885952,-0.295,-0.215
10491663729,-0.305,-0.22
10494441506,-0.31,-0.23
10497219283,-0.3,-0.225
10499997060,-0.28,-0.215
10502774837,-0.275,-0.225
10505552614,-0.265,-0.22
10508330391,-0.275,-0.22
10511108168,-0.275,-0.225
10513885945,-0.26,-0.195
10516663722,-0.24,-0.195
10519441499,-0.24,-0.205
10522219276,-0.235,-0.2
10524997053,-0.24,-0.2
10527774830,-0.235,-0.195
10530552607,-0.225,-0.19
10533330384,-0.215,-0.17
10536108161,-0.205,-0.17
10538885938,-0.205,-0.18
10541663715,-0.21,-0.18
10544441492,-0.215,-0.185
10547219269,-0.22,-0.17
10549997046,-0.22,-0.165
10552774823,-0.215,-0.18
10555552600,-0.22,-0.175
10558330377,-0.22,-0.185
10561108154,-0.23,-0.175
10563885931,-0.23,-0.17
10566663708,-0.24,-0.15
10569441485,-0.21,-0.15
10572219262,-0.22,-0.155
10574997039,-0.23,-0.18
10577774816,-0.255,-0.18
10580552593,-0.235,-0.17
10583330370,-0.21,-0.175
10586108147,-0.19,-0.18
10588885924,-0.205,-0.19
10591663701,-0.225,-0.195
10594441478,-0.26,-0.2
10597219255,-0.275,-0.19
10599997032,-0.28,-0.185
10602774809,-0.285,-0.2
10605552586,-0.305,-0.195
10608330363,-0.32,-0.215
10611108140,-0.315,-0.21
10613885917,-0.335,-0.2
10616663694,-0.325,-0.195
10619441471,-0.335,-0.205
10622219248,-0.32,-0.22
10624997025,-0.325,-0.215
10627774802,-0.32,-0.225
10630552579,-0.325,-0.225
10633330356,-0.325,-0.21
10636108133,-0.31,-0.205
10638885910,-0.305,-0.21
10641663687,-0.32,-0.225
10644441464,-0.32,-0.23
10647219241,-0.33,-0.215
10649997018,-0.32,-0.2
10652774795,-0.32,-0.215
10655552572,-0.33,-0.22
10658330349,-0.33,-0.225
10661108126,-0.36,-0.21
10663885903,-0.355,-0.21
10666663680,-0.33,-0.2
10669441457,-0.325,-0.21
10672219234,-0.325,-0.215
10674997011,-0.335,-0.225
10677774788,-0.35,-0.235
10680552565,-0.34,-0.24
10683330342,-0.345,-0.255
10686108119,-0.355,-0.29
10688885896,-0.385,-0.31
10691663673,-0.425,-0.335
10694441450,-0.45,-0.36
10697219227,-0.47,-0.35
10699997004,-0.485,-0.285
10702774781,-0.51,-0.175
10705552558,-0.515,-0.05
10708330335,-0.455,0.075
10711108112,-0.325,0.19
10713885889,-0.165,0.315
10716663666,0.01,0.43
10719441443,0.25,0.545
10722219220,0.515,0.655
10724996997,0.74,0.655
10727774774,0.885,0.505
10730552551,0.935,0.21
10733330328,0.835,-0.09
10736108105,0.525,-0.275
10738885882,0.12,-0.29
10741663659,-0.23,-0.265
10744441436,-0.425,-0.25
10747219213,-0.455,-0.255
10749996990,-0.42,-0.23
10752774767,-0.38,-0.23
10755552544,-0.36,-0.25
10758330321,-0.365,-0.255
10761108098,-0.375,-0.255
10763885875,-0.38,-0.25
10766663652,-0.355,-0.235
10769441429,-0.355,-0.25
10772219206,-0.37,-0.25
10774996983,-0.375,-0.265
10777774760,-0.385,-0.255
10780552537,-0.38,-0.25
10783330314,-0.365,-0.24
10786108091,-0.37,-0.245
10788885868,-0.37,-0.255
10791663645,-0.365,-0.255
10794441422,-0.38,-0.265
10797219199,-0.37,-0.24
10799996976,-0.375,-0.24
10802774753,-0.365,-0.255
10805552530,-0.37,-0.255
10808330307,-0.38,-0.265
10811108084,-0.375,-0.26
10813885861,-0.365,-0.25
10816663638,-0.36,-0.255
10819441415,-0.36,-0.255
10822219192,-0.355,-0.255
10824996969,-0.355,-0.255
10827774746,-0.37,-0.25
10830552523,-0.365,-0.245
10833330300,-0.355,-0.225
10836108077,-0.35,-0.23
10838885854,-0.35,-0.245
10841663631,-0.35,-0.255
10844441408,-0.36,-0.26
10847219185,-0.36,-0.245
10849996962,-0.36,-0.245
10852774739,-0.35,-0.245
10855552516,-0.355,-0.24
10858330293,-0.365,-0.25
10861108070,-0.37,-0.245
10863885847,-0.36,-0.245
10866663624,-0.35,-0.24
10869441401,-0.355,-0.24
10872219178,-0.35,-0.25
10874996955,-0.355,-0.265
10877774732,-0.37,-0.255
10880552509,-0.375,-0.24
10883330286,-0.36,-0.24
10886108063,-0.35,-0.24
10888885840,-0.345,-0.255
10891663617,-0.35,-0.26
10894441394,-0.37,-0.26
10897219171,-0.37,-0.255
10899996948,-0.355,-0.255
10902774725,-0.35,-0.25
10905552502,-0.345,-0.26
10908330279,-0.36,-0.275
10911108056,-0.37,-0.28
10913885833,-0.365,-0.28
10916663610,-0.36,-0.27
10919441387,-0.35,-0.265
10922219164,-0.355,-0.285
10924996941,-0.365,-0.29
10927774718,-0.365,-0.28
10930552495,-0.37,-0.28
10933330272,-0.365,-0.275
10936108049,-0.35,-0.295
10938885826,-0.35,-0.305
10941663603,-0.36,-0.31
10944441380,-0.36,-0.31
10947219157,-0.355,-0.32
10949996934,-0.345,-0.305
10952774711,-0.35,-0.32
10955552488,-0.345,-0.345
10958330265,-0.355,-0.35
10961108042,-0.37,-0.355
10963885819,-0.365,-0.355
10966663596,-0.355,-0.35
10969441373,-0.36,-0.35
10972219150,-0.365,-0.36
10974996927,-0.365,-0.38
10977774704,-0.38,-0.385
10980552481,-0.385,-0.38
10983330258,-0.375,-0.38
10986108035,-0.37,-0.375
10988885812,-0.375,-0.385
10991663589,-0.385,-0.395
10994441366,-0.395,-0.38
10997219143,-0.375,-0.39
10999996920,-0.385,-0.38
11002774697,-0.38,-0.385
11005552474,-0.37,-0.38
11008330251,-0.385,-0.375
11011108028,-0.385,-0.37
11013885805,-0.38,-0.335
11016663582,-0.37,-0.315
11019441359,-0.36,-0.31
11022219136,-0.35,-0.3
11024996913,-0.335,-0.31
11027774690,-0.33,-0.285
11030552467,-0.315,-0.26
11033330244,-0.295,-0.225
11036108021,-0.29,-0.225
11038885798,-0.29,-0.22
11041663575,-0.285,-0.23
11044441352,-0.29,-0.215
11047219129,-0.28,-0.205
11049996906,-0.28,-0.195
11052774683,-0.26,-0.185
11055552460,-0.255,-0.195
11058330237,-0.27,-0.19
11061108014,-0.275,-0.18
11063885791,-0.26,-0.17
11066663568,-0.25,-0.15
11069441345,-0.245,-0.16
11072219122,-0.25,-0.175
11074996899,-0.26,-0.185
11077774676,-0.265,-0.175
11080552453,-0.245,-0.17
11083330230,-0.235,-0.16
11086108007,-0.245,-0.165
11088885784,-0.24,-0.165
11091663561,-0.25,-0.18
11094441338,-0.265,-0.175
11097219115,-0.25,-0.17
11099996892,-0.25,-0.165
11102774669,-0.25,-0.17
11105552446,-0.25,-0.18
11108330223,-0.255,-0.185
11111108000,-0.265,-0.19
11113885777,-0.26,-0.17
11116663554,-0.24,-0.155
11119441331,-0.25,-0.16
11122219108,-0.245,-0.165
11124996885,-0.25,-0.175
11127774662,-0.27,-0.18
11130552439,-0.265,-0.17
11133330216,-0.27,-0.165
11136107993,-0.265,-0.165
11138885770,-0.265,-0.175
11141663547,-0.275,-0.185
11144441324,-0.285,-0.19
11147219101,-0.275,-0.19
11149996878,-0.265,-0.175
11152774655,-0.27,-0.19
11155552432,-0.27,-0.18
11158330209,-0.28,-0.195
11161107986,-0.285,-0.195
11163885763,-0.285,-0.18
11166663540,-0.28,-0.18
11169441317,-0.285,-0.19
11172219094,-0.28,-0.205
11174996871,-0.285,-0.215
11177774648,-0.3,-0.215
11180552425,-0.29,-0.21
11183330202,-0.285,-0.19
11186107979,-0.27,-0.185
11188885756,-0.28,-0.2
11191663533,-0.295,-0.205
11194441310,-0.29,-0.225
11197219087,-0.29,-0.205
11199996864,-0.295,-0.2
11202774641,-0.29,-0.205
11205552418,-0.285,-0.205
11208330195,-0.305,-0.215
11211107972,-0.315,-0.215
11213885749,-0.31,-0.2
11216663526,-0.31,-0.2
11219441303,-0.29,-0.21
11222219080,-0.295,-0.21
11224996857,-0.31,-0.23
11227774634,-0.32,-0.215
11230552411,-0.315,-0.22
11233330188,-0.31,-0.205
11236107965,-0.3,-0.205
11238885742,-0.3,-0.22
11241663519,-0.315,-0.235
11244441296,-0.32,-0.225
11247219073,-0.315,-0.22
11249996850,-0.32,-0.21
11252774627,-0.29,-0.215
11255552404,-0.3,-0.22
11258330181,-0.3,-0.23
11261107958,-0.315,-0.22
11263885735,-0.31,-0.22
11266663512,-0.3,-0.215
11269441289,-0.3,-0.21
11272219066,-0.29,-0.235
11274996843,-0.31,-0.225
11277774620,-0.325,-0.22
11280552397,-0.315,-0.22
11283330174,-0.305,-0.2
11286107951,-0.305,-0.22
11288885728,-0.305,-0.215
11291663505,-0.315,-0.235
11294441282,-0.325,-0.23
11297219059,-0.32,-0.225
11299996836,-0.31,-0.21
11302774613,-0.3,-0.215
11305552390,-0.295,-0.22
11308330167,-0.315,-0.225
11311107944,-0.32,-0.215
11313885721,-0.305,-0.21
11316663498,-0.3,-0.2
11319441275,-0.29,-0.21
11322219052,-0.295,-0.22
11324996829,-0.295,-0.225
11327774606,-0.31,-0.225
11330552383,-0.295,-0.225
11333330160,-0.295,-0.21
11336107937,-0.285,-0.205
11338885714,-0.295,-0.21
11341663491,-0.295,-0.23
11344441268,-0.31,-0.225
11347219045,-0.3,-0.215
11349996822,-0.285,-0.21
11352774599,-0.28,-0.21
11355552376,-0.275,-0.225
11358330153,-0.28,-0.225
11361107930,-0.265,-0.225
11363885707,-0.245,-0.205
11366663484,-0.23,-0.2
11369441261,-0.24,-0.21
11372219038,-0.24,-0.22
11374996815,-0.24,-0.21
11377774592,-0.245,-0.215
11380552369,-0.22,-0.19
11383330146,-0.22,-0.19
11386107923,-0.215,-0.185
11388885700,-0.2,-0.185
11391663477,-0.2,-0.185
11394441254,-0.21,-0.2
11397219031,-0.205,-0.185
11399996808,-0.195,-0.17
11402774585,-0.205,-0.17
11405552362,-0.21,-0.155
11408330139,-0.215,-0.16
11411107916,-0.225,-0.16
11413885693,-0.225,-0.175
11416663470,-0.2,-0.165
11419441247,-0.2,-0.16
11422219024,-0.21,-0.16
11424996801,-0.225,-0.165
11427774578,-0.22,-0.17
11430552355,-0.195,-0.165
11433330132,-0.18,-0.16
11436107909,-0.175,-0.175
11438885686,-0.205,-0.195
11441663463,-0.245,-0.2
11444441240,-0.265,-0.205
11447219017,-0.275,-0.195
11449996794,-0.28,-0.195
11452774571,-0.285,-0.205
11455552348,-0.3,-0.2
11458330125,-0.31,-0.22
11461107902,-0.325,-0.225
11463885679,-0.32,-0.22
11466663456,-0.325,-0.21
11469441233,-0.31,-0.215
11472219010,-0.325,-0.22
11474996787,-0.33,-0.23
11477774564,-0.34,-0.24
11480552341,-0.335,-0.215
11483330118,-0.33,-0.215
11486107895,-0.325,-0.225
11488885672,-0.32,-0.235
11491663449,-0.34,-0.24
11494441226,-0.345,-0.25
11497219003,-0.34,-0.23
11499996780,-0.33,-0.205
11502774557,-0.335,-0.225
11505552334,-0.33,-0.23
11508330111,-0.34,-0.24
11511107888,-0.34,-0.25
11513885665,-0.335,-0.23
11516663442,-0.335,-0.215
11519441219,-0.33,-0.23
11522218996,-0.335,-0.255
11524996773,-0.345,-0.28
11527774550,-0.375,-0.305
11530552327,-0.395,-0.315
11533330104,-0.43,-0.325
11536107881,-0.44,-0.33
11538885658,-0.45,-0.35
11541663435,-0.45,-0.375
11544441212,-0.475,-0.415
11547218989,-0.48,-0.415
11549996766,-0.51,-0.375
11552774543,-0.55,-0.32
11555552320,-0.575,-0.235
11558330097,-0.545,-0.125
11561107874,-0.49,0.0
11563885651,-0.375,0.115
11566663428,-0.25,0.205
11569441205,-0.12,0.315
11572218982,0.06,0.42
11574996759,0.285,0.525
11577774536,0.525,0.61
11580552313,0.74,0.615
11583330090,0.86,0.47
11586107867,0.89,0.135
11588885644,0.73,-0.165
11591663421,0.425,-0.325
11594441198,0.015,-0.305
11597218975,-0.285,-0.27
11599996752,-0.435,-0.26
11602774529,-0.45,-0.26
11605552306,-0.435,-0.25
11608330083,-0.385,-0.27
11611107860,-0.38,-0.275
11613885637,-0.37,-0.26
11616663414,-0.37,-0.26
11619441191,-0.37,-0.275
11622218968,-0.36,-0.27
11624996745,-0.36,-0.27
11627774522,-0.37,-0.27
11630552299,-0.385,-0.265
11633330076,-0.365,-0.26
11636107853,-0.36,-0.27
11638885630,-0.365,-0.27
11641663407,-0.365,-0.28
11644441184,-0.375,-0.285
11647218961,-0.385,-0.265
11649996738,-0.36,-0.255
11652774515,-0.365,-0.26
11655552292,-0.355,-0.27
11658330069,-0.375,-0.275
11661107846,-0.38,-0.285
11663885623,-0.375,-0.27
11666663400,-0.355,-0.265
11669441177,-0.355,-0.265
11672218954,-0.36,-0.26
11674996731,-0.365,-0.275
11677774508,-0.38,-0.27
11680552285,-0.37,-0.265
11683330062,-0.355,-0.255
11686107839,-0.35,-0.26
11688885616,-0.355,-0.255
11691663393,-0.365,-0.275
11694441170,-0.38,-0.265
11697218947,-0.365,-0.26
11699996724,-0.355,-0.255
11702774501,-0.355,-0.255
11705552278,-0.365,-0.26
11708330055,-0.385,-0.265
11711107832,-0.39,-0.28
11713885609,-0.375,-0.26
11716663386,-0.355,-0.24
11719441163,-0.365,-0.25
11722218940,-0.36,-0.265
11724996717,-0.355,-0.27
11727774494,-0.365,-0.28
11730552271,-0.365,-0.265
11733330048,-0.355,-0.25
11736107825,-0.345,-0.255
11738885602,-0.345,-0.26
11741663379,-0.365,-0.27
11744441156,-0.36,-0.28
11747218933,-0.375,-0.275
11749996710,-0.355,-0.26
11752774487,-0.36,-0.27
11755552264,-0.365,-0.285
11758330041,-0.365,-0.28
11761107818,-0.37,-0.28
11763885595,-0.36,-0.275
11766663372,-0.355,-0.28
11769441149,-0.36,-0.275
11772218926,-0.365,-0.27
11774996703,-0.385,-0.295
11777774480,-0.38,-0.305
11780552257,-0.365,-0.295
11783330034,-0.355,-0.28
11786107811,-0.335,-0.3
11788885588,-0.36,-0.31
11791663365,-0.36,-0.31
11794441142,-0.385,-0.315
11797218919,-0.38,-0.315
11799996696,-0.375,-0.31
11802774473,-0.36,-0.315
11805552250,-0.36,-0.33
11808330027,-0.365,-0.35
11811107804,-0.375,-0.35
11813885581,-0.365,-0.355
11816663358,-0.355,-0.335
11819441135,-0.36,-0.345
11822218912,-0.35,-0.355
11824996689,-0.36,-0.37
11827774466,-0.37,-0.375
11830552243,-0.37,-0.385
11833330020,-0.365,-0.38
11836107797,-0.37,-0.39
11838885574,-0.38,-0.39
11841663351,-0.39,-0.405
11844441128,-0.385,-0.41
11847218905,-0.38,-0.395
11849996682,-0.37,-0.395
11852774459,-0.37,-0.395
11855552236,-0.365,-0.4
11858330013,-0.365,-0.41
11861107790,-0.39,-0.405
11863885567,-0.375,-0.385
11866663344,-0.37,-0.375
11869441121,-0.355,-0.365
11872218898,-0.365,-0.365
11874996675,-0.36,-0.365
11877774452,-0.37,-0.355
11880552229,-0.35,-0.325
11883330006,-0.34,-0.295
11886107783,-0.325,-0.295
11888885560,-0.32,-0.265
11891663337,-0.315,-0.28
11894441114,-0.325,-0.275
11897218891,-0.31,-0.245
11899996668,-0.295,-0.23
11902774445,-0.285,-0.215
11905552222,-0.29,-0.21
11908329999,-0.29,-0.225
11911107776,-0.275,-0.215
11913885553,-0.27,-0.21
11916663330,-0.265,-0.195
11919441107,-0.26,-0.19
11922218884,-0.26,-0.215
11924996661,-0.275,-0.195
11927774438,-0.275,-0.21
11930552215,-0.285,-0.18
11933329992,-0.26,-0.18
11936107769,-0.26,-0.19
11938885546,-0.265,-0.195
11941663323,-0.27,-0.2
11944441100,-0.28,-0.2
11947218877,-0.275,-0.19
11949996654,-0.255,-0.17
11952774431,-0.255,-0.18
11955552208,-0.245,-0.195
11958329985,-0.255,-0.195
11961107762,-0.26,-0.21
11963885539,-0.255,-0.2
11966663316,-0.255,-0.195
11969441093,-0.26,-0.185
11972218870,-0.265,-0.19
11974996647,-0.28,-0.215
11977774424,-0.295,-0.21
11980552201,-0.29,-0.21
11983329978,-0.275,-0.2
11986107755,-0.28,-0.205
11988885532,-0.28,-0.215
11991663309,-0.28,-0.215
11994441086,-0.285,-0.225
11997218863,-0.285,-0.215
11999996640,-0.28,-0.195
12002774417,-0.27,-0.205
12005552194,-0.285,-0.22
12008329971,-0.3,-0.24
12011107748,-0.31,-0.24
12013885525,-0.3,-0.22
12016663302,-0.29,-0.21
12019441079,-0.28,-0.215
12022218856,-0.3,-0.215
12024996633,-0.29,-0.22
12027774410,-0.31,-0.235
12030552187,-0.3,-0.225
12033329964,-0.295,-0.22
12036107741,-0.29,-0.225
12038885518,-0.285,-0.23
12041663295,-0.295,-0.235
12044441072,-0.325,-0.245
12047218849,-0.315,-0.225
12049996626,-0.31,-0.22
12052774403,-0.305,-0.23
12055552180,-0.3,-0.245
12058329957,-0.315,-0.26
12061107734,-0.33,-0.26
12063885511,-0.32,-0.25
12066663288,-0.32,-0.23
12069441065,-0.315,-0.24
12072218842,-0.32,-0.245
12074996619,-0.325,-0.25
12077774396,-0.335,-0.25
12080552173,-0.33,-0.24
12083329950,-0.325,-0.235
12086107727,-0.31,-0.245
12088885504,-0.315,-0.24
12091663281,-0.315,-0.255
12094441058,-0.335,-0.255
12097218835,-0.32,-0.25
12099996612,-0.31,-0.25
12102774389,-0.315,-0.25
12105552166,-0.31,-0.26
12108329943,-0.32,-0.26
12111107720,-0.335,-0.25
12113885497,-0.325,-0.245
12116663274,-0.325,-0.23
12119441051,-0.315,-0.235
12122218828,-0.31,-0.24
12124996605,-0.32,-0.24
12127774382,-0.33,-0.25
12130552159,-0.32,-0.24
12133329936,-0.32,-0.24
12136107713,-0.31,-0.26
12138885490,-0.33,-0.255
12141663267,-0.33,-0.27
12144441044,-0.345,-0.27
12147218821,-0.34,-0.255
12149996598,-0.33,-0.255
12152774375,-0.32,-0.24
12155552152,-0.315,-0.245
12158329929,-0.335,-0.24
12161107706,-0.335,-0.24
12163885483,-0.33,-0.245
12166663260,-0.31,-0.235
12169441037,-0.31,-0.235
12172218814,-0.315,-0.245
12174996591,-0.33,-0.27
12177774368,-0.32,-0.26
12180552145,-0.315,-0.25
12183329922,-0.3,-0.25
12186107699,-0.285,-0.255
12188885476,-0.28,-0.25
12191663253,-0.265,-0.27
12194441030,-0.26,-0.27
12197218807,-0.265,-0.25
12199996584,-0.26,-0.23
12202774361,-0.255,-0.235
12205552138,-0.26,-0.24
12208329915,-0.25,-0.235
12211107692,-0.255,-0.235
12213885469,-0.24,-0.23
12216663246,-0.23,-0.225
12219441023,-0.205,-0.215
12222218800,-0.21,-0.235
12224996577,-0.225,-0.225
12227774354,-0.235,-0.22
12230552131,-0.225,-0.205
12233329908,-0.225,-0.205
12236107685,-0.23,-0.205
12238885462,-0.225,-0.205
12241663239,-0.24,-0.21
12244441016,-0.24,-0.225
12247218793,-0.23,-0.21
12249996570,-0.235,-0.195
12252774347,-0.25,-0.2
12255552124,-0.25,-0.215
12258329901,-0.255,-0.235
12261107678,-0.235,-0.23
12263885455,-0.22,-0.225
12266663232,-0.205,-0.225
12269441009,-0.215,-0.245
12272218786,-0.24,-0.25
12274996563,-0.265,-0.26
12277774340,-0.28,-0.265
12280552117,-0.28,-0.23
12283329894,-0.27,-0.235
12286107671,-0.27,-0.24
12288885448,-0.29,-0.25
12291663225,-0.32,-0.28
12294441002,-0.335,-0.27
12297218779,-0.34,-0.265
12299996556,-0.33,-0.255
12302774333,-0.33,-0.265
12305552110,-0.335,-0.275
12308329887,-0.35,-0.28
12311107664,-0.36,-0.29
12313885441,-0.35,-0.275
12316663218,-0.35,-0.265
12319440995,-0.345,-0.27
12322218772,-0.35,-0.27
12324996549,-0.355,-0.28
12327774326,-0.365,-0.28
12330552103,-0.36,-0.27
12333329880,-0.355,-0.265
12336107657,-0.35,-0.28
12338885434,-0.34,-0.285
12341663211,-0.36,-0.295
12344440988,-0.37,-0.295
12347218765,-0.37,-0.28
12349996542,-0.355,-0.265
12352774319,-0.345,-0.28
12355552096,-0.35,-0.3
12358329873,-0.37,-0.325
12361107650,-0.385,-0.355
12363885427,-0.41,-0.36
12366663204,-0.44,-0.355
12369440981,-0.46,-0.385
12372218758,-0.49,-0.4
12374996535,-0.54,-0.355
12377774312,-0.565,-0.27
12380552089,-0.55,-0.17
12383329866,-0.485,-0.075
12386107643,-0.365,-0.01
12388885420,-0.255,0.05
12391663197,-0.125,0.135
12394440974,0.09,0.255
12397218751,0.36,0.36
12399996528,0.6,0.39
12402774305,0.75,0.275
12405552082,0.795,0.04
12408329859,0.7,-0.225
12411107636,0.44,-0.4
12413885413,0.095,-0.41
12416663190,-0.185,-0.36
12419440967,-0.37,-0.345
12422218744,-0.47,-0.34
12424996521,-0.49,-0.345
12427774298,-0.47,-0.345
12430552075,-0.44,-0.33
12433329852,-0.425,-0.305
12436107629,-0.41,-0.315
12438885406,-0.41,-0.315
12441663183,-0.41,-0.325
12444440960,-0.42,-0.335
12447218737,-0.4,-0.33
12449996514,-0.395,-0.31
12452774291,-0.405,-0.315
12455552068,-0.41,-0.32
12458329845,-0.405,-0.32
12461107622,-0.42,-0.32
12463885399,-0.395,-0.32
12466663176,-0.395,-0.31
12469440953,-0.39,-0.325
12472218730,-0.395,-0.33
12474996507,-0.395,-0.345
12477774284,-0.41,-0.34
12480552061,-0.4,-0.32
12483329838,-0.4,-0.31
12486107615,-0.41,-0.31
12488885392,-0.4,-0.32
12491663169,-0.405,-0.325
12494440946,-0.41,-0.325
12497218723,-0.41,-0.315
12499996500,-0.4,-0.31
12502774277,-0.39,-0.31
12505552054,-0.39,-0.315
12508329831,-0.4,-0.33
12511107608,-0.4,-0.32
12513885385,-0.395,-0.315
12516663162,-0.39,-0.29
12519440939,-0.385,-0.305
12522218716,-0.39,-0.305
12524996493,-0.41,-0.32
12527774270,-0.41,-0.32
12530552047,-0.41,-0.325
12533329824,-0.415,-0.32
12536107601,-0.41,-0.315
12538885378,-0.405,-0.32
12541663155,-0.42,-0.325
12544440932,-0.42,-0.33
12547218709,-0.42,-0.315
12549996486,-0.415,-0.31
12552774263,-0.41,-0.315
12555552040,-0.415,-0.33
12558329817,-0.425,-0.34
12561107594,-0.425,-0.335
12563885371,-0.42,-0.315
12566663148,-0.425,-0.305
12569440925,-0.42,-0.32
12572218702,-0.41,-0.325
12574996479,-0.41,-0.32
12577774256,-0.415,-0.325
12580552033,-0.41,-0.33
12583329810,-0.41,-0.32
12586107587,-0.4,-0.31
12588885364,-0.405,-0.325
12591663141,-0.405,-0.325
12594440918,-0.425,-0.33
12597218695,-0.42,-0.325
12599996472,-0.41,-0.33
12602774249,-0.4,-0.33
12605552026,-0.405,-0.335
12608329803,-0.415,-0.335
12611107580,-0.42,-0.345
12613885357,-0.41,-0.335
12616663134,-0.41,-0.34
12619440911,-0.4,-0.345
12622218688,-0.41,-0.35
12624996465,-0.415,-0.36
12627774242,-0.42,-0.38
12630552019,-0.41,-0.365
12633329796,-0.4,-0.36
12636107573,-0.39,-0.37
12638885350,-0.4,-0.38
12641663127,-0.415,-0.405
12644440904,-0.42,-0.425
12647218681,-0.415,-0.42
12649996458,-0.415,-0.405
12652774235,-0.4,-0.41
12655552012,-0.415,-0.425
12658329789,-0.43,-0.44
12661107566,-0.45,-0.445
12663885343,-0.44,-0.44
12666663120,-0.44,-0.43
12669440897,-0.435,-0.43
12672218674,-0.435,-0.44
12674996451,-0.44,-0.45
12677774228,-0.45,-0.465
12680552005,-0.435,-0.44
12683329782,-0.44,-0.435
12686107559,-0.43,-0.445
12688885336,-0.44,-0.465
12691663113,-0.445,-0.45
12694440890,-0.445,-0.445
12697218667,-0.44,-0.42
12699996444,-0.435,-0.4
12702774221,-0.42,-0.385
12705551998,-0.415,-0.38
12708329775,-0.41,-0.38
12711107552,-0.405,-0.375
12713885329,-0.38,-0.365
12716663106,-0.375,-0.345
12719440883,-0.37,-0.34
12722218660,-0.37,-0.34
12724996437,-0.37,-0.325
12727774214,-0.36,-0.305
12730551991,-0.355,-0.28
12733329768,-0.325,-0.275
12736107545,-0.305,-0.29
12738885322,-0.31,-0.305
12741663099,-0.32,-0.31
12744440876,-0.325,-0.305
12747218653,-0.325,-0.29
12749996430,-0.315,-0.28
12752774207,-0.3,-0.28
12755551984,-0.305,-0.27
12758329761,-0.32,-0.29
12761107538,-0.33,-0.285
12763885315,-0.33,-0.29
12766663092,-0.31,-0.275
12769440869,-0.31,-0.29
12772218646,-0.31,-0.295
12774996423,-0.305,-0.29
12777774200,-0.31,-0.3
12780551977,-0.32,-0.28
12783329754,-0.305,-0.27
12786107531,-0.3,-0.28
12788885308,-0.3,-0.285
12791663085,-0.305,-0.3
12794440862,-0.32,-0.29
12797218639,-0.32,-0.285
12799996416,-0.315,-0.275
12802774193,-0.315,-0.285
12805551970,-0.31,-0.3
12808329747,-0.33,-0.305
12811107524,-0.335,-0.31
12813885301,-0.335,-0.295
12816663078,-0.32,-0.295
12819440855,-0.315,-0.29
12822218632,-0.315,-0.295
12824996409,-0.325,-0.305
12827774186,-0.33,-0.31
12830551963,-0.335,-0.305
12833329740,-0.32,-0.295
12836107517,-0.3,-0.295
12838885294,-0.3,-0.3
12841663071,-0.32,-0.3
12844440848,-0.32,-0.31
12847218625,-0.33,-0.32
12849996402,-0.32,-0.3
12852774179,-0.32,-0.325
12855551956,-0.325,-0.325
12858329733,-0.34,-0.325
12861107510,-0.355,-0.335
12863885287,-0.345,-0.33
12866663064,-0.35,-0.31
12869440841,-0.345,-0.32
12872218618,-0.345,-0.325
12874996395,-0.36,-0.335
12877774172,-0.36,-0.34
12880551949,-0.345,-0.325
12883329726,-0.34,-0.315
12886107503,-0.34,-0.33
12888885280,-0.355,-0.33
12891663057,-0.35,-0.335
12894440834,-0.35,-0.34
12897218611,-0.355,-0.335
12899996388,-0.34,-0.315
12902774165,-0.335,-0.33
12905551942,-0.34,-0.345
12908329719,-0.35,-0.34
12911107496,-0.355,-0.34
12913885273,-0.355,-0.33
12916663050,-0.355,-0.325
12919440827,-0.345,-0.33
12922218604,-0.345,-0.34
12924996381,-0.35,-0.35
12927774158,-0.36,-0.355
12930551935,-0.365,-0.335
12933329712,-0.365,-0.32
12936107489,-0.35,-0.325
12938885266,-0.35,-0.33
12941663043,-0.36,-0.33
12944440820,-0.37,-0.355
12947218597,-0.36,-0.34
12949996374,-0.35,-0.32
12952774151,-0.335,-0.335
12955551928,-0.35,-0.335
12958329705,-0.35,-0.33
12961107482,-0.345,-0.35
12963885259,-0.34,-0.335
12966663036,-0.34,-0.335
12969440813,-0.34,-0.34
12972218590,-0.34,-0.34
12974996367,-0.345,-0.35
12977774144,-0.35,-0.345
12980551921,-0.36,-0.325
12983329698,-0.35,-0.32
12986107475,-0.335,-0.325
12988885252,-0.345,-0.345
12991663029,-0.35,-0.35
12994440806,-0.35,-0.35
12997218583,-0.355,-0.345
12999996360,-0.34,-0.33
13002774137,-0.335,-0.315
13005551914,-0.33,-0.33
13008329691,-0.34,-0.34
13011107468,-0.355,-0.345
13013885245,-0.355,-0.34
13016663022,-0.33,-0.32
13019440799,-0.315,-0.33
13022218576,-0.315,-0.34
13024996353,-0.315,-0.35
13027774130,-0.32,-0.335
13030551907,-0.3,-0.325
13033329684,-0.3,-0.31
13036107461,-0.28,-0.305
13038885238,-0.265,-0.32
13041663015,-0.28,-0.315
13044440792,-0.285,-0.32
13047218569,-0.265,-0.31
13049996346,-0.235,-0.29
13052774123,-0.23,-0.295
13055551900,-0.23,-0.305
13058329677,-0.245,-0.305
13061107454,-0.255,-0.31
13063885231,-0.25,-0.295
13066663008,-0.245,-0.28
13069440785,-0.25,-0.28
13072218562,-0.255,-0.285
13074996339,-0.265,-0.29
13077774116,-0.27,-0.295
13080551893,-0.29,-0.29
13083329670,-0.28,-0.285
13086107447,-0.275,-0.295
13088885224,-0.26,-0.3
13091663001,-0.255,-0.315
13094440778,-0.26,-0.315
13097218555,-0.275,-0.305
13099996332,-0.295,-0.295
13102774109,-0.3,-0.305
13105551886,-0.305,-0.31
13108329663,-0.335,-0.345
13111107440,-0.355,-0.335
13113885217,-0.35,-0.34
13116662994,-0.35,-0.335
13119440771,-0.35,-0.33
13122218548,-0.355,-0.33
13124996325,-0.37,-0.345
13127774102,-0.37,-0.345
13130551879,-0.36,-0.34
13133329656,-0.365,-0.335
13136107433,-0.355,-0.33
13138885210,-0.365,-0.335
13141662987,-0.375,-0.335
13144440764,-0.385,-0.33
13147218541,-0.38,-0.325
13149996318,-0.375,-0.31
13152774095,-0.355,-0.325
13155551872,-0.37,-0.325
13158329649,-0.385,-0.33
13161107426,-0.39,-0.335
13163885203,-0.39,-0.335
13166662980,-0.37,-0.315
13169440757,-0.36,-0.32
13172218534,-0.37,-0.33
13174996311,-0.38,-0.325
13177774088,-0.385,-0.335
13180551865,-0.38,-0.325
13183329642,-0.375,-0.33
13186107419,-0.37,-0.35
13188885196,-0.38,-0.375
13191662973,-0.405,-0.395
13194440750,-0.445,-0.425
13197218527,-0.465,-0.425
13199996304,-0.48,-0.43
13202774081,-0.485,-0.425
13205551858,-0.525,-0.365
13208329635,-0.555,-0.27
13211107412,-0.535,-0.165
13213885189,-0.45,-0.065
13216662966,-0.325,0.015
13219440743,-0.185,0.08
13222218520,-0.025,0.18
13224996297,0.185,0.295
13227774074,0.43,0.39
13230551851,0.66,0.405
13233329628,0.815,0.315
13236107405,0.85,0.025
13238885182,0.75,-0.26
13241662959,0.485,-0.44
13244440736,0.11,-0.465
13247218513,-0.21,-0.415
13249996290,-0.39,-0.375
13252774067,-0.46,-0.36
13255551844,-0.485,-0.35
13258329621,-0.47,-0.35
13261107398,-0.45,-0.35
13263885175,-0.425,-0.335
13266662952,-0.415,-0.325
13269440729,-0.405,-0.325
13272218506,-0.415,-0.34
13274996283,-0.415,-0.33
13277774060,-0.42,-0.335
13280551837,-0.4,-0.325
13283329614,-0.395,-0.325
13286107391,-0.385,-0.335
13288885168,-0.395,-0.325
13291662945,-0.4,-0.35
13294440722,-0.42,-0.34
13297218499,-0.41,-0.34
13299996276,-0.4,-0.31
13302774053,-0.4,-0.32
13305551830,-0.405,-0.325
13308329607,-0.405,-0.345
13311107384,-0.435,-0.34
13313885161,-0.42,-0.33
13316662938,-0.41,-0.315
13319440715,-0.405,-0.31
13322218492,-0.415,-0.32
13324996269,-0.43,-0.335
13327774046,-0.44,-0.335
13330551823,-0.435,-0.325
13333329600,-0.415,-0.315
13336107377,-0.42,-0.325
13338885154,-0.43,-0.33
13341662931,-0.415,-0.325
13344440708,-0.43,-0.33
13347218485,-0.425,-0.315
13349996262,-0.42,-0.32
13352774039,-0.42,-0.31
13355551816,-0.415,-0.32
13358329593,-0.425,-0.335
13361107370,-0.425,-0.33
13363885147,-0.42,-0.315
13366662924,-0.41,-0.315
13369440701,-0.41,-0.315
13372218478,-0.41,-0.32
13374996255,-0.42,-0.33
13377774032,-0.43,-0.33
13380551809,-0.42,-0.315
13383329586,-0.415,-0.31
13386107363,-0.395,-0.305
13388885140,-0.405,-0.32
13391662917,-0.415,-0.335
13394440694,-0.43,-0.335
13397218471,-0.42,-0.345
13399996248,-0.42,-0.325
13402774025,-0.415,-0.33
13405551802,-0.42,-0.33
13408329579,-0.425,-0.335
13411107356,-0.44,-0.335
13413885133,-0.43,-0.33
13416662910,-0.425,-0.325
13419440687,-0.415,-0.33
13422218464,-0.42,-0.335
13424996241,-0.425,-0.355
13427774018,-0.44,-0.355
13430551795,-0.43,-0.35
13433329572,-0.43,-0.33
13436107349,-0.425,-0.34
13438885126,-0.42,-0.36
13441662903,-0.415,-0.365
13444440680,-0.425,-0.365
13447218457,-0.43,-0.37
13449996234,-0.425,-0.35
13452774011,-0.415,-0.355
13455551788,-0.405,-0.37
13458329565,-0.405,-0.38
13461107342,-0.425,-0.39
13463885119,-0.415,-0.385
13466662896,-0.42,-0.38
13469440673,-0.42,-0.39
13472218450,-0.42,-0.395
13474996227,-0.435,-0.42
13477774004,-0.435,-0.43
13480551781,-0.44,-0.42
13483329558,-0.42,-0.41
13486107335,-0.43,-0.425
13488885112,-0.45,-0.43
13491662889,-0.455,-0.45
13494440666,-0.465,-0.46
13497218443,-0.465,-0.445
13499996220,-0.465,-0.455
13502773997,-0.465,-0.45
13505551774,-0.465,-0.45
13508329551,-0.47,-0.47
13511107328,-0.49,-0.465
13513885105,-0.485,-0.46
13516662882,-0.46,-0.44
13519440659,-0.455,-0.445
13522218436,-0.46,-0.435
13524996213,-0.455,-0.42
13527773990,-0.455,-0.4
13530551767,-0.44,-0.38
13533329544,-0.425,-0.365
13536107321,-0.415,-0.365
13538885098,-0.4,-0.355
13541662875,-0.405,-0.34
13544440652,-0.4,-0.345
13547218429,-0.385,-0.32
13549996206,-0.365,-0.3
13552773983,-0.365,-0.29
13555551760,-0.36,-0.28
13558329537,-0.37,-0.295
13561107314,-0.375,-0.285
13563885091,-0.355,-0.27
13566662868,-0.34,-0.26
13569440645,-0.33,-0.255
13572218422,-0.33,-0.25
13574996199,-0.33,-0.25
13577773976,-0.34,-0.255
13580551753,-0.335,-0.245
13583329530,-0.32,-0.245
13586107307,-0.305,-0.235
13588885084,-0.315,-0.245
13591662861,-0.32,-0.24
13594440638,-0.32,-0.25
13597218415,-0.32,-0.24
13599996192,-0.315,-0.23
13602773969,-0.31,-0.235
13605551746,-0.31,-0.24
13608329523,-0.315,-0.26
13611107300,-0.33,-0.25
13613885077,-0.32,-0.24
13616662854,-0.32,-0.23
13619440631,-0.31,-0.235
13622218408,-0.32,-0.235
13624996185,-0.33,-0.265
13627773962,-0.34,-0.265
13630551739,-0.33,-0.255
13633329516,-0.325,-0.245
13636107293,-0.325,-0.245
13638885070,-0.32,-0.25
13641662847,-0.34,-0.27
13644440624,-0.35,-0.27
13647218401,-0.34,-0.255
13649996178,-0.32,-0.25
13652773955,-0.315,-0.255
13655551732,-0.325,-0.255
13658329509,-0.34,-0.26
13661107286,-0.345,-0.255
13663885063,-0.345,-0.255
13666662840,-0.34,-0.25
13669440617,-0.33,-0.255
13672218394,-0.335,-0.27
13674996171,-0.345,-0.275
13677773948,-0.36,-0.28
13680551725,-0.355,-0.25
13683329502,-0.34,-0.25
13686107279,-0.33,-0.255
13688885056,-0.335,-0.27
13691662833,-0.345,-0.275
13694440610,-0.365,-0.275
13697218387,-0.37,-0.27
13699996164,-0.35,-0.26
13702773941,-0.34,-0.26
13705551718,-0.335,-0.265
13708329495,-0.36,-0.28
13711107272,-0.355,-0.28
13713885049,-0.34,-0.265
13716662826,-0.335,-0.255
13719440603,-0.335,-0.26
13722218380,-0.32,-0.28
13724996157,-0.335,-0.275
13727773934,-0.355,-0.28
13730551711,-0.35,-0.265
13733329488,-0.345,-0.255
13736107265,-0.34,-0.27
13738885042,-0.335,-0.265
13741662819,-0.35,-0.285
13744440596,-0.37,-0.285
13747218373,-0.36,-0.27
13749996150,-0.355,-0.26
13752773927,-0.35,-0.265
13755551704,-0.345,-0.26
13758329481,-0.365,-0.28
13761107258,-0.36,-0.27
13763885035,-0.36,-0.275
13766662812,-0.35,-0.265
13769440589,-0.345,-0.255
13772218366,-0.355,-0.275
13774996143,-0.355,-0.28
13777773920,-0.365,-0.275
13780551697,-0.36,-0.27
13783329474,-0.345,-0.26
13786107251,-0.345,-0.265
13788885028,-0.35,-0.26
13791662805,-0.355,-0.27
13794440582,-0.36,-0.28
13797218359,-0.355,-0.26
13799996136,-0.35,-0.255
13802773913,-0.335,-0.26
13805551690,-0.335,-0.27
13808329467,-0.355,-0.27
13811107244,-0.345,-0.275
13813885021,-0.34,-0.265
13816662798,-0.33,-0.25
13819440575,-0.34,-0.25
13822218352,-0.345,-0.26
13824996129,-0.35,-0.265
13827773906,-0.355,-0.275
13830551683,-0.35,-0.265
13833329460,-0.335,-0.255
13836107237,-0.33,-0.25
13838885014,-0.33,-0.265
13841662791,-0.33,-0.26
13844440568,-0.33,-0.265
13847218345,-0.305,-0.25
13849996122,-0.285,-0.235
13852773899,-0.275,-0.26
