timestamp_ms;ecg_value
0.000;-0.14500
2.778;-0.14500
5.556;-0.14500
8.333;-0.14500
11.111;-0.14500
13.889;-0.14500
16.667;-0.14500
19.444;-0.14500
22.222;-0.12000
25.000;-0.13500
27.778;-0.14500
30.556;-0.15000
33.333;-0.16000
36.111;-0.15500
38.889;-0.16000
41.667;-0.17500
44.444;-0.18000
47.222;-0.18500
50.000;-0.17000
52.778;-0.15500
55.556;-0.17500
58.333;-0.18000
61.111;-0.19000
63.889;-0.18000
66.667;-0.15500
69.444;-0.13500
72.222;-0.15500
75.000;-0.19000
77.778;-0.20500
80.556;-0.23500
83.333;-0.22500
86.111;-0.24500
88.889;-0.25000
91.667;-0.26000
94.444;-0.27500
97.222;-0.27500
100.000;-0.27500
102.778;-0.26500
105.556;-0.25500
108.333;-0.26500
111.111;-0.27500
113.889;-0.29000
116.667;-0.29000
119.444;-0.29000
122.222;-0.29000
125.000;-0.28500
127.778;-0.29500
130.556;-0.30500
133.333;-0.28500
136.111;-0.27500
138.889;-0.27500
141.667;-0.28000
144.444;-0.28500
147.222;-0.30500
150.000;-0.29000
152.778;-0.30000
155.556;-0.28000
158.333;-0.29000
161.111;-0.30000
163.889;-0.31500
166.667;-0.32000
169.444;-0.33500
172.222;-0.36000
175.000;-0.38500
177.778;-0.38500
180.556;-0.40500
183.333;-0.45500
186.111;-0.48500
188.889;-0.48500
191.667;-0.42500
194.444;-0.33000
197.222;-0.22000
200.000;-0.07000
202.778;0.12000
205.555;0.37500
208.333;0.62000
211.111;0.78000
213.889;0.84000
216.667;0.76500
219.444;0.52000
222.222;0.17000
225.000;-0.16500
227.778;-0.36500
230.555;-0.43500
233.333;-0.42500
236.111;-0.37000
238.889;-0.33000
241.667;-0.32500
244.444;-0.33500
247.222;-0.34500
250.000;-0.33000
252.778;-0.32500
255.555;-0.31500
258.333;-0.31000
261.111;-0.32000
263.889;-0.33500
266.667;-0.34000
269.444;-0.32500
272.222;-0.34500
275.000;-0.33500
277.778;-0.33000
280.555;-0.33500
283.333;-0.33000
286.111;-0.32500
288.889;-0.33000
291.667;-0.33000
294.444;-0.34500
297.222;-0.35500
300.000;-0.33500
302.778;-0.32500
305.555;-0.30500
308.333;-0.32000
311.111;-0.32000
313.889;-0.33000
316.667;-0.34000
319.444;-0.33500
322.222;-0.34000
325.000;-0.34500
327.778;-0.35500
330.555;-0.35500
333.333;-0.34000
336.111;-0.33000
338.889;-0.33000
341.667;-0.33000
344.444;-0.34000
347.222;-0.35000
350.000;-0.32500
352.778;-0.32500
355.555;-0.33000
358.333;-0.33000
361.111;-0.33500
363.889;-0.33500
366.667;-0.34000
369.444;-0.33000
372.222;-0.34000
375.000;-0.35000
377.778;-0.35500
380.555;-0.35000
383.333;-0.34500
386.111;-0.33000
388.889;-0.32000
391.667;-0.33500
394.444;-0.33000
397.222;-0.34500
400.000;-0.33000
402.778;-0.33500
405.555;-0.33500
408.333;-0.34500
411.111;-0.34500
413.889;-0.35500
416.667;-0.34000
419.444;-0.34000
422.222;-0.33500
425.000;-0.33000
427.778;-0.35000
430.555;-0.35000
433.333;-0.34500
436.111;-0.33500
438.889;-0.33500
441.667;-0.33500
444.444;-0.35000
447.222;-0.35500
450.000;-0.35500
452.778;-0.34500
455.555;-0.34500
458.333;-0.33500
461.111;-0.35000
463.889;-0.36000
466.667;-0.36000
469.444;-0.36000
472.222;-0.36500
475.000;-0.36000
477.778;-0.37000
480.555;-0.38500
483.333;-0.37000
486.111;-0.36000
488.889;-0.35500
491.667;-0.36000
494.444;-0.37500
497.222;-0.37500
500.000;-0.36500
502.778;-0.36500
505.555;-0.36000
508.333;-0.36000
511.111;-0.36500
513.889;-0.37000
516.667;-0.35500
519.444;-0.33000
522.222;-0.32500
525.000;-0.32500
527.778;-0.33500
530.555;-0.34000
533.333;-0.31500
536.111;-0.30000
538.889;-0.30000
541.667;-0.29000
544.444;-0.29500
547.222;-0.29000
550.000;-0.28500
552.778;-0.27500
555.555;-0.25500
558.333;-0.25000
561.111;-0.25000
563.889;-0.26500
566.667;-0.25500
569.444;-0.24500
572.222;-0.23000
575.000;-0.24500
577.778;-0.24500
580.555;-0.25500
583.333;-0.25500
586.111;-0.24000
588.889;-0.25000
591.667;-0.25500
594.444;-0.24500
597.222;-0.25500
600.000;-0.25000
602.778;-0.25000
605.555;-0.26500
608.333;-0.26000
611.111;-0.26000
613.889;-0.26500
616.666;-0.27000
619.444;-0.26500
622.222;-0.26000
625.000;-0.27500
627.778;-0.28000
630.555;-0.29000
633.333;-0.27500
636.111;-0.27000
638.889;-0.26000
641.666;-0.28000
644.444;-0.28000
647.222;-0.28500
650.000;-0.27500
652.778;-0.27500
655.555;-0.26500
658.333;-0.27000
661.111;-0.28500
663.889;-0.29000
666.666;-0.28000
669.444;-0.27500
672.222;-0.28500
675.000;-0.28000
677.778;-0.30000
680.555;-0.30000
683.333;-0.30500
686.111;-0.29500
688.889;-0.30000
691.666;-0.31000
694.444;-0.31000
697.222;-0.30500
700.000;-0.29500
702.778;-0.28500
705.555;-0.28500
708.333;-0.29000
711.111;-0.29500
713.889;-0.31000
716.666;-0.29000
719.444;-0.29500
722.222;-0.30000
725.000;-0.30500
727.778;-0.31000
730.555;-0.32500
733.333;-0.31000
736.111;-0.30000
738.889;-0.29000
741.666;-0.31000
744.444;-0.32500
747.222;-0.33000
750.000;-0.31500
752.778;-0.30000
755.555;-0.30500
758.333;-0.31000
761.111;-0.32000
763.889;-0.33000
766.666;-0.32500
769.444;-0.31500
772.222;-0.31000
775.000;-0.30500
777.778;-0.30500
780.555;-0.31000
783.333;-0.30000
786.111;-0.30500
788.889;-0.29000
791.666;-0.30000
794.444;-0.30000
797.222;-0.30500
800.000;-0.30500
802.778;-0.29000
805.555;-0.28000
808.333;-0.29500
811.111;-0.30500
813.889;-0.31500
816.666;-0.30500
819.444;-0.29500
822.222;-0.29000
825.000;-0.28000
827.778;-0.27000
830.555;-0.27500
833.333;-0.27500
836.111;-0.27000
838.889;-0.25000
841.666;-0.25000
844.444;-0.25500
847.222;-0.22500
850.000;-0.22000
852.778;-0.20500
855.555;-0.20000
858.333;-0.20500
861.111;-0.21500
863.889;-0.23000
866.666;-0.22000
869.444;-0.22500
872.222;-0.22500
875.000;-0.22500
877.778;-0.23000
880.555;-0.23500
883.333;-0.24000
886.111;-0.23500
888.889;-0.22000
891.666;-0.21000
894.444;-0.20500
897.222;-0.24500
900.000;-0.28500
902.778;-0.28500
905.555;-0.30000
908.333;-0.31000
911.111;-0.33000
913.889;-0.33000
916.666;-0.32500
919.444;-0.31500
922.222;-0.32000
925.000;-0.31500
927.778;-0.32500
930.555;-0.34000
933.333;-0.34500
936.111;-0.34000
938.889;-0.34000
941.666;-0.35000
944.444;-0.34500
947.222;-0.35500
950.000;-0.33000
952.778;-0.33500
955.555;-0.33000
958.333;-0.32000
961.111;-0.34500
963.889;-0.35500
966.666;-0.34000
969.444;-0.33000
972.222;-0.32500
975.000;-0.33000
977.778;-0.35000
980.555;-0.36500
983.333;-0.36000
986.111;-0.38000
988.889;-0.42500
991.666;-0.44500
994.444;-0.47500
997.222;-0.51000
1000.000;-0.53500
1002.777;-0.50500
1005.555;-0.41500
1008.333;-0.30000
1011.111;-0.16000
1013.889;-0.01500
1016.666;0.23500
1019.444;0.49000
1022.222;0.72000
1025.000;0.87500
1027.777;0.94000
1030.555;0.90500
1033.333;0.75500
1036.111;0.49000
1038.889;0.16500
1041.666;-0.11000
1044.444;-0.27000
1047.222;-0.39000
1050.000;-0.45000
1052.777;-0.47500
1055.555;-0.45500
1058.333;-0.42500
1061.111;-0.39000
1063.889;-0.39000
1066.666;-0.38500
1069.444;-0.39000
1072.222;-0.38000
1075.000;-0.38000
1077.777;-0.38000
1080.555;-0.39500
1083.333;-0.38500
1086.111;-0.38500
1088.889;-0.38500
1091.666;-0.37500
1094.444;-0.39500
1097.222;-0.41000
1100.000;-0.41000
1102.777;-0.40000
1105.555;-0.39500
1108.333;-0.39000
1111.111;-0.40500
1113.889;-0.39500
1116.666;-0.38500
1119.444;-0.37500
1122.222;-0.39000
1125.000;-0.39000
1127.777;-0.40500
1130.555;-0.41000
1133.333;-0.41000
1136.111;-0.39000
1138.889;-0.39000
1141.666;-0.39500
1144.444;-0.40500
1147.222;-0.41500
1150.000;-0.40000
1152.777;-0.41000
1155.555;-0.40500
1158.333;-0.41000
1161.111;-0.41500
1163.889;-0.41000
1166.666;-0.40000
1169.444;-0.40000
1172.222;-0.39500
1175.000;-0.39000
1177.777;-0.40500
1180.555;-0.41000
1183.333;-0.39000
1186.111;-0.39000
1188.889;-0.38500
1191.666;-0.38500
1194.444;-0.41000
1197.222;-0.40500
1200.000;-0.39500
1202.777;-0.39000
1205.555;-0.37500
1208.333;-0.39000
1211.111;-0.39500
1213.889;-0.41000
1216.666;-0.40000
1219.444;-0.39000
1222.222;-0.39000
1225.000;-0.38500
1227.777;-0.40500
1230.555;-0.41500
1233.333;-0.41500
1236.111;-0.40000
1238.889;-0.39500
1241.666;-0.40500
1244.444;-0.41500
1247.222;-0.42000
1250.000;-0.42000
1252.777;-0.41000
1255.555;-0.41500
1258.333;-0.42500
1261.111;-0.42000
1263.889;-0.43500
1266.666;-0.43000
1269.444;-0.43000
1272.222;-0.42000
1275.000;-0.43000
1277.777;-0.45000
1280.555;-0.45500
1283.333;-0.45000
1286.111;-0.43500
1288.889;-0.44500
1291.666;-0.45000
1294.444;-0.45500
1297.222;-0.47000
1300.000;-0.46000
1302.777;-0.45500
1305.555;-0.45000
1308.333;-0.45500
1311.111;-0.47000
1313.889;-0.47500
1316.666;-0.46000
1319.444;-0.45000
1322.222;-0.44500
1325.000;-0.44000
1327.777;-0.43500
1330.555;-0.44000
1333.333;-0.41000
1336.111;-0.39500
1338.889;-0.37000
1341.666;-0.36500
1344.444;-0.36000
1347.222;-0.36500
1350.000;-0.34000
1352.777;-0.32500
1355.555;-0.31500
1358.333;-0.32000
1361.111;-0.33000
1363.889;-0.33000
1366.666;-0.32000
1369.444;-0.31000
1372.222;-0.30000
1375.000;-0.30000
1377.777;-0.32000
1380.555;-0.32000
1383.333;-0.31500
1386.111;-0.30500
1388.889;-0.30500
1391.666;-0.29500
1394.444;-0.32000
1397.222;-0.33000
1400.000;-0.30500
1402.777;-0.31000
1405.555;-0.30000
1408.333;-0.30000
1411.111;-0.32000
1413.888;-0.32500
1416.666;-0.31000
1419.444;-0.30500
1422.222;-0.31500
1425.000;-0.30500
1427.777;-0.31500
1430.555;-0.31500
1433.333;-0.31000
1436.111;-0.29500
1438.888;-0.29000
1441.666;-0.30500
1444.444;-0.31000
1447.222;-0.32000
1450.000;-0.31500
1452.777;-0.30000
1455.555;-0.31500
1458.333;-0.31500
1461.111;-0.31500
1463.888;-0.33000
1466.666;-0.31500
1469.444;-0.32000
1472.222;-0.31500
1475.000;-0.32500
1477.777;-0.33500
1480.555;-0.34000
1483.333;-0.33500
1486.111;-0.33500
1488.888;-0.33000
1491.666;-0.32500
1494.444;-0.34500
1497.222;-0.35000
1500.000;-0.34500
1502.777;-0.33500
1505.555;-0.33000
1508.333;-0.33000
1511.111;-0.34500
1513.888;-0.34500
1516.666;-0.34500
1519.444;-0.32000
1522.222;-0.33000
1525.000;-0.33500
1527.777;-0.34000
1530.555;-0.35500
1533.333;-0.33500
1536.111;-0.33000
1538.888;-0.33000
1541.666;-0.33500
1544.444;-0.35500
1547.222;-0.36000
1550.000;-0.35500
1552.777;-0.35000
1555.555;-0.34000
1558.333;-0.34500
1561.111;-0.34500
1563.888;-0.34500
1566.666;-0.34500
1569.444;-0.33000
1572.222;-0.33000
1575.000;-0.33500
1577.777;-0.34500
1580.555;-0.35000
1583.333;-0.35000
1586.111;-0.34000
1588.888;-0.33000
1591.666;-0.34500
1594.444;-0.34500
1597.222;-0.35500
1600.000;-0.35000
1602.777;-0.34000
1605.555;-0.33000
1608.333;-0.34000
1611.111;-0.34000
1613.888;-0.34000
1616.666;-0.33000
1619.444;-0.33500
1622.222;-0.33000
1625.000;-0.33500
1627.777;-0.34500
1630.555;-0.34500
1633.333;-0.34000
1636.111;-0.33000
1638.888;-0.31500
1641.666;-0.29500
1644.444;-0.30000
1647.222;-0.29500
1650.000;-0.28500
1652.777;-0.27500
1655.555;-0.26500
1658.333;-0.26500
1661.111;-0.26500
1663.888;-0.25500
1666.666;-0.25000
1669.444;-0.24000
1672.222;-0.22500
1675.000;-0.21500
1677.777;-0.24000
1680.555;-0.24500
1683.333;-0.24000
1686.111;-0.24500
1688.888;-0.23500
1691.666;-0.24500
1694.444;-0.25000
1697.222;-0.27500
1700.000;-0.27500
1702.777;-0.26500
1705.555;-0.25000
1708.333;-0.22500
1711.111;-0.22000
1713.888;-0.23000
1716.666;-0.26500
1719.444;-0.27000
1722.222;-0.28000
1725.000;-0.28500
1727.777;-0.30500
1730.555;-0.32000
1733.333;-0.34000
1736.111;-0.33000
1738.888;-0.33500
1741.666;-0.33500
1744.444;-0.35500
1747.222;-0.37000
1750.000;-0.36000
1752.777;-0.34500
1755.555;-0.35000
1758.333;-0.35500
1761.111;-0.36500
1763.888;-0.37500
1766.666;-0.38000
1769.444;-0.37000
1772.222;-0.36500
1775.000;-0.36500
1777.777;-0.38000
1780.555;-0.38500
1783.333;-0.38000
1786.111;-0.37500
1788.888;-0.35500
1791.666;-0.37000
1794.444;-0.39000
1797.222;-0.40500
1799.999;-0.41000
1802.777;-0.43500
1805.555;-0.46500
1808.333;-0.49000
1811.111;-0.52000
1813.888;-0.55500
1816.666;-0.57000
1819.444;-0.52500
1822.222;-0.40500
1824.999;-0.25000
1827.777;-0.09000
1830.555;0.12000
1833.333;0.41000
1836.111;0.69000
1838.888;0.88500
1841.666;0.96000
1844.444;0.85000
1847.222;0.52000
1849.999;0.05000
1852.777;-0.32000
1855.555;-0.50000
1858.333;-0.50500
1861.111;-0.44500
1863.888;-0.41500
1866.666;-0.39500
1869.444;-0.39000
1872.222;-0.39500
1874.999;-0.39000
1877.777;-0.39500
1880.555;-0.40500
1883.333;-0.39500
1886.111;-0.40500
1888.888;-0.39000
1891.666;-0.39500
1894.444;-0.39500
1897.222;-0.41000
1899.999;-0.40500
1902.777;-0.40000
1905.555;-0.40000
1908.333;-0.41500
1911.111;-0.40500
1913.888;-0.42000
1916.666;-0.41500
1919.444;-0.40500
1922.222;-0.40500
1924.999;-0.42000
1927.777;-0.42000
1930.555;-0.43500
1933.333;-0.42000
1936.111;-0.41000
1938.888;-0.41000
1941.666;-0.40500
1944.444;-0.42500
1947.222;-0.43000
1949.999;-0.42000
1952.777;-0.41500
1955.555;-0.41000
1958.333;-0.41000
1961.111;-0.42500
1963.888;-0.42000
1966.666;-0.40000
1969.444;-0.39500
1972.222;-0.40000
1974.999;-0.40000
1977.777;-0.39500
1980.555;-0.41500
1983.333;-0.40500
1986.111;-0.39000
1988.888;-0.40000
1991.666;-0.40000
1994.444;-0.41500
1997.222;-0.42500
1999.999;-0.42500
2002.777;-0.41500
2005.555;-0.41500
2008.333;-0.41000
2011.111;-0.42500
2013.888;-0.42500
2016.666;-0.42000
2019.444;-0.41500
2022.222;-0.40000
2024.999;-0.40000
2027.777;-0.41000
2030.555;-0.42500
2033.333;-0.41000
2036.111;-0.40500
2038.888;-0.39500
2041.666;-0.40000
2044.444;-0.40000
2047.222;-0.40500
2049.999;-0.38500
2052.777;-0.40000
2055.555;-0.39000
2058.333;-0.39000
2061.111;-0.40000
2063.888;-0.41500
2066.666;-0.40500
2069.444;-0.40500
2072.222;-0.41000
2074.999;-0.41500
2077.777;-0.42000
2080.555;-0.42000
2083.333;-0.42500
2086.111;-0.41500
2088.888;-0.41500
2091.666;-0.41000
2094.444;-0.43500
2097.222;-0.43000
2099.999;-0.43500
2102.777;-0.42000
2105.555;-0.42000
2108.333;-0.42000
2111.111;-0.42000
2113.888;-0.42500
2116.666;-0.42500
2119.444;-0.41500
2122.222;-0.39500
2124.999;-0.39500
2127.777;-0.39000
2130.555;-0.37500
2133.333;-0.36000
2136.111;-0.34000
2138.888;-0.33500
2141.666;-0.33000
2144.444;-0.33500
2147.222;-0.33500
2149.999;-0.32500
2152.777;-0.32000
2155.555;-0.30500
2158.333;-0.30500
2161.111;-0.31500
2163.888;-0.31000
2166.666;-0.30500
2169.444;-0.30000
2172.222;-0.30000
2174.999;-0.30000
2177.777;-0.31000
2180.555;-0.31000
2183.333;-0.31000
2186.110;-0.31500
2188.888;-0.30000
2191.666;-0.30500
2194.444;-0.31500
2197.222;-0.32000
2199.999;-0.32500
2202.777;-0.31000
2205.555;-0.30500
2208.333;-0.30500
2211.110;-0.32000
2213.888;-0.32500
2216.666;-0.30500
2219.444;-0.31000
2222.222;-0.29500
2224.999;-0.31000
2227.777;-0.32500
2230.555;-0.33000
2233.333;-0.32000
2236.110;-0.32000
2238.888;-0.32000
2241.666;-0.32500
2244.444;-0.35000
2247.222;-0.35000
2249.999;-0.34000
2252.777;-0.33500
2255.555;-0.33000
2258.333;-0.33500
2261.110;-0.34000
2263.888;-0.36000
2266.666;-0.35000
2269.444;-0.35000
2272.222;-0.35500
2274.999;-0.36000
2277.777;-0.35500
2280.555;-0.36500
2283.333;-0.35500
2286.110;-0.35000
2288.888;-0.34000
2291.666;-0.35500
2294.444;-0.35000
2297.222;-0.36500
2299.999;-0.36500
2302.777;-0.35000
2305.555;-0.35500
2308.333;-0.35000
2311.110;-0.37000
2313.888;-0.38000
2316.666;-0.37000
2319.444;-0.36000
2322.222;-0.36500
2324.999;-0.36000
2327.777;-0.36500
2330.555;-0.38000
2333.333;-0.37000
2336.110;-0.36500
2338.888;-0.35000
2341.666;-0.35000
2344.444;-0.35000
2347.222;-0.37000
2349.999;-0.36500
2352.777;-0.34500
2355.555;-0.34500
2358.333;-0.34000
2361.110;-0.35500
2363.888;-0.36500
2366.666;-0.36000
2369.444;-0.35500
2372.222;-0.35500
2374.999;-0.35500
2377.777;-0.37500
2380.555;-0.38500
2383.333;-0.35500
2386.110;-0.36000
2388.888;-0.35500
2391.666;-0.36000
2394.444;-0.36000
2397.222;-0.37000
2399.999;-0.36000
2402.777;-0.34500
2405.555;-0.35500
2408.333;-0.34500
2411.110;-0.34500
2413.888;-0.34500
2416.666;-0.34000
2419.444;-0.31000
2422.222;-0.30500
2424.999;-0.30500
2427.777;-0.31000
2430.555;-0.30500
2433.333;-0.29000
2436.110;-0.28500
2438.888;-0.27500
2441.666;-0.28000
2444.444;-0.28000
2447.222;-0.27500
2449.999;-0.26500
2452.777;-0.25500
2455.555;-0.24500
2458.333;-0.26000
2461.110;-0.26500
2463.888;-0.27500
2466.666;-0.28000
2469.444;-0.26500
2472.222;-0.27000
2474.999;-0.27500
2477.777;-0.28000
2480.555;-0.27500
2483.333;-0.28000
2486.110;-0.27500
2488.888;-0.26500
2491.666;-0.25500
2494.444;-0.24000
2497.222;-0.26000
2499.999;-0.28000
2502.777;-0.31000
2505.555;-0.31000
2508.333;-0.34500
2511.110;-0.36000
2513.888;-0.38000
2516.666;-0.38500
2519.444;-0.38000
2522.222;-0.37000
2524.999;-0.37500
2527.777;-0.38500
2530.555;-0.39000
2533.333;-0.39500
2536.110;-0.38500
2538.888;-0.38500
2541.666;-0.38500
2544.444;-0.39500
2547.222;-0.40500
2549.999;-0.40000
2552.777;-0.37500
2555.555;-0.37500
2558.333;-0.39000
2561.110;-0.39500
2563.888;-0.41500
2566.666;-0.40500
2569.444;-0.40000
2572.222;-0.39000
2574.999;-0.40500
2577.777;-0.42500
2580.555;-0.46000
2583.333;-0.47500
2586.110;-0.50500
2588.888;-0.51000
2591.666;-0.52500
2594.444;-0.54000
2597.221;-0.60000
2599.999;-0.64500
2602.777;-0.63000
2605.555;-0.57500
2608.333;-0.49500
2611.110;-0.38500
2613.888;-0.27000
2616.666;-0.11500
2619.444;0.09000
2622.221;0.37000
2624.999;0.63500
2627.777;0.81000
2630.555;0.86000
2633.333;0.77000
2636.110;0.47500
2638.888;0.06500
2641.666;-0.30500
2644.444;-0.50000
2647.221;-0.52000
2649.999;-0.47500
2652.777;-0.41000
2655.555;-0.39000
2658.333;-0.39000
2661.110;-0.40000
2663.888;-0.41000
2666.666;-0.40500
2669.444;-0.38500
2672.221;-0.39000
2674.999;-0.39500
2677.777;-0.40500
2680.555;-0.41000
2683.333;-0.40500
2686.110;-0.40000
2688.888;-0.39000
2691.666;-0.39500
2694.444;-0.41000
2697.221;-0.41500
2699.999;-0.41000
2702.777;-0.39500
2705.555;-0.40500
2708.333;-0.41000
2711.110;-0.40500
2713.888;-0.40500
2716.666;-0.41000
2719.444;-0.39000
2722.221;-0.38500
2724.999;-0.39000
2727.777;-0.39500
2730.555;-0.40000
2733.333;-0.40000
2736.110;-0.40000
2738.888;-0.39500
2741.666;-0.39500
2744.444;-0.40500
2747.221;-0.40500
2749.999;-0.40000
2752.777;-0.39500
2755.555;-0.38500
2758.333;-0.37500
2761.110;-0.38500
2763.888;-0.39500
2766.666;-0.39000
2769.444;-0.38500
2772.221;-0.37500
2774.999;-0.38500
2777.777;-0.39500
2780.555;-0.39500
2783.333;-0.38500
2786.110;-0.37500
2788.888;-0.37500
2791.666;-0.38500
2794.444;-0.39500
2797.221;-0.39000
2799.999;-0.39000
2802.777;-0.36500
2805.555;-0.37500
2808.333;-0.38500
2811.110;-0.39500
2813.888;-0.38000
2816.666;-0.38500
2819.444;-0.37500
2822.221;-0.38000
2824.999;-0.39000
2827.777;-0.38000
2830.555;-0.37500
2833.333;-0.37500
2836.110;-0.37500
2838.888;-0.37500
2841.666;-0.38000
2844.444;-0.39000
2847.221;-0.39000
2849.999;-0.36500
2852.777;-0.37000
2855.555;-0.37500
2858.333;-0.38500
2861.110;-0.39000
2863.888;-0.39000
2866.666;-0.37500
2869.444;-0.36500
2872.221;-0.38500
2874.999;-0.38000
2877.777;-0.39000
2880.555;-0.37500
2883.333;-0.37500
2886.110;-0.36500
2888.888;-0.37000
2891.666;-0.38500
2894.444;-0.39500
2897.221;-0.38500
2899.999;-0.38500
2902.777;-0.37000
2905.555;-0.36500
2908.333;-0.37000
2911.110;-0.37500
2913.888;-0.35000
2916.666;-0.33500
2919.444;-0.32000
2922.221;-0.31500
2924.999;-0.32000
2927.777;-0.32500
2930.555;-0.31500
2933.333;-0.29500
2936.110;-0.28500
2938.888;-0.30000
2941.666;-0.29500
2944.444;-0.28500
2947.221;-0.28500
2949.999;-0.28000
2952.777;-0.27000
2955.555;-0.28000
2958.333;-0.29000
2961.110;-0.29500
2963.888;-0.29500
2966.666;-0.29000
2969.444;-0.28000
2972.221;-0.29000
2974.999;-0.29500
2977.777;-0.31000
2980.555;-0.29500
2983.332;-0.28500
2986.110;-0.28000
2988.888;-0.27500
2991.666;-0.29500
2994.444;-0.30500
2997.221;-0.30000
2999.999;-0.29500
3002.777;-0.29500
3005.555;-0.28500
3008.332;-0.30000
3011.110;-0.30500
3013.888;-0.30000
3016.666;-0.29500
3019.444;-0.30000
3022.221;-0.30500
3024.999;-0.31500
3027.777;-0.31000
3030.555;-0.31500
3033.332;-0.29500
3036.110;-0.30000
3038.888;-0.31000
3041.666;-0.33000
3044.444;-0.34000
3047.221;-0.33000
3049.999;-0.32000
3052.777;-0.32000
3055.555;-0.31500
3058.332;-0.32500
3061.110;-0.33500
3063.888;-0.33000
3066.666;-0.31500
3069.444;-0.32000
3072.221;-0.32000
3074.999;-0.33000
3077.777;-0.34500
3080.555;-0.34000
3083.332;-0.33500
3086.110;-0.33000
3088.888;-0.33500
3091.666;-0.34500
3094.444;-0.35000
3097.221;-0.34500
3099.999;-0.34000
3102.777;-0.33500
3105.555;-0.33500
3108.332;-0.33000
3111.110;-0.33500
3113.888;-0.34000
3116.666;-0.33500
3119.444;-0.32000
3122.221;-0.34000
3124.999;-0.34000
3127.777;-0.35000
3130.555;-0.36500
3133.332;-0.36000
3136.110;-0.34500
3138.888;-0.34500
3141.666;-0.35000
3144.444;-0.35000
3147.221;-0.35000
3149.999;-0.34000
3152.777;-0.34000
3155.555;-0.34500
3158.332;-0.34500
3161.110;-0.38000
3163.888;-0.36000
3166.666;-0.36000
3169.444;-0.34500
3172.221;-0.34500
3174.999;-0.35000
3177.777;-0.35500
3180.555;-0.34500
3183.332;-0.33000
3186.110;-0.33000
3188.888;-0.33500
3191.666;-0.33500
3194.444;-0.34000
3197.221;-0.33000
3199.999;-0.32000
3202.777;-0.29000
3205.555;-0.29000
3208.332;-0.30000
3211.110;-0.30500
3213.888;-0.28500
3216.666;-0.28000
3219.444;-0.27500
3222.221;-0.28000
3224.999;-0.27500
3227.777;-0.27000
3230.555;-0.26500
3233.332;-0.25000
3236.110;-0.23000
3238.888;-0.24500
3241.666;-0.24000
3244.444;-0.25500
3247.221;-0.25500
3249.999;-0.24500
3252.777;-0.23500
3255.555;-0.25500
3258.332;-0.26500
3261.110;-0.26000
3263.888;-0.25500
3266.666;-0.27000
3269.444;-0.26500
3272.221;-0.28000
3274.999;-0.25500
3277.777;-0.25000
3280.555;-0.24500
3283.332;-0.26500
3286.110;-0.28000
3288.888;-0.30000
3291.666;-0.31500
3294.444;-0.32500
3297.221;-0.33500
3299.999;-0.34500
3302.777;-0.33000
3305.555;-0.33500
3308.332;-0.34500
3311.110;-0.36000
3313.888;-0.35000
3316.666;-0.34000
3319.444;-0.33500
3322.221;-0.34500
3324.999;-0.36000
3327.777;-0.36500
3330.555;-0.37500
3333.332;-0.37000
3336.110;-0.36500
3338.888;-0.36500
3341.666;-0.38000
3344.444;-0.37500
3347.221;-0.37500
3349.999;-0.36500
3352.777;-0.37000
3355.555;-0.36000
3358.332;-0.37000
3361.110;-0.38000
3363.888;-0.36500
3366.666;-0.36000
3369.444;-0.35000
3372.221;-0.35500
3374.999;-0.37000
3377.777;-0.38500
3380.555;-0.39500
3383.332;-0.43000
3386.110;-0.44500
3388.888;-0.48500
3391.666;-0.51500
3394.443;-0.56500
3397.221;-0.55500
3399.999;-0.47500
3402.777;-0.35500
3405.555;-0.22000
3408.332;-0.05500
3411.110;0.18500
3413.888;0.47500
3416.666;0.70500
3419.443;0.82000
3422.221;0.78000
3424.999;0.53500
3427.777;0.14500
3430.555;-0.20000
3433.332;-0.42000
3436.110;-0.50000
3438.888;-0.48000
3441.666;-0.45000
3444.443;-0.41000
3447.221;-0.40000
3449.999;-0.39000
3452.777;-0.39000
3455.555;-0.40000
3458.332;-0.40500
3461.110;-0.42500
3463.888;-0.42500
3466.666;-0.40500
3469.443;-0.39500
3472.221;-0.40500
3474.999;-0.40500
3477.777;-0.41500
3480.555;-0.40500
3483.332;-0.38500
3486.110;-0.39000
3488.888;-0.39500
3491.666;-0.39500
3494.443;-0.39500
3497.221;-0.39500
3499.999;-0.38500
3502.777;-0.39000
3505.555;-0.39000
3508.332;-0.40000
3511.110;-0.42500
3513.888;-0.41000
3516.666;-0.40000
3519.443;-0.39500
3522.221;-0.40000
3524.999;-0.40500
3527.777;-0.42500
3530.555;-0.41500
3533.332;-0.40500
3536.110;-0.40500
3538.888;-0.40500
3541.666;-0.41000
3544.443;-0.41500
3547.221;-0.40500
3549.999;-0.42000
3552.777;-0.40500
3555.555;-0.41000
3558.332;-0.41000
3561.110;-0.42000
3563.888;-0.41500
3566.666;-0.40500
3569.443;-0.39500
3572.221;-0.39500
3574.999;-0.39500
3577.777;-0.40000
3580.555;-0.39500
3583.332;-0.39500
3586.110;-0.40500
3588.888;-0.40500
3591.666;-0.42000
3594.443;-0.43500
3597.221;-0.41500
3599.999;-0.40500
3602.777;-0.39500
3605.555;-0.39000
3608.332;-0.41500
3611.110;-0.40500
3613.888;-0.40500
3616.666;-0.40000
3619.443;-0.39500
3622.221;-0.39500
3624.999;-0.40500
3627.777;-0.42000
3630.555;-0.41500
3633.332;-0.40000
3636.110;-0.39500
3638.888;-0.40000
3641.666;-0.40500
3644.443;-0.42500
3647.221;-0.42500
3649.999;-0.42500
3652.777;-0.42000
3655.555;-0.42500
3658.332;-0.45000
3661.110;-0.44500
3663.888;-0.45000
3666.666;-0.43500
3669.443;-0.44500
3672.221;-0.47000
3674.999;-0.45500
3677.777;-0.46000
3680.555;-0.44000
3683.332;-0.43500
3686.110;-0.42500
3688.888;-0.43000
3691.666;-0.44500
3694.443;-0.45000
3697.221;-0.44500
3699.999;-0.43000
3702.777;-0.42000
3705.555;-0.41000
3708.332;-0.42500
3711.110;-0.42000
3713.888;-0.40500
3716.666;-0.38000
3719.443;-0.37000
3722.221;-0.36500
3724.999;-0.36500
3727.777;-0.36500
3730.555;-0.34500
3733.332;-0.33000
3736.110;-0.31500
3738.888;-0.30500
3741.666;-0.30500
3744.443;-0.32000
3747.221;-0.31000
3749.999;-0.31000
3752.777;-0.30500
3755.555;-0.31000
3758.332;-0.31500
3761.110;-0.32000
3763.888;-0.31500
3766.666;-0.30500
3769.443;-0.30500
3772.221;-0.29500
3774.999;-0.31000
3777.777;-0.32000
3780.554;-0.31000
3783.332;-0.31500
3786.110;-0.29500
3788.888;-0.30000
3791.666;-0.30500
3794.443;-0.30000
3797.221;-0.28500
3799.999;-0.28000
3802.777;-0.29000
3805.554;-0.29500
3808.332;-0.30500
3811.110;-0.32500
3813.888;-0.30500
3816.666;-0.30000
3819.443;-0.30000
3822.221;-0.31500
3824.999;-0.32500
3827.777;-0.33500
3830.554;-0.32500
3833.332;-0.31500
3836.110;-0.32000
3838.888;-0.33500
3841.666;-0.33000
3844.443;-0.34000
3847.221;-0.32500
3849.999;-0.32500
3852.777;-0.32000
3855.554;-0.31500
3858.332;-0.33500
3861.110;-0.33500
3863.888;-0.34500
3866.666;-0.33500
3869.443;-0.32500
3872.221;-0.33000
3874.999;-0.31500
3877.777;-0.33500
3880.554;-0.33000
3883.332;-0.33000
3886.110;-0.33000
3888.888;-0.33000
3891.666;-0.33500
3894.443;-0.34000
3897.221;-0.33000
3899.999;-0.32000
3902.777;-0.31500
3905.554;-0.32500
3908.332;-0.33500
3911.110;-0.35500
3913.888;-0.34500
3916.666;-0.34000
3919.443;-0.33500
3922.221;-0.32000
3924.999;-0.32500
3927.777;-0.35000
3930.554;-0.33000
3933.332;-0.31500
3936.110;-0.31500
3938.888;-0.33000
3941.666;-0.33000
3944.443;-0.33500
3947.221;-0.33500
3949.999;-0.33000
3952.777;-0.33000
3955.554;-0.33000
3958.332;-0.34000
3961.110;-0.34000
3963.888;-0.34000
3966.666;-0.32500
3969.443;-0.32500
3972.221;-0.32500
3974.999;-0.34500
3977.777;-0.35000
3980.554;-0.34000
3983.332;-0.33000
3986.110;-0.32000
3988.888;-0.31000
3991.666;-0.30500
3994.443;-0.30500
3997.221;-0.27500
3999.999;-0.27000
4002.777;-0.25500
4005.554;-0.26000
4008.332;-0.26500
4011.110;-0.26000
4013.888;-0.25000
4016.666;-0.23500
4019.443;-0.23500
4022.221;-0.22000
4024.999;-0.23500
4027.777;-0.23500
4030.554;-0.22000
4033.332;-0.23000
4036.110;-0.22500
4038.888;-0.23500
4041.666;-0.24500
4044.443;-0.25500
4047.221;-0.24000
4049.999;-0.23000
4052.777;-0.23000
4055.554;-0.25000
4058.332;-0.25500
4061.110;-0.25000
4063.888;-0.23000
4066.666;-0.20500
4069.443;-0.19500
4072.221;-0.21000
4074.999;-0.23000
4077.777;-0.27000
4080.554;-0.27000
4083.332;-0.28500
4086.110;-0.28500
4088.888;-0.31000
4091.666;-0.33000
4094.443;-0.34000
4097.221;-0.34000
4099.999;-0.34500
4102.777;-0.35000
4105.554;-0.35000
4108.332;-0.34000
4111.110;-0.35500
4113.888;-0.34500
4116.666;-0.34000
4119.443;-0.34000
4122.221;-0.34500
4124.999;-0.35500
4127.777;-0.37000
4130.554;-0.35500
4133.332;-0.37000
4136.110;-0.34500
4138.888;-0.34000
4141.666;-0.36000
4144.443;-0.38000
4147.221;-0.36000
4149.999;-0.34500
4152.777;-0.35000
4155.554;-0.35000
4158.332;-0.35500
4161.110;-0.38000
4163.888;-0.39000
4166.666;-0.39500
4169.443;-0.42500
4172.221;-0.45500
4174.999;-0.47500
4177.777;-0.51000
4180.554;-0.54500
4183.332;-0.54000
4186.110;-0.49500
4188.888;-0.40500
4191.665;-0.29500
4194.443;-0.16000
4197.221;0.04000
4199.999;0.31500
4202.777;0.59500
4205.554;0.80000
4208.332;0.88500
4211.110;0.79500
4213.888;0.52000
4216.665;0.13000
4219.443;-0.21500
4222.221;-0.42500
4224.999;-0.50000
4227.777;-0.49000
4230.554;-0.45000
4233.332;-0.40000
4236.110;-0.39000
4238.888;-0.39500
4241.665;-0.39500
4244.443;-0.40000
4247.221;-0.39000
4249.999;-0.38000
4252.777;-0.38500
4255.554;-0.38500
4258.332;-0.40000
4261.110;-0.41000
4263.888;-0.41000
4266.665;-0.39000
4269.443;-0.39000
4272.221;-0.40500
4274.999;-0.40500
4277.777;-0.41500
4280.554;-0.41000
4283.332;-0.39500
4286.110;-0.39500
4288.888;-0.40000
4291.665;-0.41500
4294.443;-0.41500
4297.221;-0.41500
4299.999;-0.40000
4302.777;-0.39000
4305.554;-0.39000
4308.332;-0.41000
4311.110;-0.41500
4313.888;-0.40500
4316.665;-0.39500
4319.443;-0.39500
4322.221;-0.39500
4324.999;-0.40500
4327.777;-0.41000
4330.554;-0.41000
4333.332;-0.40000
4336.110;-0.39000
4338.888;-0.39500
4341.665;-0.41000
4344.443;-0.42500
4347.221;-0.41500
4349.999;-0.40500
4352.777;-0.41000
4355.554;-0.40500
4358.332;-0.41500
4361.110;-0.42500
4363.888;-0.42500
4366.665;-0.41000
4369.443;-0.39500
4372.221;-0.39000
4374.999;-0.40000
4377.777;-0.41000
4380.554;-0.41000
4383.332;-0.40000
4386.110;-0.39000
4388.888;-0.41000
4391.665;-0.42000
4394.443;-0.42000
4397.221;-0.41500
4399.999;-0.41500
4402.777;-0.40500
4405.554;-0.42000
4408.332;-0.41500
4411.110;-0.42500
4413.888;-0.41000
4416.665;-0.40000
4419.443;-0.40500
4422.221;-0.40000
4424.999;-0.40000
4427.777;-0.41000
4430.554;-0.40000
4433.332;-0.39500
4436.110;-0.39500
4438.888;-0.40500
4441.665;-0.41000
4444.443;-0.42500
4447.221;-0.42500
4449.999;-0.41000
4452.777;-0.41000
4455.554;-0.42000
4458.332;-0.43000
4461.110;-0.44500
4463.888;-0.44000
4466.665;-0.43500
4469.443;-0.43000
4472.221;-0.43000
4474.999;-0.45000
4477.777;-0.44500
4480.554;-0.44500
4483.332;-0.43500
4486.110;-0.43500
4488.888;-0.44500
4491.665;-0.44000
4494.443;-0.45000
4497.221;-0.43000
4499.999;-0.43000
4502.777;-0.41500
4505.554;-0.40000
4508.332;-0.40000
4511.110;-0.38500
4513.888;-0.36500
4516.665;-0.33500
4519.443;-0.33000
4522.221;-0.32500
4524.999;-0.33000
4527.777;-0.33000
4530.554;-0.31000
4533.332;-0.29500
4536.110;-0.28500
4538.888;-0.29000
4541.665;-0.29000
4544.443;-0.31000
4547.221;-0.29500
4549.999;-0.28500
4552.777;-0.28000
4555.554;-0.30000
4558.332;-0.29000
4561.110;-0.29500
4563.888;-0.29000
4566.665;-0.28000
4569.443;-0.27500
4572.221;-0.27500
4574.999;-0.29000
4577.776;-0.29000
4580.554;-0.28500
4583.332;-0.27000
4586.110;-0.27000
4588.888;-0.27000
4591.665;-0.27500
4594.443;-0.29000
4597.221;-0.28500
4599.999;-0.27500
4602.776;-0.27500
4605.554;-0.29000
4608.332;-0.29500
4611.110;-0.30500
4613.888;-0.29500
4616.665;-0.29500
4619.443;-0.28500
4622.221;-0.29000
4624.999;-0.30000
4627.776;-0.30500
4630.554;-0.31000
4633.332;-0.29500
4636.110;-0.30000
4638.888;-0.30500
4641.665;-0.31000
4644.443;-0.32500
4647.221;-0.32500
4649.999;-0.31500
4652.776;-0.31000
4655.554;-0.31500
4658.332;-0.31500
4661.110;-0.32500
4663.888;-0.32000
4666.665;-0.31000
4669.443;-0.32000
4672.221;-0.31500
4674.999;-0.33000
4677.776;-0.33000
4680.554;-0.32000
4683.332;-0.31000
4686.110;-0.31000
4688.888;-0.31000
4691.665;-0.33000
4694.443;-0.33500
4697.221;-0.33000
4699.999;-0.32000
4702.776;-0.32500
4705.554;-0.32500
4708.332;-0.33000
4711.110;-0.33500
4713.888;-0.33000
4716.665;-0.32500
4719.443;-0.32500
4722.221;-0.32000
4724.999;-0.32500
4727.776;-0.33000
4730.554;-0.32500
4733.332;-0.31500
4736.110;-0.30500
4738.888;-0.32500
4741.665;-0.31500
4744.443;-0.33500
4747.221;-0.33000
4749.999;-0.31000
4752.776;-0.32000
4755.554;-0.33000
4758.332;-0.33000
4761.110;-0.33500
4763.888;-0.33000
4766.665;-0.33000
4769.443;-0.32000
4772.221;-0.32000
4774.999;-0.33000
4777.776;-0.33000
4780.554;-0.32500
4783.332;-0.31500
4786.110;-0.31500
4788.888;-0.31500
4791.665;-0.33000
4794.443;-0.33000
4797.221;-0.32000
4799.999;-0.31500
4802.776;-0.30500
4805.554;-0.30500
4808.332;-0.29500
4811.110;-0.31500
4813.888;-0.30000
4816.665;-0.27500
4819.443;-0.25500
4822.221;-0.25500
4824.999;-0.26000
4827.776;-0.26500
4830.554;-0.25500
4833.332;-0.23500
4836.110;-0.23000
4838.888;-0.22500
4841.665;-0.22000
4844.443;-0.22000
4847.221;-0.21500
4849.999;-0.20000
4852.776;-0.20500
4855.554;-0.20500
4858.332;-0.22500
4861.110;-0.23500
4863.888;-0.24000
4866.665;-0.23000
4869.443;-0.21500
4872.221;-0.24000
4874.999;-0.24000
4877.776;-0.25000
4880.554;-0.23500
4883.332;-0.21000
4886.110;-0.20000
4888.888;-0.22000
4891.665;-0.25500
4894.443;-0.27500
4897.221;-0.28500
4899.999;-0.30000
4902.776;-0.30500
4905.554;-0.32000
4908.332;-0.33000
4911.110;-0.32500
4913.888;-0.32000
4916.665;-0.33000
4919.443;-0.33000
4922.221;-0.33500
4924.999;-0.34000
4927.776;-0.34500
4930.554;-0.34000
4933.332;-0.33500
4936.110;-0.32000
4938.888;-0.32500
4941.665;-0.33500
4944.443;-0.34500
4947.221;-0.34500
4949.999;-0.34500
4952.776;-0.33500
4955.554;-0.34000
4958.332;-0.34500
4961.110;-0.35500
4963.887;-0.34000
4966.665;-0.34000
4969.443;-0.34000
4972.221;-0.34000
4974.999;-0.34500
4977.776;-0.35500
4980.554;-0.36500
4983.332;-0.37000
4986.110;-0.40500
4988.887;-0.44500
4991.665;-0.48000
4994.443;-0.49500
4997.221;-0.52000
4999.999;-0.53500
5002.776;-0.50500
5005.554;-0.41500
5008.332;-0.28000
5011.110;-0.13500
5013.887;0.06500
5016.665;0.30000
5019.443;0.58000
5022.221;0.81000
5024.999;0.94500
5027.776;0.92000
5030.554;0.77500
5033.332;0.44500
5036.110;0.02000
5038.887;-0.29500
5041.665;-0.44500
5044.443;-0.47000
5047.221;-0.42500
5049.999;-0.38000
5052.776;-0.36000
5055.554;-0.36000
5058.332;-0.37000
5061.110;-0.38000
5063.887;-0.38000
5066.665;-0.37500
5069.443;-0.37000
5072.221;-0.36500
5074.999;-0.37000
5077.776;-0.38500
5080.554;-0.38500
5083.332;-0.37500
5086.110;-0.37000
5088.887;-0.37000
5091.665;-0.38500
5094.443;-0.39500
5097.221;-0.38500
5099.999;-0.38500
5102.776;-0.39000
5105.554;-0.38500
5108.332;-0.39500
5111.110;-0.41000
5113.887;-0.40000
5116.665;-0.39500
5119.443;-0.38000
5122.221;-0.39500
5124.999;-0.39500
5127.776;-0.40000
5130.554;-0.40000
5133.332;-0.39500
5136.110;-0.39000
5138.887;-0.39000
5141.665;-0.39500
5144.443;-0.40500
5147.221;-0.39000
5149.999;-0.38500
5152.776;-0.37500
5155.554;-0.37500
5158.332;-0.38000
5161.110;-0.39000
5163.887;-0.38500
5166.665;-0.37000
5169.443;-0.37000
5172.221;-0.37000
5174.999;-0.37500
5177.776;-0.38500
5180.554;-0.37000
5183.332;-0.39000
5186.110;-0.37500
5188.887;-0.37000
5191.665;-0.38000
5194.443;-0.39000
5197.221;-0.39000
5199.999;-0.38500
5202.776;-0.37500
5205.554;-0.37500
5208.332;-0.38500
5211.110;-0.39500
5213.887;-0.39000
5216.665;-0.38500
5219.443;-0.37500
5222.221;-0.38000
5224.999;-0.38500
5227.776;-0.39000
5230.554;-0.38000
5233.332;-0.38000
5236.110;-0.37000
5238.887;-0.37000
5241.665;-0.36500
5244.443;-0.39000
5247.221;-0.36500
5249.999;-0.36500
5252.776;-0.36000
5255.554;-0.37500
5258.332;-0.38000
5261.110;-0.40000
5263.887;-0.39000
5266.665;-0.37500
5269.443;-0.37500
5272.221;-0.37000
5274.999;-0.38500
5277.776;-0.39000
5280.554;-0.39000
5283.332;-0.39000
5286.110;-0.39000
5288.887;-0.37500
5291.665;-0.38500
5294.443;-0.39500
5297.221;-0.38000
5299.999;-0.37000
5302.776;-0.37500
5305.554;-0.37500
5308.332;-0.39000
5311.110;-0.40500
5313.887;-0.37500
5316.665;-0.37000
5319.443;-0.36000
5322.221;-0.37500
5324.999;-0.38500
5327.776;-0.38000
5330.554;-0.37000
5333.332;-0.36000
5336.110;-0.34500
5338.887;-0.34500
5341.665;-0.33000
5344.443;-0.33000
5347.221;-0.31500
5349.999;-0.31000
5352.776;-0.29500
5355.554;-0.28500
5358.332;-0.28500
5361.110;-0.29500
5363.887;-0.28000
5366.665;-0.27000
5369.443;-0.28000
5372.221;-0.28000
5374.998;-0.28000
5377.776;-0.29000
5380.554;-0.29000
5383.332;-0.28000
5386.110;-0.27500
5388.887;-0.28000
5391.665;-0.28500
5394.443;-0.29000
5397.221;-0.29000
5399.998;-0.28000
5402.776;-0.28000
5405.554;-0.28500
5408.332;-0.29000
5411.110;-0.30000
5413.887;-0.29500
5416.665;-0.28500
5419.443;-0.28000
5422.221;-0.28500
5424.998;-0.28500
5427.776;-0.29500
5430.554;-0.28500
5433.332;-0.28000
5436.110;-0.27500
5438.887;-0.28000
5441.665;-0.29000
5444.443;-0.31000
5447.221;-0.30500
5449.998;-0.28500
5452.776;-0.27000
5455.554;-0.27000
5458.332;-0.27500
5461.110;-0.28500
5463.887;-0.28500
5466.665;-0.27000
5469.443;-0.26500
5472.221;-0.26500
5474.998;-0.26500
5477.776;-0.28000
5480.554;-0.26500
5483.332;-0.24500
5486.110;-0.23500
5488.887;-0.23500
5491.665;-0.25000
5494.443;-0.25000
5497.221;-0.24500
5499.998;-0.21500
5502.776;-0.22000
5505.554;-0.24500
5508.332;-0.25500
5511.110;-0.23000
5513.887;-0.20500
5516.665;-0.21000
5519.443;-0.22000
5522.221;-0.23000
5524.998;-0.24000
5527.776;-0.24000
5530.554;-0.24500
5533.332;-0.25000
5536.110;-0.27000
5538.887;-0.28500
5541.665;-0.31500
5544.443;-0.32000
5547.221;-0.32000
5549.998;-0.31000
5552.776;-0.33000
5555.554;-0.34000
5558.332;-0.34500
5561.110;-0.36000
5563.887;-0.36500
5566.665;-0.36000
5569.443;-0.35000
5572.221;-0.35500
5574.998;-0.37500
5577.776;-0.38500
5580.554;-0.37500
5583.332;-0.37000
5586.110;-0.36500
5588.887;-0.36500
5591.665;-0.37000
5594.443;-0.38000
5597.221;-0.36000
5599.998;-0.35000
5602.776;-0.35500
5605.554;-0.35500
5608.332;-0.35000
5611.110;-0.36500
5613.887;-0.35000
5616.665;-0.35000
5619.443;-0.34000
5622.221;-0.35500
5624.998;-0.35000
5627.776;-0.37500
5630.554;-0.36500
5633.332;-0.37500
5636.110;-0.40000
5638.887;-0.43000
5641.665;-0.47500
5644.443;-0.52000
5647.221;-0.52000
5649.998;-0.55000
5652.776;-0.57000
5655.554;-0.54000
5658.332;-0.44500
5661.110;-0.30500
5663.887;-0.14000
5666.665;0.02500
5669.443;0.26000
5672.221;0.51000
5674.998;0.73500
5677.776;0.84500
5680.554;0.87500
5683.332;0.73500
5686.110;0.40000
5688.887;-0.02500
5691.665;-0.33500
5694.443;-0.48000
5697.221;-0.47000
5699.998;-0.41500
5702.776;-0.37500
5705.554;-0.36500
5708.332;-0.38500
5711.110;-0.40000
5713.887;-0.38000
5716.665;-0.39000
5719.443;-0.37500
5722.221;-0.38500
5724.998;-0.39500
5727.776;-0.40500
5730.554;-0.39000
5733.332;-0.38000
5736.110;-0.38500
5738.887;-0.38500
5741.665;-0.39500
5744.443;-0.40000
5747.221;-0.40500
5749.998;-0.40000
5752.776;-0.39000
5755.554;-0.39000
5758.332;-0.39500
5761.109;-0.40000
5763.887;-0.39000
5766.665;-0.38500
5769.443;-0.39000
5772.221;-0.38500
5774.998;-0.41000
5777.776;-0.42000
5780.554;-0.40500
5783.332;-0.41000
5786.109;-0.39000
5788.887;-0.39000
5791.665;-0.39000
5794.443;-0.40000
5797.221;-0.40000
5799.998;-0.39000
5802.776;-0.37500
5805.554;-0.38000
5808.332;-0.39500
5811.109;-0.40000
5813.887;-0.39000
5816.665;-0.40000
5819.443;-0.39000
5822.221;-0.39500
5824.998;-0.41000
5827.776;-0.41500
5830.554;-0.40500
5833.332;-0.38500
5836.109;-0.38500
5838.887;-0.38000
5841.665;-0.40000
5844.443;-0.40000
5847.221;-0.39500
5849.998;-0.39000
5852.776;-0.38000
5855.554;-0.37500
5858.332;-0.39500
5861.109;-0.39500
5863.887;-0.38500
5866.665;-0.38000
5869.443;-0.37500
5872.221;-0.38500
5874.998;-0.39000
5877.776;-0.40000
5880.554;-0.40000
5883.332;-0.38500
5886.109;-0.38000
5888.887;-0.39500
5891.665;-0.39000
5894.443;-0.40000
5897.221;-0.39500
5899.998;-0.38500
5902.776;-0.38000
5905.554;-0.38500
5908.332;-0.39500
5911.109;-0.40500
5913.887;-0.40000
5916.665;-0.39000
5919.443;-0.38000
5922.221;-0.38000
5924.998;-0.38500
5927.776;-0.40500
5930.554;-0.39500
5933.332;-0.40000
5936.109;-0.39000
5938.887;-0.40000
5941.665;-0.40500
5944.443;-0.42500
5947.221;-0.42000
5949.998;-0.40500
5952.776;-0.40000
5955.554;-0.40500
5958.332;-0.40500
5961.109;-0.41500
5963.887;-0.40000
5966.665;-0.39000
5969.443;-0.38000
5972.221;-0.38500
5974.998;-0.39500
5977.776;-0.40500
5980.554;-0.39000
5983.332;-0.37000
5986.109;-0.37000
5988.887;-0.37000
5991.665;-0.38500
5994.443;-0.37000
5997.221;-0.35500
5999.998;-0.34500
6002.776;-0.34000
6005.554;-0.33500
6008.332;-0.34000
6011.109;-0.35500
6013.887;-0.33500
6016.665;-0.32500
6019.443;-0.31000
6022.221;-0.30500
6024.998;-0.30500
6027.776;-0.32000
6030.554;-0.31500
6033.332;-0.31000
6036.109;-0.30500
6038.887;-0.30500
6041.665;-0.33000
6044.443;-0.32500
6047.221;-0.34500
6049.998;-0.32500
6052.776;-0.31500
6055.554;-0.31500
6058.332;-0.30500
6061.109;-0.31000
6063.887;-0.31000
6066.665;-0.30000
6069.443;-0.30500
6072.221;-0.30500
6074.998;-0.31500
6077.776;-0.32000
6080.554;-0.32500
6083.332;-0.31500
6086.109;-0.30500
6088.887;-0.31500
6091.665;-0.32500
6094.443;-0.32500
6097.221;-0.33000
6099.998;-0.31500
6102.776;-0.31500
6105.554;-0.31000
6108.332;-0.33000
6111.109;-0.34000
6113.887;-0.33500
6116.665;-0.33000
6119.443;-0.34500
6122.221;-0.35500
6124.998;-0.36500
6127.776;-0.37000
6130.554;-0.34500
6133.332;-0.34000
6136.109;-0.34000
6138.887;-0.34500
6141.665;-0.36000
6144.443;-0.36500
6147.221;-0.36000
6149.998;-0.36000
6152.776;-0.34500
6155.554;-0.35500
6158.332;-0.36500
6161.109;-0.35000
6163.887;-0.36000
6166.665;-0.35000
6169.443;-0.34000
6172.220;-0.34500
6174.998;-0.35500
6177.776;-0.37000
6180.554;-0.35000
6183.332;-0.35000
6186.109;-0.35000
6188.887;-0.34500
6191.665;-0.35000
6194.443;-0.35500
6197.220;-0.36000
6199.998;-0.34500
6202.776;-0.35500
6205.554;-0.35000
6208.332;-0.36000
6211.109;-0.37000
6213.887;-0.35500
6216.665;-0.35500
6219.443;-0.35000
6222.220;-0.35500
6224.998;-0.36000
6227.776;-0.39000
6230.554;-0.38500
6233.332;-0.36000
6236.109;-0.36000
6238.887;-0.37000
6241.665;-0.37000
6244.443;-0.39000
6247.220;-0.37500
6249.998;-0.37000
6252.776;-0.35000
6255.554;-0.34000
6258.332;-0.34500
6261.109;-0.36000
6263.887;-0.36000
6266.665;-0.35000
6269.443;-0.35000
6272.220;-0.33500
6274.998;-0.36000
6277.776;-0.36500
6280.554;-0.36500
6283.332;-0.36000
6286.109;-0.36000
6288.887;-0.36500
6291.665;-0.37500
6294.443;-0.38500
6297.220;-0.38500
6299.998;-0.36500
6302.776;-0.37000
6305.554;-0.37500
6308.332;-0.37000
6311.109;-0.37500
6313.887;-0.36500
6316.665;-0.35500
6319.443;-0.35500
6322.220;-0.36000
6324.998;-0.36500
6327.776;-0.37000
6330.554;-0.36000
6333.332;-0.35000
6336.109;-0.34000
6338.887;-0.34500
6341.665;-0.34000
6344.443;-0.35000
6347.220;-0.34500
6349.998;-0.35000
6352.776;-0.36000
6355.554;-0.35000
6358.332;-0.36000
6361.109;-0.37000
6363.887;-0.36000
6366.665;-0.36000
6369.443;-0.35500
6372.220;-0.36000
6374.998;-0.37500
6377.776;-0.37500
6380.554;-0.37000
6383.332;-0.35000
6386.109;-0.35500
6388.887;-0.36000
6391.665;-0.36500
6394.443;-0.37500
6397.220;-0.37000
6399.998;-0.36500
6402.776;-0.36000
6405.554;-0.35500
6408.332;-0.36000
6411.109;-0.36000
6413.887;-0.35000
6416.665;-0.34000
6419.443;-0.34500
6422.220;-0.34500
6424.998;-0.35500
6427.776;-0.36000
6430.554;-0.36000
6433.332;-0.36500
6436.109;-0.34500
6438.887;-0.35500
6441.665;-0.35000
6444.443;-0.36000
6447.220;-0.35500
6449.998;-0.36000
6452.776;-0.34500
6455.554;-0.33500
6458.332;-0.33000
6461.109;-0.33000
6463.887;-0.31000
6466.665;-0.30500
6469.443;-0.30000
6472.220;-0.30500
6474.998;-0.29500
6477.776;-0.30500
6480.554;-0.28500
6483.332;-0.27500
6486.109;-0.26500
6488.887;-0.25500
6491.665;-0.25500
6494.443;-0.26000
6497.220;-0.26500
6499.998;-0.25500
6502.776;-0.25500
6505.554;-0.26000
6508.332;-0.28000
6511.109;-0.29000
6513.887;-0.28000
6516.665;-0.27000
6519.443;-0.25500
6522.220;-0.27500
6524.998;-0.29000
6527.776;-0.32000
6530.554;-0.30000
6533.332;-0.29500
6536.109;-0.27000
6538.887;-0.26500
6541.665;-0.27000
6544.443;-0.28500
6547.220;-0.30000
6549.998;-0.31000
6552.776;-0.31500
6555.554;-0.32000
6558.331;-0.35000
6561.109;-0.37000
6563.887;-0.36500
6566.665;-0.36500
6569.443;-0.36500
6572.220;-0.37000
6574.998;-0.37000
6577.776;-0.37000
6580.554;-0.38000
6583.331;-0.36000
6586.109;-0.37500
6588.887;-0.37500
6591.665;-0.40000
6594.443;-0.42000
6597.220;-0.40500
6599.998;-0.40000
6602.776;-0.38500
6605.554;-0.38000
6608.331;-0.40000
6611.109;-0.41500
6613.887;-0.40500
6616.665;-0.39500
6619.443;-0.39500
6622.220;-0.39500
6624.998;-0.41000
6627.776;-0.43000
6630.554;-0.44000
6633.331;-0.45500
6636.109;-0.49000
6638.887;-0.48500
6641.665;-0.52000
6644.443;-0.57000
6647.220;-0.57500
6649.998;-0.52500
6652.776;-0.42000
6655.554;-0.30500
6658.331;-0.19000
6661.109;-0.02000
6663.887;0.22000
6666.665;0.48500
6669.443;0.71500
6672.220;0.84500
6674.998;0.88500
6677.776;0.79000
6680.554;0.56000
6683.331;0.22500
6686.109;-0.07000
6688.887;-0.28500
6691.665;-0.42500
6694.443;-0.50000
6697.220;-0.55000
6699.998;-0.53500
6702.776;-0.50000
6705.554;-0.46500
6708.331;-0.45000
6711.109;-0.45000
6713.887;-0.43500
6716.665;-0.42000
6719.443;-0.41000
6722.220;-0.41000
6724.998;-0.41500
6727.776;-0.42000
6730.554;-0.42500
6733.331;-0.42000
6736.109;-0.43000
6738.887;-0.43000
6741.665;-0.44000
6744.443;-0.45000
6747.220;-0.45000
6749.998;-0.43000
6752.776;-0.43000
6755.554;-0.43000
6758.331;-0.44500
6761.109;-0.44500
6763.887;-0.44000
6766.665;-0.42500
6769.443;-0.43000
6772.220;-0.43000
6774.998;-0.42500
6777.776;-0.44500
6780.554;-0.44500
6783.331;-0.43000
6786.109;-0.43500
6788.887;-0.43500
6791.665;-0.44500
6794.443;-0.44500
6797.220;-0.43500
6799.998;-0.43000
6802.776;-0.42500
6805.554;-0.43000
6808.331;-0.43000
6811.109;-0.44000
6813.887;-0.42000
6816.665;-0.43000
6819.443;-0.42500
6822.220;-0.43000
6824.998;-0.44000
6827.776;-0.44000
6830.554;-0.43000
6833.331;-0.43000
6836.109;-0.41500
6838.887;-0.42500
6841.665;-0.43000
6844.443;-0.45500
6847.220;-0.44500
6849.998;-0.44500
6852.776;-0.43000
6855.554;-0.43000
6858.331;-0.44000
6861.109;-0.44000
6863.887;-0.43500
6866.665;-0.43000
6869.443;-0.41500
6872.220;-0.41500
6874.998;-0.42500
6877.776;-0.42500
6880.554;-0.42000
6883.331;-0.40500
6886.109;-0.40500
6888.887;-0.41500
6891.665;-0.41500
6894.443;-0.42500
6897.220;-0.43000
6899.998;-0.40500
6902.776;-0.40500
6905.554;-0.40500
6908.331;-0.40500
6911.109;-0.43000
6913.887;-0.41500
6916.665;-0.41000
6919.443;-0.41500
6922.220;-0.43000
6924.998;-0.44500
6927.776;-0.46500
6930.554;-0.46000
6933.331;-0.45000
6936.109;-0.45500
6938.887;-0.46000
6941.665;-0.46500
6944.443;-0.48500
6947.220;-0.49500
6949.998;-0.47500
6952.776;-0.49000
6955.554;-0.50000
6958.331;-0.49500
6961.109;-0.51500
6963.887;-0.50000
6966.665;-0.48500
6969.442;-0.49000
6972.220;-0.48500
6974.998;-0.50000
6977.776;-0.50000
6980.554;-0.49000
6983.331;-0.48000
6986.109;-0.46000
6988.887;-0.46000
6991.665;-0.47000
6994.442;-0.46500
6997.220;-0.44000
6999.998;-0.43000
7002.776;-0.42500
7005.554;-0.41000
7008.331;-0.41000
7011.109;-0.40000
7013.887;-0.39000
7016.665;-0.38000
7019.442;-0.35500
7022.220;-0.35000
7024.998;-0.35500
7027.776;-0.35000
7030.554;-0.34000
7033.331;-0.33000
7036.109;-0.32500
7038.887;-0.30500
7041.665;-0.32000
7044.442;-0.31500
7047.220;-0.30500
7049.998;-0.30000
7052.776;-0.30500
7055.554;-0.30500
7058.331;-0.31000
7061.109;-0.33000
7063.887;-0.31000
7066.665;-0.31500
7069.442;-0.31500
7072.220;-0.32000
7074.998;-0.32500
7077.776;-0.32500
7080.554;-0.32500
7083.331;-0.31000
7086.109;-0.31000
7088.887;-0.31500
7091.665;-0.32500
7094.442;-0.33000
7097.220;-0.32500
7099.998;-0.32500
7102.776;-0.31500
7105.554;-0.32000
7108.331;-0.33000
7111.109;-0.33500
7113.887;-0.33000
7116.665;-0.31500
7119.442;-0.32000
7122.220;-0.32000
7124.998;-0.33500
7127.776;-0.33500
7130.554;-0.32500
7133.331;-0.32500
7136.109;-0.32000
7138.887;-0.32000
7141.665;-0.32500
7144.442;-0.35000
7147.220;-0.34500
7149.998;-0.34500
7152.776;-0.33500
7155.554;-0.34500
7158.331;-0.35500
7161.109;-0.35500
7163.887;-0.35500
7166.665;-0.34500
7169.442;-0.33500
7172.220;-0.33500
7174.998;-0.34500
7177.776;-0.35500
7180.554;-0.34000
7183.331;-0.33500
7186.109;-0.33000
7188.887;-0.33500
7191.665;-0.34500
7194.442;-0.35000
7197.220;-0.35000
7199.998;-0.34000
7202.776;-0.33500
7205.554;-0.33000
7208.331;-0.36000
7211.109;-0.35500
7213.887;-0.34500
7216.665;-0.33500
7219.442;-0.34500
7222.220;-0.35000
7224.998;-0.36000
7227.776;-0.38000
7230.554;-0.37000
7233.331;-0.34500
7236.109;-0.34500
7238.887;-0.35000
7241.665;-0.35500
7244.442;-0.36500
7247.220;-0.36000
7249.998;-0.34500
7252.776;-0.34500
7255.554;-0.35000
7258.331;-0.36000
7261.109;-0.36000
7263.887;-0.35000
7266.665;-0.35500
7269.442;-0.34000
7272.220;-0.34500
7274.998;-0.35500
7277.776;-0.35500
7280.554;-0.35500
7283.331;-0.34000
7286.109;-0.34000
7288.887;-0.34500
7291.665;-0.36500
7294.442;-0.37000
7297.220;-0.35000
7299.998;-0.33000
7302.776;-0.32000
7305.554;-0.31500
7308.331;-0.29500
7311.109;-0.30500
7313.887;-0.29500
7316.665;-0.30000
7319.442;-0.28500
7322.220;-0.27500
7324.998;-0.26000
7327.776;-0.27500
7330.554;-0.26500
7333.331;-0.26000
7336.109;-0.25000
7338.887;-0.24500
7341.665;-0.25500
7344.442;-0.26500
7347.220;-0.26000
7349.998;-0.26000
7352.776;-0.25000
7355.553;-0.26000
7358.331;-0.28000
7361.109;-0.28000
7363.887;-0.27500
7366.665;-0.28500
7369.442;-0.28000
7372.220;-0.25500
7374.998;-0.24500
7377.776;-0.24500
7380.553;-0.26000
7383.331;-0.28500
7386.109;-0.29000
7388.887;-0.30000
7391.665;-0.32000
7394.442;-0.33500
7397.220;-0.35500
7399.998;-0.35000
7402.776;-0.35500
7405.553;-0.35500
7408.331;-0.37500
7411.109;-0.38500
7413.887;-0.38000
7416.665;-0.36000
7419.442;-0.35000
7422.220;-0.36000
7424.998;-0.36500
7427.776;-0.37000
7430.553;-0.37000
7433.331;-0.36500
7436.109;-0.36000
7438.887;-0.36500
7441.665;-0.37000
7444.442;-0.38500
7447.220;-0.38500
7449.998;-0.36500
7452.776;-0.36000
7455.553;-0.38000
7458.331;-0.38500
7461.109;-0.39500
7463.887;-0.39500
7466.665;-0.38500
7469.442;-0.38000
7472.220;-0.39500
7474.998;-0.42500
7477.776;-0.46500
7480.553;-0.50000
7483.331;-0.51500
7486.109;-0.53000
7488.887;-0.56000
7491.665;-0.58500
7494.442;-0.53000
7497.220;-0.41000
7499.998;-0.25500
7502.776;-0.10500
7505.553;0.10500
7508.331;0.35500
7511.109;0.60000
7513.887;0.81000
7516.665;0.89000
7519.442;0.83000
7522.220;0.58000
7524.998;0.18500
7527.776;-0.20500
7530.553;-0.45000
7533.331;-0.52500
7536.109;-0.49500
7538.887;-0.46500
7541.665;-0.43500
7544.442;-0.41500
7547.220;-0.41500
7549.998;-0.41500
7552.776;-0.40000
7555.553;-0.39500
7558.331;-0.40500
7561.109;-0.42500
7563.887;-0.43500
7566.665;-0.41500
7569.442;-0.41500
7572.220;-0.41500
7574.998;-0.41500
7577.776;-0.43000
7580.553;-0.42000
7583.331;-0.41000
7586.109;-0.40500
7588.887;-0.42000
7591.665;-0.41000
7594.442;-0.42000
7597.220;-0.40000
7599.998;-0.39500
7602.776;-0.38500
7605.553;-0.40000
7608.331;-0.40000
7611.109;-0.40000
7613.887;-0.40000
7616.665;-0.39500
7619.442;-0.40000
7622.220;-0.40000
7624.998;-0.40000
7627.776;-0.41000
7630.553;-0.39500
7633.331;-0.41000
7636.109;-0.40000
7638.887;-0.39500
7641.665;-0.40500
7644.442;-0.41000
7647.220;-0.41500
7649.998;-0.40500
7652.776;-0.40000
7655.553;-0.39500
7658.331;-0.40500
7661.109;-0.41500
7663.887;-0.40500
7666.665;-0.41500
7669.442;-0.41000
7672.220;-0.40500
7674.998;-0.40500
7677.776;-0.41000
7680.553;-0.40500
7683.331;-0.40000
7686.109;-0.39500
7688.887;-0.40500
7691.665;-0.40500
7694.442;-0.40000
7697.220;-0.39500
7699.998;-0.39000
7702.776;-0.39500
7705.553;-0.39000
7708.331;-0.39500
7711.109;-0.42000
7713.887;-0.41500
7716.665;-0.40500
7719.442;-0.40000
7722.220;-0.40000
7724.998;-0.41500
7727.776;-0.42000
7730.553;-0.41000
7733.331;-0.39500
7736.109;-0.40000
7738.887;-0.40500
7741.664;-0.41500
7744.442;-0.43500
7747.220;-0.41500
7749.998;-0.41500
7752.776;-0.40000
7755.553;-0.40500
7758.331;-0.42000
7761.109;-0.43000
7763.887;-0.42500
7766.664;-0.41000
7769.442;-0.41000
7772.220;-0.40500
7774.998;-0.41500
7777.776;-0.42500
7780.553;-0.42500
7783.331;-0.42000
7786.109;-0.41000
7788.887;-0.41000
7791.664;-0.42000
7794.442;-0.43000
7797.220;-0.42500
7799.998;-0.42000
7802.776;-0.40500
7805.553;-0.41500
7808.331;-0.41000
7811.109;-0.41000
7813.887;-0.38500
7816.664;-0.37000
7819.442;-0.36000
7822.220;-0.35000
7824.998;-0.35000
7827.776;-0.35000
7830.553;-0.33500
7833.331;-0.32000
7836.109;-0.30500
7838.887;-0.31500
7841.664;-0.31500
7844.442;-0.32000
7847.220;-0.30500
7849.998;-0.30500
7852.776;-0.29500
7855.553;-0.29000
7858.331;-0.29500
7861.109;-0.29500
7863.887;-0.28500
7866.664;-0.28500
7869.442;-0.27000
7872.220;-0.28000
7874.998;-0.28000
7877.776;-0.29500
7880.553;-0.28000
7883.331;-0.28500
7886.109;-0.27500
7888.887;-0.28500
7891.664;-0.29500
7894.442;-0.30500
7897.220;-0.29500
7899.998;-0.28500
7902.776;-0.28500
7905.553;-0.29000
7908.331;-0.30000
7911.109;-0.31000
7913.887;-0.29500
7916.664;-0.30000
7919.442;-0.29000
7922.220;-0.28500
7924.998;-0.30500
7927.776;-0.31000
7930.553;-0.30000
7933.331;-0.29500
7936.109;-0.30500
7938.887;-0.30000
7941.664;-0.30500
7944.442;-0.32000
7947.220;-0.32000
7949.998;-0.31000
7952.776;-0.30000
7955.553;-0.31000
7958.331;-0.32000
7961.109;-0.34000
7963.887;-0.33000
7966.664;-0.31000
7969.442;-0.31500
7972.220;-0.32500
7974.998;-0.32500
7977.776;-0.34500
7980.553;-0.33000
7983.331;-0.32000
7986.109;-0.32000
7988.887;-0.33500
7991.664;-0.33500
7994.442;-0.35500
7997.220;-0.34000
7999.998;-0.32000
8002.776;-0.31500
8005.553;-0.33000
8008.331;-0.34000
8011.109;-0.34000
8013.887;-0.35000
8016.664;-0.33000
8019.442;-0.33000
8022.220;-0.34000
8024.998;-0.35000
8027.776;-0.35500
8030.553;-0.34500
8033.331;-0.33500
8036.109;-0.33500
8038.887;-0.34000
8041.664;-0.34000
8044.442;-0.34500
8047.220;-0.33500
8049.998;-0.33500
8052.776;-0.32500
8055.553;-0.32500
8058.331;-0.33500
8061.109;-0.34000
8063.887;-0.34000
8066.664;-0.32000
8069.442;-0.31500
8072.220;-0.32000
8074.998;-0.33500
8077.776;-0.33500
8080.553;-0.32000
8083.331;-0.32500
8086.109;-0.31500
8088.887;-0.32000
8091.664;-0.32000
8094.442;-0.34500
8097.220;-0.33500
8099.998;-0.32000
8102.776;-0.31000
8105.553;-0.32000
8108.331;-0.32000
8111.109;-0.34000
8113.887;-0.33000
8116.664;-0.32000
8119.442;-0.31000
8122.220;-0.31000
8124.998;-0.31000
8127.776;-0.29500
8130.553;-0.28000
8133.331;-0.25500
8136.109;-0.25000
8138.887;-0.25000
8141.664;-0.25500
8144.442;-0.26000
8147.220;-0.24000
8149.998;-0.22000
8152.775;-0.23000
8155.553;-0.23000
8158.331;-0.21500
8161.109;-0.22000
8163.887;-0.22500
8166.664;-0.23000
8169.442;-0.23000
8172.220;-0.23500
8174.998;-0.24500
8177.775;-0.25500
8180.553;-0.24000
8183.331;-0.23500
8186.109;-0.24500
8188.887;-0.23500
8191.664;-0.23000
8194.442;-0.22000
8197.220;-0.19500
8199.998;-0.22000
8202.775;-0.24500
8205.553;-0.26000
8208.331;-0.27000
8211.109;-0.29000
8213.887;-0.30000
8216.664;-0.30500
8219.442;-0.30500
8222.220;-0.32000
8224.998;-0.33000
8227.775;-0.35000
8230.553;-0.35000
8233.331;-0.33500
8236.109;-0.33500
8238.887;-0.33500
8241.664;-0.34000
8244.442;-0.35000
8247.220;-0.35000
8249.998;-0.34500
8252.775;-0.33500
8255.553;-0.34500
8258.331;-0.35500
8261.109;-0.37000
8263.887;-0.35000
8266.664;-0.34500
8269.442;-0.33500
8272.220;-0.33500
8274.998;-0.33500
8277.775;-0.35500
8280.553;-0.35500
8283.331;-0.34500
8286.109;-0.35500
8288.887;-0.39500
8291.664;-0.45000
8294.442;-0.48000
8297.220;-0.50500
8299.998;-0.52500
8302.775;-0.54500
8305.553;-0.50000
8308.331;-0.39500
8311.109;-0.25500
8313.887;-0.07000
8316.664;0.14500
8319.442;0.42500
8322.220;0.68500
8324.998;0.87500
8327.775;0.92500
8330.553;0.79500
8333.331;0.47000
8336.109;0.02000
8338.887;-0.32500
8341.664;-0.47000
8344.442;-0.48500
8347.220;-0.41000
8349.998;-0.36500
8352.775;-0.35500
8355.553;-0.36500
8358.331;-0.38000
8361.109;-0.38500
8363.887;-0.38000
8366.664;-0.37000
8369.442;-0.37000
8372.220;-0.37500
8374.998;-0.38500
8377.775;-0.39500
8380.553;-0.38500
8383.331;-0.38000
8386.109;-0.38500
8388.887;-0.37500
8391.664;-0.39000
8394.442;-0.40500
8397.220;-0.40500
8399.998;-0.39000
8402.775;-0.38500
8405.553;-0.38500
8408.331;-0.39000
8411.109;-0.41000
8413.887;-0.40000
8416.664;-0.39000
8419.442;-0.38500
8422.220;-0.38500
8424.998;-0.39500
8427.775;-0.39000
8430.553;-0.39500
8433.331;-0.38000
8436.109;-0.37500
8438.887;-0.38000
8441.664;-0.38500
8444.442;-0.40000
8447.220;-0.38500
8449.998;-0.38000
8452.775;-0.37500
8455.553;-0.38000
8458.331;-0.39500
8461.109;-0.39500
8463.887;-0.38500
8466.664;-0.37500
8469.442;-0.37000
8472.220;-0.36500
8474.998;-0.38500
8477.775;-0.39500
8480.553;-0.38500
8483.331;-0.38500
8486.109;-0.37000
8488.887;-0.37500
8491.664;-0.37000
8494.442;-0.37500
8497.220;-0.37500
8499.998;-0.37000
8502.775;-0.35500
8505.553;-0.36500
8508.331;-0.38000
8511.109;-0.37500
8513.887;-0.37000
8516.664;-0.38000
8519.442;-0.36500
8522.220;-0.37000
8524.998;-0.37500
8527.775;-0.39000
8530.553;-0.38000
8533.331;-0.37500
8536.109;-0.38000
8538.886;-0.37000
8541.664;-0.37500
8544.442;-0.38000
8547.220;-0.38500
8549.998;-0.38500
8552.775;-0.37000
8555.553;-0.37500
8558.331;-0.37500
8561.109;-0.38000
8563.886;-0.38000
8566.664;-0.38000
8569.442;-0.38000
8572.220;-0.37500
8574.998;-0.39000
8577.775;-0.39500
8580.553;-0.38500
8583.331;-0.38500
8586.109;-0.37500
8588.886;-0.37500
8591.664;-0.38500
8594.442;-0.38500
8597.220;-0.39000
8599.998;-0.37000
8602.775;-0.36500
8605.553;-0.36500
8608.331;-0.37500
8611.109;-0.38500
8613.886;-0.35000
8616.664;-0.34500
8619.442;-0.32500
8622.220;-0.32500
8624.998;-0.33000
8627.775;-0.32500
8630.553;-0.32500
8633.331;-0.31500
8636.109;-0.31500
8638.886;-0.31500
8641.664;-0.30000
8644.442;-0.30000
8647.220;-0.28500
8649.998;-0.27000
8652.775;-0.26500
8655.553;-0.26000
8658.331;-0.27500
8661.109;-0.28500
8663.886;-0.26500
8666.664;-0.25500
8669.442;-0.25000
8672.220;-0.27000
8674.998;-0.28000
8677.775;-0.28500
8680.553;-0.28500
8683.331;-0.28000
8686.109;-0.27000
8688.886;-0.27000
8691.664;-0.27000
8694.442;-0.28500
8697.220;-0.28000
8699.998;-0.27500
8702.775;-0.27000
8705.553;-0.26500
8708.331;-0.27500
8711.109;-0.29000
8713.886;-0.28500
8716.664;-0.28500
8719.442;-0.27500
8722.220;-0.27000
8724.998;-0.28000
8727.775;-0.29500
8730.553;-0.28000
8733.331;-0.27000
8736.109;-0.27000
8738.886;-0.27500
8741.664;-0.28500
8744.442;-0.30000
8747.220;-0.29500
8749.998;-0.29000
8752.775;-0.29500
8755.553;-0.30000
8758.331;-0.29000
8761.109;-0.30500
8763.886;-0.29500
8766.664;-0.29000
8769.442;-0.29500
8772.220;-0.29000
8774.998;-0.31000
8777.775;-0.32000
8780.553;-0.31500
8783.331;-0.31500
8786.109;-0.30000
8788.886;-0.30500
8791.664;-0.31500
8794.442;-0.33000
8797.220;-0.32000
8799.998;-0.30500
8802.775;-0.31500
8805.553;-0.30500
8808.331;-0.31500
8811.109;-0.32500
8813.886;-0.31000
8816.664;-0.29500
8819.442;-0.30000
8822.220;-0.30500
8824.998;-0.31000
8827.775;-0.32500
8830.553;-0.31500
8833.331;-0.31500
8836.109;-0.30500
8838.886;-0.30500
8841.664;-0.32500
8844.442;-0.32000
8847.220;-0.32000
8849.998;-0.31000
8852.775;-0.30500
8855.553;-0.32000
8858.331;-0.32000
8861.109;-0.32000
8863.886;-0.31000
8866.664;-0.30500
8869.442;-0.29000
8872.220;-0.28500
8874.998;-0.29000
8877.775;-0.30500
8880.553;-0.31000
8883.331;-0.30000
8886.109;-0.30000
8888.886;-0.31000
8891.664;-0.31500
8894.442;-0.31500
8897.220;-0.31000
8899.998;-0.29500
8902.775;-0.30000
8905.553;-0.29500
8908.331;-0.31500
8911.109;-0.31000
8913.886;-0.29000
8916.664;-0.26500
8919.442;-0.24000
8922.220;-0.25500
8924.998;-0.24000
8927.775;-0.25000
8930.553;-0.22500
8933.331;-0.22500
8936.109;-0.21500
8938.886;-0.21000
8941.664;-0.20000
8944.442;-0.19500
8947.220;-0.19500
8949.997;-0.18000
8952.775;-0.17500
8955.553;-0.18000
8958.331;-0.20500
8961.109;-0.21500
8963.886;-0.21000
8966.664;-0.21000
8969.442;-0.21000
8972.220;-0.21000
8974.997;-0.21500
8977.775;-0.22500
8980.553;-0.21000
8983.331;-0.18000
8986.109;-0.17000
8988.886;-0.18500
8991.664;-0.24000
8994.442;-0.25500
8997.220;-0.25500
8999.997;-0.27000
9002.775;-0.27500
9005.553;-0.28500
9008.331;-0.30000
9011.109;-0.30000
9013.886;-0.31500
9016.664;-0.30500
9019.442;-0.30000
9022.220;-0.29500
9024.997;-0.30000
9027.775;-0.31500
9030.553;-0.31000
9033.331;-0.31000
9036.109;-0.30000
9038.886;-0.30000
9041.664;-0.30500
9044.442;-0.31500
9047.220;-0.32500
9049.997;-0.32000
9052.775;-0.32000
9055.553;-0.32000
9058.331;-0.32500
9061.109;-0.34000
9063.886;-0.33500
9066.664;-0.32500
9069.442;-0.31500
9072.220;-0.32000
9074.997;-0.34500
9077.775;-0.37000
9080.553;-0.39500
9083.331;-0.42500
9086.109;-0.44500
9088.886;-0.46500
9091.664;-0.51000
9094.442;-0.53000
9097.220;-0.48500
9099.997;-0.37000
9102.775;-0.23500
9105.553;-0.09000
9108.331;0.10500
9111.109;0.37500
9113.886;0.65500
9116.664;0.82000
9119.442;0.86500
9122.220;0.73500
9124.997;0.45000
9127.775;0.06000
9130.553;-0.27000
9133.331;-0.43000
9136.109;-0.46000
9138.886;-0.41500
9141.664;-0.38500
9144.442;-0.36500
9147.220;-0.35500
9149.997;-0.35500
9152.775;-0.34500
9155.553;-0.35000
9158.331;-0.35000
9161.109;-0.36000
9163.886;-0.34500
9166.664;-0.34000
9169.442;-0.34000
9172.220;-0.33500
9174.997;-0.33500
9177.775;-0.35500
9180.553;-0.34500
9183.331;-0.34000
9186.109;-0.33500
9188.886;-0.34000
9191.664;-0.35000
9194.442;-0.36500
9197.220;-0.36000
9199.997;-0.36500
9202.775;-0.35000
9205.553;-0.34500
9208.331;-0.36500
9211.109;-0.36000
9213.886;-0.35000
9216.664;-0.35500
9219.442;-0.35000
9222.220;-0.35500
9224.997;-0.35000
9227.775;-0.36000
9230.553;-0.33500
9233.331;-0.33500
9236.109;-0.33000
9238.886;-0.34000
9241.664;-0.35000
9244.442;-0.35000
9247.220;-0.34500
9249.997;-0.33500
9252.775;-0.34500
9255.553;-0.35500
9258.331;-0.35500
9261.109;-0.37000
9263.886;-0.35500
9266.664;-0.35000
9269.442;-0.34500
9272.220;-0.36500
9274.997;-0.36500
9277.775;-0.37000
9280.553;-0.36500
9283.331;-0.35500
9286.109;-0.34500
9288.886;-0.34500
9291.664;-0.34500
9294.442;-0.34000
9297.220;-0.33500
9299.997;-0.32500
9302.775;-0.33500
9305.553;-0.34500
9308.331;-0.35000
9311.109;-0.35000
9313.886;-0.35500
9316.664;-0.35500
9319.442;-0.36000
9322.220;-0.35000
9324.997;-0.36000
9327.775;-0.36500
9330.553;-0.34500
9333.331;-0.34500
9336.108;-0.33000
9338.886;-0.35000
9341.664;-0.34500
9344.442;-0.35500
9347.220;-0.35000
9349.997;-0.34000
9352.775;-0.33500
9355.553;-0.35000
9358.331;-0.36500
9361.108;-0.38000
9363.886;-0.38500
9366.664;-0.35500
9369.442;-0.36000
9372.220;-0.35500
9374.997;-0.37000
9377.775;-0.38500
9380.553;-0.37000
9383.331;-0.37000
9386.108;-0.35000
9388.886;-0.34500
9391.664;-0.36500
9394.442;-0.36500
9397.220;-0.36000
9399.997;-0.34500
9402.775;-0.33000
9405.553;-0.33000
9408.331;-0.33000
9411.108;-0.33500
9413.886;-0.31500
9416.664;-0.31000
9419.442;-0.28500
9422.220;-0.29000
9424.997;-0.29000
9427.775;-0.30000
9430.553;-0.28000
9433.331;-0.27500
9436.108;-0.26000
9438.886;-0.26000
9441.664;-0.27000
9444.442;-0.26500
9447.220;-0.25500
9449.997;-0.25000
9452.775;-0.24500
9455.553;-0.24500
9458.331;-0.25500
9461.108;-0.26500
9463.886;-0.26000
9466.664;-0.25500
9469.442;-0.24000
9472.220;-0.25000
9474.997;-0.25500
9477.775;-0.27500
9480.553;-0.27500
9483.331;-0.26500
9486.108;-0.27000
9488.886;-0.27500
9491.664;-0.28000
9494.442;-0.29000
9497.220;-0.28000
9499.997;-0.27500
9502.775;-0.27000
9505.553;-0.27000
9508.331;-0.28000
9511.108;-0.29000
9513.886;-0.28000
9516.664;-0.28500
9519.442;-0.27500
9522.220;-0.29000
9524.997;-0.28000
9527.775;-0.29000
9530.553;-0.28000
9533.331;-0.28500
9536.108;-0.27500
9538.886;-0.28000
9541.664;-0.29500
9544.442;-0.30500
9547.220;-0.30000
9549.997;-0.30000
9552.775;-0.30500
9555.553;-0.31500
9558.331;-0.32000
9561.108;-0.31000
9563.886;-0.31000
9566.664;-0.30000
9569.442;-0.31000
9572.220;-0.31000
9574.997;-0.32000
9577.775;-0.32500
9580.553;-0.31000
9583.331;-0.32000
9586.108;-0.31000
9588.886;-0.31000
9591.664;-0.31500
9594.442;-0.32500
9597.220;-0.31500
9599.997;-0.30500
9602.775;-0.31500
9605.553;-0.31000
9608.331;-0.32000
9611.108;-0.32500
9613.886;-0.32500
9616.664;-0.32000
9619.442;-0.30500
9622.220;-0.30500
9624.997;-0.30000
9627.775;-0.31500
9630.553;-0.30000
9633.331;-0.31000
9636.108;-0.31500
9638.886;-0.30500
9641.664;-0.31000
9644.442;-0.32000
9647.220;-0.31000
9649.997;-0.30000
9652.775;-0.29500
9655.553;-0.30000
9658.331;-0.31500
9661.108;-0.32500
9663.886;-0.32500
9666.664;-0.30500
9669.442;-0.31000
9672.220;-0.29000
9674.997;-0.31500
9677.775;-0.32500
9680.553;-0.32000
9683.331;-0.29000
9686.108;-0.28000
9688.886;-0.26000
9691.664;-0.26000
9694.442;-0.26500
9697.220;-0.26000
9699.997;-0.25000
9702.775;-0.23000
9705.553;-0.22000
9708.331;-0.22000
9711.108;-0.23500
9713.886;-0.22000
9716.664;-0.20500
9719.442;-0.20500
9722.219;-0.21000
9724.997;-0.21000
9727.775;-0.23000
9730.553;-0.24000
9733.331;-0.23000
9736.108;-0.22500
9738.886;-0.23500
9741.664;-0.25000
9744.442;-0.26500
9747.219;-0.26000
9749.997;-0.24500
9752.775;-0.21500
9755.553;-0.21500
9758.331;-0.24500
9761.108;-0.28000
9763.886;-0.27500
9766.664;-0.27500
9769.442;-0.29500
9772.219;-0.31000
9774.997;-0.32500
9777.775;-0.34000
9780.553;-0.34000
9783.331;-0.32500
9786.108;-0.31500
9788.886;-0.31000
9791.664;-0.31500
9794.442;-0.33000
9797.219;-0.33000
9799.997;-0.32500
9802.775;-0.32500
9805.553;-0.33500
9808.331;-0.34500
9811.108;-0.35000
9813.886;-0.35000
9816.664;-0.35000
9819.442;-0.34500
9822.219;-0.35000
9824.997;-0.36500
9827.775;-0.36000
9830.553;-0.35000
9833.331;-0.35500
9836.108;-0.34500
9838.886;-0.34500
9841.664;-0.35000
9844.442;-0.36500
9847.219;-0.38000
9849.997;-0.40500
9852.775;-0.42500
9855.553;-0.44000
9858.331;-0.47000
9861.108;-0.52000
9863.886;-0.54000
9866.664;-0.49000
9869.442;-0.39000
9872.219;-0.26000
9874.997;-0.11500
9877.775;0.08500
9880.553;0.36000
9883.331;0.61500
9886.108;0.78000
9888.886;0.83500
9891.664;0.72000
9894.442;0.41000
9897.219;0.03000
9899.997;-0.25500
9902.775;-0.41500
9905.553;-0.47000
9908.331;-0.46500
9911.108;-0.43500
9913.886;-0.39500
9916.664;-0.37500
9919.442;-0.37000
9922.219;-0.37500
9924.997;-0.37500
9927.775;-0.39000
9930.553;-0.40000
9933.331;-0.38000
9936.108;-0.38500
9938.886;-0.38500
9941.664;-0.38500
9944.442;-0.38500
9947.219;-0.37000
9949.997;-0.37000
9952.775;-0.36000
9955.553;-0.38000
9958.331;-0.38000
9961.108;-0.38500
9963.886;-0.37000
9966.664;-0.37000
9969.442;-0.36500
9972.219;-0.37500
9974.997;-0.38500
9977.775;-0.39000
9980.553;-0.39000
9983.331;-0.38500
9986.108;-0.38500
9988.886;-0.39500
9991.664;-0.39000
9994.442;-0.40000
9997.219;-0.40500
9999.997;-0.39000
10002.775;-0.39500
10005.553;-0.39000
10008.331;-0.40500
10011.108;-0.40500
10013.886;-0.40000
10016.664;-0.37500
10019.442;-0.38000
10022.219;-0.39000
10024.997;-0.39500
10027.775;-0.39500
10030.553;-0.39000
10033.331;-0.39000
10036.108;-0.38500
10038.886;-0.40500
10041.664;-0.40000
10044.442;-0.40500
10047.219;-0.39500
10049.997;-0.39000
10052.775;-0.39500
10055.553;-0.39000
10058.331;-0.40000
10061.108;-0.40500
10063.886;-0.40500
10066.664;-0.39000
10069.442;-0.39000
10072.219;-0.39500
10074.997;-0.40000
10077.775;-0.40000
10080.553;-0.39500
10083.331;-0.38000
10086.108;-0.37000
10088.886;-0.38000
10091.664;-0.38500
10094.442;-0.39500
10097.219;-0.39000
10099.997;-0.38000
10102.775;-0.38000
10105.553;-0.38500
10108.331;-0.39000
10111.108;-0.39000
10113.886;-0.40000
10116.664;-0.40000
10119.442;-0.40500
10122.219;-0.41500
10124.997;-0.42000
10127.775;-0.43000
10130.553;-0.43000
10133.330;-0.42500
10136.108;-0.42000
10138.886;-0.43000
10141.664;-0.44500
10144.442;-0.46500
10147.219;-0.45500
10149.997;-0.44000
10152.775;-0.42500
10155.553;-0.43500
10158.330;-0.45000
10161.108;-0.44000
10163.886;-0.44500
10166.664;-0.42500
10169.442;-0.42500
10172.219;-0.42500
10174.997;-0.43000
10177.775;-0.43000
10180.553;-0.41500
10183.330;-0.41500
10186.108;-0.38500
10188.886;-0.37500
10191.664;-0.38500
10194.442;-0.37000
10197.219;-0.36000
10199.997;-0.35000
10202.775;-0.33500
10205.553;-0.33500
10208.330;-0.32500
10211.108;-0.32000
10213.886;-0.32500
10216.664;-0.30500
10219.442;-0.29500
10222.219;-0.30000
10224.997;-0.29000
10227.775;-0.29500
10230.553;-0.29000
10233.330;-0.29000
10236.108;-0.28500
10238.886;-0.28500
10241.664;-0.28500
10244.442;-0.29000
10247.219;-0.29000
10249.997;-0.28500
10252.775;-0.27000
10255.553;-0.27000
10258.330;-0.28000
10261.108;-0.29000
10263.886;-0.28500
10266.664;-0.27500
10269.442;-0.27500
10272.219;-0.27500
10274.997;-0.29000
10277.775;-0.30500
10280.553;-0.30500
10283.330;-0.30000
10286.108;-0.28000
10288.886;-0.29000
10291.664;-0.30500
10294.442;-0.31500
10297.219;-0.31000
10299.997;-0.29500
10302.775;-0.29000
10305.553;-0.30000
10308.330;-0.30500
10311.108;-0.30500
10313.886;-0.31000
10316.664;-0.30000
10319.442;-0.29500
10322.219;-0.30500
10324.997;-0.30500
10327.775;-0.31500
10330.553;-0.31000
10333.330;-0.31000
10336.108;-0.29500
10338.886;-0.30000
10341.664;-0.30500
10344.442;-0.31000
10347.219;-0.30500
10349.997;-0.30500
10352.775;-0.29500
10355.553;-0.30000
10358.330;-0.31500
10361.108;-0.32500
10363.886;-0.32000
10366.664;-0.32000
10369.442;-0.31500
10372.219;-0.31000
10374.997;-0.32500
10377.775;-0.33500
10380.553;-0.33000
10383.330;-0.32000
10386.108;-0.32000
10388.886;-0.31000
10391.664;-0.33000
10394.442;-0.33000
10397.219;-0.32500
10399.997;-0.31000
10402.775;-0.30500
10405.553;-0.30500
10408.330;-0.32000
10411.108;-0.33000
10413.886;-0.32500
10416.664;-0.30000
10419.442;-0.31000
10422.219;-0.30500
10424.997;-0.31500
10427.775;-0.33000
10430.553;-0.33000
10433.330;-0.33000
10436.108;-0.32000
10438.886;-0.32500
10441.664;-0.32500
10444.442;-0.33500
10447.219;-0.32500
10449.997;-0.31500
10452.775;-0.31000
10455.553;-0.31500
10458.330;-0.32000
10461.108;-0.32500
10463.886;-0.31500
10466.664;-0.31000
10469.442;-0.30500
10472.219;-0.31000
10474.997;-0.31500
10477.775;-0.32000
10480.553;-0.31500
10483.330;-0.31000
10486.108;-0.29500
10488.886;-0.29500
10491.664;-0.30500
10494.442;-0.31000
10497.219;-0.30000
10499.997;-0.28000
10502.775;-0.27500
10505.553;-0.26500
10508.330;-0.27500
10511.108;-0.27500
10513.886;-0.26000
10516.664;-0.24000
10519.441;-0.24000
10522.219;-0.23500
10524.997;-0.24000
10527.775;-0.23500
10530.553;-0.22500
10533.330;-0.21500
10536.108;-0.20500
10538.886;-0.20500
10541.664;-0.21000
10544.441;-0.21500
10547.219;-0.22000
10549.997;-0.22000
10552.775;-0.21500
10555.553;-0.22000
10558.330;-0.22000
10561.108;-0.23000
10563.886;-0.23000
10566.664;-0.24000
10569.441;-0.21000
10572.219;-0.22000
10574.997;-0.23000
10577.775;-0.25500
10580.553;-0.23500
10583.330;-0.21000
10586.108;-0.19000
10588.886;-0.20500
10591.664;-0.22500
10594.441;-0.26000
10597.219;-0.27500
10599.997;-0.28000
10602.775;-0.28500
10605.553;-0.30500
10608.330;-0.32000
10611.108;-0.31500
10613.886;-0.33500
10616.664;-0.32500
10619.441;-0.33500
10622.219;-0.32000
10624.997;-0.32500
10627.775;-0.32000
10630.553;-0.32500
10633.330;-0.32500
10636.108;-0.31000
10638.886;-0.30500
10641.664;-0.32000
10644.441;-0.32000
10647.219;-0.33000
10649.997;-0.32000
10652.775;-0.32000
10655.553;-0.33000
10658.330;-0.33000
10661.108;-0.36000
10663.886;-0.35500
10666.664;-0.33000
10669.441;-0.32500
10672.219;-0.32500
10674.997;-0.33500
10677.775;-0.35000
10680.553;-0.34000
10683.330;-0.34500
10686.108;-0.35500
10688.886;-0.38500
10691.664;-0.42500
10694.441;-0.45000
10697.219;-0.47000
10699.997;-0.48500
10702.775;-0.51000
10705.553;-0.51500
10708.330;-0.45500
10711.108;-0.32500
10713.886;-0.16500
10716.664;0.01000
10719.441;0.25000
10722.219;0.51500
10724.997;0.74000
10727.775;0.88500
10730.553;0.93500
10733.330;0.83500
10736.108;0.52500
10738.886;0.12000
10741.664;-0.23000
10744.441;-0.42500
10747.219;-0.45500
10749.997;-0.42000
10752.775;-0.38000
10755.553;-0.36000
10758.330;-0.36500
10761.108;-0.37500
10763.886;-0.38000
10766.664;-0.35500
10769.441;-0.35500
10772.219;-0.37000
10774.997;-0.37500
10777.775;-0.38500
10780.553;-0.38000
10783.330;-0.36500
10786.108;-0.37000
10788.886;-0.37000
10791.664;-0.36500
10794.441;-0.38000
10797.219;-0.37000
10799.997;-0.37500
10802.775;-0.36500
10805.553;-0.37000
10808.330;-0.38000
10811.108;-0.37500
10813.886;-0.36500
10816.664;-0.36000
10819.441;-0.36000
10822.219;-0.35500
10824.997;-0.35500
10827.775;-0.37000
10830.553;-0.36500
10833.330;-0.35500
10836.108;-0.35000
10838.886;-0.35000
10841.664;-0.35000
10844.441;-0.36000
10847.219;-0.36000
10849.997;-0.36000
10852.775;-0.35000
10855.553;-0.35500
10858.330;-0.36500
10861.108;-0.37000
10863.886;-0.36000
10866.664;-0.35000
10869.441;-0.35500
10872.219;-0.35000
10874.997;-0.35500
10877.775;-0.37000
10880.553;-0.37500
10883.330;-0.36000
10886.108;-0.35000
10888.886;-0.34500
10891.664;-0.35000
10894.441;-0.37000
10897.219;-0.37000
10899.997;-0.35500
10902.775;-0.35000
10905.553;-0.34500
10908.330;-0.36000
10911.108;-0.37000
10913.886;-0.36500
10916.664;-0.36000
10919.441;-0.35000
10922.219;-0.35500
10924.997;-0.36500
10927.775;-0.36500
10930.552;-0.37000
10933.330;-0.36500
10936.108;-0.35000
10938.886;-0.35000
10941.664;-0.36000
10944.441;-0.36000
10947.219;-0.35500
10949.997;-0.34500
10952.775;-0.35000
10955.552;-0.34500
10958.330;-0.35500
10961.108;-0.37000
10963.886;-0.36500
10966.664;-0.35500
10969.441;-0.36000
10972.219;-0.36500
10974.997;-0.36500
10977.775;-0.38000
10980.552;-0.38500
10983.330;-0.37500
10986.108;-0.37000
10988.886;-0.37500
10991.664;-0.38500
10994.441;-0.39500
10997.219;-0.37500
10999.997;-0.38500
11002.775;-0.38000
11005.552;-0.37000
11008.330;-0.38500
11011.108;-0.38500
11013.886;-0.38000
11016.664;-0.37000
11019.441;-0.36000
11022.219;-0.35000
11024.997;-0.33500
11027.775;-0.33000
11030.552;-0.31500
11033.330;-0.29500
11036.108;-0.29000
11038.886;-0.29000
11041.664;-0.28500
11044.441;-0.29000
11047.219;-0.28000
11049.997;-0.28000
11052.775;-0.26000
11055.552;-0.25500
11058.330;-0.27000
11061.108;-0.27500
11063.886;-0.26000
11066.664;-0.25000
11069.441;-0.24500
11072.219;-0.25000
11074.997;-0.26000
11077.775;-0.26500
11080.552;-0.24500
11083.330;-0.23500
11086.108;-0.24500
11088.886;-0.24000
11091.664;-0.25000
11094.441;-0.26500
11097.219;-0.25000
11099.997;-0.25000
11102.775;-0.25000
11105.552;-0.25000
11108.330;-0.25500
11111.108;-0.26500
11113.886;-0.26000
11116.664;-0.24000
11119.441;-0.25000
11122.219;-0.24500
11124.997;-0.25000
11127.775;-0.27000
11130.552;-0.26500
11133.330;-0.27000
11136.108;-0.26500
11138.886;-0.26500
11141.664;-0.27500
11144.441;-0.28500
11147.219;-0.27500
11149.997;-0.26500
11152.775;-0.27000
11155.552;-0.27000
11158.330;-0.28000
11161.108;-0.28500
11163.886;-0.28500
11166.664;-0.28000
11169.441;-0.28500
11172.219;-0.28000
11174.997;-0.28500
11177.775;-0.30000
11180.552;-0.29000
11183.330;-0.28500
11186.108;-0.27000
11188.886;-0.28000
11191.664;-0.29500
11194.441;-0.29000
11197.219;-0.29000
11199.997;-0.29500
11202.775;-0.29000
11205.552;-0.28500
11208.330;-0.30500
11211.108;-0.31500
11213.886;-0.31000
11216.664;-0.31000
11219.441;-0.29000
11222.219;-0.29500
11224.997;-0.31000
11227.775;-0.32000
11230.552;-0.31500
11233.330;-0.31000
11236.108;-0.30000
11238.886;-0.30000
11241.664;-0.31500
11244.441;-0.32000
11247.219;-0.31500
11249.997;-0.32000
11252.775;-0.29000
11255.552;-0.30000
11258.330;-0.30000
11261.108;-0.31500
11263.886;-0.31000
11266.664;-0.30000
11269.441;-0.30000
11272.219;-0.29000
11274.997;-0.31000
11277.775;-0.32500
11280.552;-0.31500
11283.330;-0.30500
11286.108;-0.30500
11288.886;-0.30500
11291.664;-0.31500
11294.441;-0.32500
11297.219;-0.32000
11299.997;-0.31000
11302.775;-0.30000
11305.552;-0.29500
11308.330;-0.31500
11311.108;-0.32000
11313.886;-0.30500
11316.663;-0.30000
11319.441;-0.29000
11322.219;-0.29500
11324.997;-0.29500
11327.775;-0.31000
11330.552;-0.29500
11333.330;-0.29500
11336.108;-0.28500
11338.886;-0.29500
11341.663;-0.29500
11344.441;-0.31000
11347.219;-0.30000
11349.997;-0.28500
11352.775;-0.28000
11355.552;-0.27500
11358.330;-0.28000
11361.108;-0.26500
11363.886;-0.24500
11366.663;-0.23000
11369.441;-0.24000
11372.219;-0.24000
11374.997;-0.24000
11377.775;-0.24500
11380.552;-0.22000
11383.330;-0.22000
11386.108;-0.21500
11388.886;-0.20000
11391.663;-0.20000
11394.441;-0.21000
11397.219;-0.20500
11399.997;-0.19500
11402.775;-0.20500
11405.552;-0.21000
11408.330;-0.21500
11411.108;-0.22500
11413.886;-0.22500
11416.663;-0.20000
11419.441;-0.20000
11422.219;-0.21000
11424.997;-0.22500
11427.775;-0.22000
11430.552;-0.19500
11433.330;-0.18000
11436.108;-0.17500
11438.886;-0.20500
11441.663;-0.24500
11444.441;-0.26500
11447.219;-0.27500
11449.997;-0.28000
11452.775;-0.28500
11455.552;-0.30000
11458.330;-0.31000
11461.108;-0.32500
11463.886;-0.32000
11466.663;-0.32500
11469.441;-0.31000
11472.219;-0.32500
11474.997;-0.33000
11477.775;-0.34000
11480.552;-0.33500
11483.330;-0.33000
11486.108;-0.32500
11488.886;-0.32000
11491.663;-0.34000
11494.441;-0.34500
11497.219;-0.34000
11499.997;-0.33000
11502.775;-0.33500
11505.552;-0.33000
11508.330;-0.34000
11511.108;-0.34000
11513.886;-0.33500
11516.663;-0.33500
11519.441;-0.33000
11522.219;-0.33500
11524.997;-0.34500
11527.775;-0.37500
11530.552;-0.39500
11533.330;-0.43000
11536.108;-0.44000
11538.886;-0.45000
11541.663;-0.45000
11544.441;-0.47500
11547.219;-0.48000
11549.997;-0.51000
11552.775;-0.55000
11555.552;-0.57500
11558.330;-0.54500
11561.108;-0.49000
11563.886;-0.37500
11566.663;-0.25000
11569.441;-0.12000
11572.219;0.06000
11574.997;0.28500
11577.775;0.52500
11580.552;0.74000
11583.330;0.86000
11586.108;0.89000
11588.886;0.73000
11591.663;0.42500
11594.441;0.01500
11597.219;-0.28500
11599.997;-0.43500
11602.775;-0.45000
11605.552;-0.43500
11608.330;-0.38500
11611.108;-0.38000
11613.886;-0.37000
11616.663;-0.37000
11619.441;-0.37000
11622.219;-0.36000
11624.997;-0.36000
11627.775;-0.37000
11630.552;-0.38500
11633.330;-0.36500
11636.108;-0.36000
11638.886;-0.36500
11641.663;-0.36500
11644.441;-0.37500
11647.219;-0.38500
11649.997;-0.36000
11652.775;-0.36500
11655.552;-0.35500
11658.330;-0.37500
11661.108;-0.38000
11663.886;-0.37500
11666.663;-0.35500
11669.441;-0.35500
11672.219;-0.36000
11674.997;-0.36500
11677.775;-0.38000
11680.552;-0.37000
11683.330;-0.35500
11686.108;-0.35000
11688.886;-0.35500
11691.663;-0.36500
11694.441;-0.38000
11697.219;-0.36500
11699.997;-0.35500
11702.775;-0.35500
11705.552;-0.36500
11708.330;-0.38500
11711.108;-0.39000
11713.886;-0.37500
11716.663;-0.35500
11719.441;-0.36500
11722.219;-0.36000
11724.997;-0.35500
11727.774;-0.36500
11730.552;-0.36500
11733.330;-0.35500
11736.108;-0.34500
11738.886;-0.34500
11741.663;-0.36500
11744.441;-0.36000
11747.219;-0.37500
11749.997;-0.35500
11752.774;-0.36000
11755.552;-0.36500
11758.330;-0.36500
11761.108;-0.37000
11763.886;-0.36000
11766.663;-0.35500
11769.441;-0.36000
11772.219;-0.36500
11774.997;-0.38500
11777.774;-0.38000
11780.552;-0.36500
11783.330;-0.35500
11786.108;-0.33500
11788.886;-0.36000
11791.663;-0.36000
11794.441;-0.38500
11797.219;-0.38000
11799.997;-0.37500
11802.774;-0.36000
11805.552;-0.36000
11808.330;-0.36500
11811.108;-0.37500
11813.886;-0.36500
11816.663;-0.35500
11819.441;-0.36000
11822.219;-0.35000
11824.997;-0.36000
11827.774;-0.37000
11830.552;-0.37000
11833.330;-0.36500
11836.108;-0.37000
11838.886;-0.38000
11841.663;-0.39000
11844.441;-0.38500
11847.219;-0.38000
11849.997;-0.37000
11852.774;-0.37000
11855.552;-0.36500
11858.330;-0.36500
11861.108;-0.39000
11863.886;-0.37500
11866.663;-0.37000
11869.441;-0.35500
11872.219;-0.36500
11874.997;-0.36000
11877.774;-0.37000
11880.552;-0.35000
11883.330;-0.34000
11886.108;-0.32500
11888.886;-0.32000
11891.663;-0.31500
11894.441;-0.32500
11897.219;-0.31000
11899.997;-0.29500
11902.774;-0.28500
11905.552;-0.29000
11908.330;-0.29000
11911.108;-0.27500
11913.886;-0.27000
11916.663;-0.26500
11919.441;-0.26000
11922.219;-0.26000
11924.997;-0.27500
11927.774;-0.27500
11930.552;-0.28500
11933.330;-0.26000
11936.108;-0.26000
11938.886;-0.26500
11941.663;-0.27000
11944.441;-0.28000
11947.219;-0.27500
11949.997;-0.25500
11952.774;-0.25500
11955.552;-0.24500
11958.330;-0.25500
11961.108;-0.26000
11963.886;-0.25500
11966.663;-0.25500
11969.441;-0.26000
11972.219;-0.26500
11974.997;-0.28000
11977.774;-0.29500
11980.552;-0.29000
11983.330;-0.27500
11986.108;-0.28000
11988.886;-0.28000
11991.663;-0.28000
11994.441;-0.28500
11997.219;-0.28500
11999.997;-0.28000
12002.774;-0.27000
12005.552;-0.28500
12008.330;-0.30000
12011.108;-0.31000
12013.886;-0.30000
12016.663;-0.29000
12019.441;-0.28000
12022.219;-0.30000
12024.997;-0.29000
12027.774;-0.31000
12030.552;-0.30000
12033.330;-0.29500
12036.108;-0.29000
12038.886;-0.28500
12041.663;-0.29500
12044.441;-0.32500
12047.219;-0.31500
12049.997;-0.31000
12052.774;-0.30500
12055.552;-0.30000
12058.330;-0.31500
12061.108;-0.33000
12063.886;-0.32000
12066.663;-0.32000
12069.441;-0.31500
12072.219;-0.32000
12074.997;-0.32500
12077.774;-0.33500
12080.552;-0.33000
12083.330;-0.32500
12086.108;-0.31000
12088.886;-0.31500
12091.663;-0.31500
12094.441;-0.33500
12097.219;-0.32000
12099.997;-0.31000
12102.774;-0.31500
12105.552;-0.31000
12108.330;-0.32000
12111.108;-0.33500
12113.885;-0.32500
12116.663;-0.32500
12119.441;-0.31500
12122.219;-0.31000
12124.997;-0.32000
12127.774;-0.33000
12130.552;-0.32000
12133.330;-0.32000
12136.108;-0.31000
12138.885;-0.33000
12141.663;-0.33000
12144.441;-0.34500
12147.219;-0.34000
12149.997;-0.33000
12152.774;-0.32000
12155.552;-0.31500
12158.330;-0.33500
12161.108;-0.33500
12163.885;-0.33000
12166.663;-0.31000
12169.441;-0.31000
12172.219;-0.31500
12174.997;-0.33000
12177.774;-0.32000
12180.552;-0.31500
12183.330;-0.30000
12186.108;-0.28500
12188.885;-0.28000
12191.663;-0.26500
12194.441;-0.26000
12197.219;-0.26500
12199.997;-0.26000
12202.774;-0.25500
12205.552;-0.26000
12208.330;-0.25000
12211.108;-0.25500
12213.885;-0.24000
12216.663;-0.23000
12219.441;-0.20500
12222.219;-0.21000
12224.997;-0.22500
12227.774;-0.23500
12230.552;-0.22500
12233.330;-0.22500
12236.108;-0.23000
12238.885;-0.22500
12241.663;-0.24000
12244.441;-0.24000
12247.219;-0.23000
12249.997;-0.23500
12252.774;-0.25000
12255.552;-0.25000
12258.330;-0.25500
12261.108;-0.23500
12263.885;-0.22000
12266.663;-0.20500
12269.441;-0.21500
12272.219;-0.24000
12274.997;-0.26500
12277.774;-0.28000
12280.552;-0.28000
12283.330;-0.27000
12286.108;-0.27000
12288.885;-0.29000
12291.663;-0.32000
12294.441;-0.33500
12297.219;-0.34000
12299.997;-0.33000
12302.774;-0.33000
12305.552;-0.33500
12308.330;-0.35000
12311.108;-0.36000
12313.885;-0.35000
12316.663;-0.35000
12319.441;-0.34500
12322.219;-0.35000
12324.997;-0.35500
12327.774;-0.36500
12330.552;-0.36000
12333.330;-0.35500
12336.108;-0.35000
12338.885;-0.34000
12341.663;-0.36000
12344.441;-0.37000
12347.219;-0.37000
12349.997;-0.35500
12352.774;-0.34500
12355.552;-0.35000
12358.330;-0.37000
12361.108;-0.38500
12363.885;-0.41000
12366.663;-0.44000
12369.441;-0.46000
12372.219;-0.49000
12374.997;-0.54000
12377.774;-0.56500
12380.552;-0.55000
12383.330;-0.48500
12386.108;-0.36500
12388.885;-0.25500
12391.663;-0.12500
12394.441;0.09000
12397.219;0.36000
12399.997;0.60000
12402.774;0.75000
12405.552;0.79500
12408.330;0.70000
12411.108;0.44000
12413.885;0.09500
12416.663;-0.18500
12419.441;-0.37000
12422.219;-0.47000
12424.997;-0.49000
12427.774;-0.47000
12430.552;-0.44000
12433.330;-0.42500
12436.108;-0.41000
12438.885;-0.41000
12441.663;-0.41000
12444.441;-0.42000
12447.219;-0.40000
12449.997;-0.39500
12452.774;-0.40500
12455.552;-0.41000
12458.330;-0.40500
12461.108;-0.42000
12463.885;-0.39500
12466.663;-0.39500
12469.441;-0.39000
12472.219;-0.39500
12474.997;-0.39500
12477.774;-0.41000
12480.552;-0.40000
12483.330;-0.40000
12486.108;-0.41000
12488.885;-0.40000
12491.663;-0.40500
12494.441;-0.41000
12497.219;-0.41000
12499.996;-0.40000
12502.774;-0.39000
12505.552;-0.39000
12508.330;-0.40000
12511.108;-0.40000
12513.885;-0.39500
12516.663;-0.39000
12519.441;-0.38500
12522.219;-0.39000
12524.996;-0.41000
12527.774;-0.41000
12530.552;-0.41000
12533.330;-0.41500
12536.108;-0.41000
12538.885;-0.40500
12541.663;-0.42000
12544.441;-0.42000
12547.219;-0.42000
12549.996;-0.41500
12552.774;-0.41000
12555.552;-0.41500
12558.330;-0.42500
12561.108;-0.42500
12563.885;-0.42000
12566.663;-0.42500
12569.441;-0.42000
12572.219;-0.41000
12574.996;-0.41000
12577.774;-0.41500
12580.552;-0.41000
12583.330;-0.41000
12586.108;-0.40000
12588.885;-0.40500
12591.663;-0.40500
12594.441;-0.42500
12597.219;-0.42000
12599.996;-0.41000
12602.774;-0.40000
12605.552;-0.40500
12608.330;-0.41500
12611.108;-0.42000
12613.885;-0.41000
12616.663;-0.41000
12619.441;-0.40000
12622.219;-0.41000
12624.996;-0.41500
12627.774;-0.42000
12630.552;-0.41000
12633.330;-0.40000
12636.108;-0.39000
12638.885;-0.40000
12641.663;-0.41500
12644.441;-0.42000
12647.219;-0.41500
12649.996;-0.41500
12652.774;-0.40000
12655.552;-0.41500
12658.330;-0.43000
12661.108;-0.45000
12663.885;-0.44000
12666.663;-0.44000
12669.441;-0.43500
12672.219;-0.43500
12674.996;-0.44000
12677.774;-0.45000
12680.552;-0.43500
12683.330;-0.44000
12686.108;-0.43000
12688.885;-0.44000
12691.663;-0.44500
12694.441;-0.44500
12697.219;-0.44000
12699.996;-0.43500
12702.774;-0.42000
12705.552;-0.41500
12708.330;-0.41000
12711.108;-0.40500
12713.885;-0.38000
12716.663;-0.37500
12719.441;-0.37000
12722.219;-0.37000
12724.996;-0.37000
12727.774;-0.36000
12730.552;-0.35500
12733.330;-0.32500
12736.108;-0.30500
12738.885;-0.31000
12741.663;-0.32000
12744.441;-0.32500
12747.219;-0.32500
12749.996;-0.31500
12752.774;-0.30000
12755.552;-0.30500
12758.330;-0.32000
12761.108;-0.33000
12763.885;-0.33000
12766.663;-0.31000
12769.441;-0.31000
12772.219;-0.31000
12774.996;-0.30500
12777.774;-0.31000
12780.552;-0.32000
12783.330;-0.30500
12786.108;-0.30000
12788.885;-0.30000
12791.663;-0.30500
12794.441;-0.32000
12797.219;-0.32000
12799.996;-0.31500
12802.774;-0.31500
12805.552;-0.31000
12808.330;-0.33000
12811.108;-0.33500
12813.885;-0.33500
12816.663;-0.32000
12819.441;-0.31500
12822.219;-0.31500
12824.996;-0.32500
12827.774;-0.33000
12830.552;-0.33500
12833.330;-0.32000
12836.108;-0.30000
12838.885;-0.30000
12841.663;-0.32000
12844.441;-0.32000
12847.219;-0.33000
12849.996;-0.32000
12852.774;-0.32000
12855.552;-0.32500
12858.330;-0.34000
12861.108;-0.35500
12863.885;-0.34500
12866.663;-0.35000
12869.441;-0.34500
12872.219;-0.34500
12874.996;-0.36000
12877.774;-0.36000
12880.552;-0.34500
12883.330;-0.34000
12886.108;-0.34000
12888.885;-0.35500
12891.663;-0.35000
12894.441;-0.35000
12897.219;-0.35500
12899.996;-0.34000
12902.774;-0.33500
12905.552;-0.34000
12908.330;-0.35000
12911.107;-0.35500
12913.885;-0.35500
12916.663;-0.35500
12919.441;-0.34500
12922.219;-0.34500
12924.996;-0.35000
12927.774;-0.36000
12930.552;-0.36500
12933.330;-0.36500
12936.107;-0.35000
12938.885;-0.35000
12941.663;-0.36000
12944.441;-0.37000
12947.219;-0.36000
12949.996;-0.35000
12952.774;-0.33500
12955.552;-0.35000
12958.330;-0.35000
12961.107;-0.34500
12963.885;-0.34000
12966.663;-0.34000
12969.441;-0.34000
12972.219;-0.34000
12974.996;-0.34500
12977.774;-0.35000
12980.552;-0.36000
12983.330;-0.35000
12986.107;-0.33500
12988.885;-0.34500
12991.663;-0.35000
12994.441;-0.35000
12997.219;-0.35500
12999.996;-0.34000
13002.774;-0.33500
13005.552;-0.33000
13008.330;-0.34000
13011.107;-0.35500
13013.885;-0.35500
13016.663;-0.33000
13019.441;-0.31500
13022.219;-0.31500
13024.996;-0.31500
13027.774;-0.32000
13030.552;-0.30000
13033.330;-0.30000
13036.107;-0.28000
13038.885;-0.26500
13041.663;-0.28000
13044.441;-0.28500
13047.219;-0.26500
13049.996;-0.23500
13052.774;-0.23000
13055.552;-0.23000
13058.330;-0.24500
13061.107;-0.25500
13063.885;-0.25000
13066.663;-0.24500
13069.441;-0.25000
13072.219;-0.25500
13074.996;-0.26500
13077.774;-0.27000
13080.552;-0.29000
13083.330;-0.28000
13086.107;-0.27500
13088.885;-0.26000
13091.663;-0.25500
13094.441;-0.26000
13097.219;-0.27500
13099.996;-0.29500
13102.774;-0.30000
13105.552;-0.30500
13108.330;-0.33500
13111.107;-0.35500
13113.885;-0.35000
13116.663;-0.35000
13119.441;-0.35000
13122.219;-0.35500
13124.996;-0.37000
13127.774;-0.37000
13130.552;-0.36000
13133.330;-0.36500
13136.107;-0.35500
13138.885;-0.36500
13141.663;-0.37500
13144.441;-0.38500
13147.219;-0.38000
13149.996;-0.37500
13152.774;-0.35500
13155.552;-0.37000
13158.330;-0.38500
13161.107;-0.39000
13163.885;-0.39000
13166.663;-0.37000
13169.441;-0.36000
13172.219;-0.37000
13174.996;-0.38000
13177.774;-0.38500
13180.552;-0.38000
13183.330;-0.37500
13186.107;-0.37000
13188.885;-0.38000
13191.663;-0.40500
13194.441;-0.44500
13197.219;-0.46500
13199.996;-0.48000
13202.774;-0.48500
13205.552;-0.52500
13208.330;-0.55500
13211.107;-0.53500
13213.885;-0.45000
13216.663;-0.32500
13219.441;-0.18500
13222.219;-0.02500
13224.996;0.18500
13227.774;0.43000
13230.552;0.66000
13233.330;0.81500
13236.107;0.85000
13238.885;0.75000
13241.663;0.48500
13244.441;0.11000
13247.219;-0.21000
13249.996;-0.39000
13252.774;-0.46000
13255.552;-0.48500
13258.330;-0.47000
13261.107;-0.45000
13263.885;-0.42500
13266.663;-0.41500
13269.441;-0.40500
13272.219;-0.41500
13274.996;-0.41500
13277.774;-0.42000
13280.552;-0.40000
13283.330;-0.39500
13286.107;-0.38500
13288.885;-0.39500
13291.663;-0.40000
13294.441;-0.42000
13297.218;-0.41000
13299.996;-0.40000
13302.774;-0.40000
13305.552;-0.40500
13308.330;-0.40500
13311.107;-0.43500
13313.885;-0.42000
13316.663;-0.41000
13319.441;-0.40500
13322.218;-0.41500
13324.996;-0.43000
13327.774;-0.44000
13330.552;-0.43500
13333.330;-0.41500
13336.107;-0.42000
13338.885;-0.43000
13341.663;-0.41500
13344.441;-0.43000
13347.218;-0.42500
13349.996;-0.42000
13352.774;-0.42000
13355.552;-0.41500
13358.330;-0.42500
13361.107;-0.42500
13363.885;-0.42000
13366.663;-0.41000
13369.441;-0.41000
13372.218;-0.41000
13374.996;-0.42000
13377.774;-0.43000
13380.552;-0.42000
13383.330;-0.41500
13386.107;-0.39500
13388.885;-0.40500
13391.663;-0.41500
13394.441;-0.43000
13397.218;-0.42000
13399.996;-0.42000
13402.774;-0.41500
13405.552;-0.42000
13408.330;-0.42500
13411.107;-0.44000
13413.885;-0.43000
13416.663;-0.42500
13419.441;-0.41500
13422.218;-0.42000
13424.996;-0.42500
13427.774;-0.44000
13430.552;-0.43000
13433.330;-0.43000
13436.107;-0.42500
13438.885;-0.42000
13441.663;-0.41500
13444.441;-0.42500
13447.218;-0.43000
13449.996;-0.42500
13452.774;-0.41500
13455.552;-0.40500
13458.330;-0.40500
13461.107;-0.42500
13463.885;-0.41500
13466.663;-0.42000
13469.441;-0.42000
13472.218;-0.42000
13474.996;-0.43500
13477.774;-0.43500
13480.552;-0.44000
13483.330;-0.42000
13486.107;-0.43000
13488.885;-0.45000
13491.663;-0.45500
13494.441;-0.46500
13497.218;-0.46500
13499.996;-0.46500
13502.774;-0.46500
13505.552;-0.46500
13508.330;-0.47000
13511.107;-0.49000
13513.885;-0.48500
13516.663;-0.46000
13519.441;-0.45500
13522.218;-0.46000
13524.996;-0.45500
13527.774;-0.45500
13530.552;-0.44000
13533.330;-0.42500
13536.107;-0.41500
13538.885;-0.40000
13541.663;-0.40500
13544.441;-0.40000
13547.218;-0.38500
13549.996;-0.36500
13552.774;-0.36500
13555.552;-0.36000
13558.330;-0.37000
13561.107;-0.37500
13563.885;-0.35500
13566.663;-0.34000
13569.441;-0.33000
13572.218;-0.33000
13574.996;-0.33000
13577.774;-0.34000
13580.552;-0.33500
13583.330;-0.32000
13586.107;-0.30500
13588.885;-0.31500
13591.663;-0.32000
13594.441;-0.32000
13597.218;-0.32000
13599.996;-0.31500
13602.774;-0.31000
13605.552;-0.31000
13608.330;-0.31500
13611.107;-0.33000
13613.885;-0.32000
13616.663;-0.32000
13619.441;-0.31000
13622.218;-0.32000
13624.996;-0.33000
13627.774;-0.34000
13630.552;-0.33000
13633.330;-0.32500
13636.107;-0.32500
13638.885;-0.32000
13641.663;-0.34000
13644.441;-0.35000
13647.218;-0.34000
13649.996;-0.32000
13652.774;-0.31500
13655.552;-0.32500
13658.330;-0.34000
13661.107;-0.34500
13663.885;-0.34500
13666.663;-0.34000
13669.441;-0.33000
13672.218;-0.33500
13674.996;-0.34500
13677.774;-0.36000
13680.552;-0.35500
13683.330;-0.34000
13686.107;-0.33000
13688.885;-0.33500
13691.663;-0.34500
13694.441;-0.36500
13697.218;-0.37000
13699.996;-0.35000
13702.774;-0.34000
13705.552;-0.33500
13708.329;-0.36000
13711.107;-0.35500
13713.885;-0.34000
13716.663;-0.33500
13719.441;-0.33500
13722.218;-0.32000
13724.996;-0.33500
13727.774;-0.35500
13730.552;-0.35000
13733.329;-0.34500
13736.107;-0.34000
13738.885;-0.33500
13741.663;-0.35000
13744.441;-0.37000
13747.218;-0.36000
13749.996;-0.35500
13752.774;-0.35000
13755.552;-0.34500
13758.329;-0.36500
13761.107;-0.36000
13763.885;-0.36000
13766.663;-0.35000
13769.441;-0.34500
13772.218;-0.35500
13774.996;-0.35500
13777.774;-0.36500
13780.552;-0.36000
13783.329;-0.34500
13786.107;-0.34500
13788.885;-0.35000
13791.663;-0.35500
13794.441;-0.36000
13797.218;-0.35500
13799.996;-0.35000
13802.774;-0.33500
13805.552;-0.33500
13808.329;-0.35500
13811.107;-0.34500
13813.885;-0.34000
13816.663;-0.33000
13819.441;-0.34000
13822.218;-0.34500
13824.996;-0.35000
13827.774;-0.35500
13830.552;-0.35000
13833.329;-0.33500
13836.107;-0.33000
13838.885;-0.33000
13841.663;-0.33000
13844.441;-0.33000
13847.218;-0.30500
13849.996;-0.28500
13852.774;-0.27500
13855.552;-0.28000
13858.329;-0.28500
13861.107;-0.29000
13863.885;-0.27500
13866.663;-0.26000
13869.441;-0.24500
13872.218;-0.24000
13874.996;-0.24000
13877.774;-0.24000
13880.552;-0.23500
13883.329;-0.22500
13886.107;-0.22000
13888.885;-0.23000
13891.663;-0.24000
13894.441;-0.25500
13897.218;-0.25500
13899.996;-0.24000
13902.774;-0.24000
13905.552;-0.25000
13908.329;-0.27000
13911.107;-0.27000
13913.885;-0.24000
13916.663;-0.23000
13919.441;-0.22500
13922.218;-0.26500
13924.996;-0.29500
13927.774;-0.30500
13930.552;-0.32500
13933.329;-0.31500
13936.107;-0.32500
13938.885;-0.33000
13941.663;-0.34500
13944.441;-0.36000
13947.218;-0.36500
13949.996;-0.35500
13952.774;-0.34500
13955.552;-0.34000
13958.329;-0.33500
13961.107;-0.36000
13963.885;-0.35500
13966.663;-0.34500
13969.441;-0.33500
13972.218;-0.35500
13974.996;-0.35000
13977.774;-0.37500
13980.552;-0.37500
13983.329;-0.36500
13986.107;-0.36500
13988.885;-0.35000
13991.663;-0.37000
13994.441;-0.38000
13997.218;-0.36500
13999.996;-0.37000
14002.774;-0.35500
14005.552;-0.37000
14008.329;-0.38000
14011.107;-0.38500
14013.885;-0.38500
14016.663;-0.40000
14019.441;-0.43000
14022.218;-0.46500
14024.996;-0.48500
14027.774;-0.52000
14030.552;-0.55500
14033.329;-0.52500
14036.107;-0.43500
14038.885;-0.30500
14041.663;-0.15500
14044.441;0.01000
14047.218;0.26000
14049.996;0.53500
14052.774;0.76000
14055.552;0.89000
14058.329;0.90500
14061.107;0.70500
14063.885;0.36000
14066.663;-0.03000
14069.441;-0.32000
14072.218;-0.45500
14074.996;-0.47500
14077.774;-0.44000
14080.552;-0.39500
14083.329;-0.38000
14086.107;-0.38000
14088.885;-0.38500
14091.663;-0.39500
14094.440;-0.40000
14097.218;-0.40500
14099.996;-0.39500
14102.774;-0.41000
14105.552;-0.39000
14108.329;-0.39500
14111.107;-0.40500
14113.885;-0.40500
14116.663;-0.39500
14119.440;-0.38500
14122.218;-0.38500
14124.996;-0.40500
14127.774;-0.40500
14130.552;-0.40000
14133.329;-0.38500
14136.107;-0.38000
14138.885;-0.38500
14141.663;-0.40500
14144.440;-0.41000
14147.218;-0.40000
14149.996;-0.39500
14152.774;-0.38500
14155.552;-0.39500
14158.329;-0.41000
14161.107;-0.40500
14163.885;-0.40500
14166.663;-0.39500
14169.440;-0.39000
14172.218;-0.39500
14174.996;-0.39500
14177.774;-0.40500
14180.552;-0.41000
14183.329;-0.40000
14186.107;-0.38500
14188.885;-0.39500
14191.663;-0.40000
14194.440;-0.39500
14197.218;-0.38500
14199.996;-0.38500
14202.774;-0.37500
14205.552;-0.37500
14208.329;-0.38000
14211.107;-0.39500
14213.885;-0.38500
14216.663;-0.39000
14219.440;-0.38500
14222.218;-0.38000
14224.996;-0.39000
14227.774;-0.40000
14230.552;-0.40000
14233.329;-0.39000
14236.107;-0.36500
14238.885;-0.37500
14241.663;-0.38500
14244.440;-0.40000
14247.218;-0.40000
14249.996;-0.39000
14252.774;-0.38000
14255.552;-0.37500
14258.329;-0.38500
14261.107;-0.39500
14263.885;-0.38000
14266.663;-0.37000
14269.440;-0.36500
14272.218;-0.36500
14274.996;-0.37500
14277.774;-0.38500
14280.552;-0.37500
14283.329;-0.37500
14286.107;-0.36500
14288.885;-0.37000
14291.663;-0.37500
14294.440;-0.40000
14297.218;-0.39500
14299.996;-0.40500
14302.774;-0.37000
14305.552;-0.38500
14308.329;-0.40000
14311.107;-0.41000
14313.885;-0.40000
14316.663;-0.39500
14319.440;-0.37500
14322.218;-0.38000
14324.996;-0.38500
14327.774;-0.40500
14330.552;-0.38500
14333.329;-0.37500
14336.107;-0.37000
14338.885;-0.36500
14341.663;-0.36500
14344.440;-0.35000
14347.218;-0.35500
14349.996;-0.32000
14352.774;-0.31000
14355.552;-0.31000
14358.329;-0.30500
14361.107;-0.31000
14363.885;-0.29000
14366.663;-0.28000
14369.440;-0.28000
14372.218;-0.27000
14374.996;-0.28000
14377.774;-0.28500
14380.552;-0.28000
14383.329;-0.28500
14386.107;-0.26500
14388.885;-0.27000
14391.663;-0.27500
14394.440;-0.29000
14397.218;-0.29000
14399.996;-0.27500
14402.774;-0.27500
14405.552;-0.27000
14408.329;-0.27500
14411.107;-0.29000
14413.885;-0.28500
14416.663;-0.28500
14419.440;-0.26000
14422.218;-0.26000
14424.996;-0.27500
14427.774;-0.28500
14430.552;-0.27500
14433.329;-0.26500
14436.107;-0.27000
14438.885;-0.28000
14441.663;-0.29000
14444.440;-0.29500
14447.218;-0.30000
14449.996;-0.28000
14452.774;-0.28000
14455.552;-0.27500
14458.329;-0.29000
14461.107;-0.30000
14463.885;-0.30500
14466.663;-0.28500
14469.440;-0.28500
14472.218;-0.28500
14474.996;-0.29500
14477.774;-0.30000
14480.552;-0.30000
14483.329;-0.29500
14486.107;-0.28000
14488.885;-0.29500
14491.663;-0.29000
14494.440;-0.30500
14497.218;-0.30500
14499.996;-0.30000
14502.774;-0.28500
14505.551;-0.28500
14508.329;-0.31000
14511.107;-0.31500
14513.885;-0.30500
14516.663;-0.30500
14519.440;-0.29500
14522.218;-0.30000
14524.996;-0.32000
14527.774;-0.33500
14530.551;-0.32000
14533.329;-0.32000
14536.107;-0.31000
14538.885;-0.31500
14541.663;-0.31000
14544.440;-0.33000
14547.218;-0.32000
14549.996;-0.31000
14552.774;-0.30500
14555.551;-0.30500
14558.329;-0.31500
14561.107;-0.31500
14563.885;-0.31500
14566.663;-0.30500
14569.440;-0.30500
14572.218;-0.30000
14574.996;-0.31000
14577.774;-0.31000
14580.551;-0.31000
14583.329;-0.31000
14586.107;-0.29500
14588.885;-0.30000
14591.663;-0.32500
14594.440;-0.32500
14597.218;-0.33000
14599.996;-0.32000
14602.774;-0.31000
14605.551;-0.30500
14608.329;-0.31500
14611.107;-0.33000
14613.885;-0.32000
14616.663;-0.31000
14619.440;-0.30500
14622.218;-0.30000
14624.996;-0.29500
14627.774;-0.32000
14630.551;-0.31000
14633.329;-0.30000
14636.107;-0.27500
14638.885;-0.27000
14641.663;-0.26000
14644.440;-0.25000
14647.218;-0.23500
14649.996;-0.23000
14652.774;-0.22500
14655.551;-0.23000
14658.329;-0.23000
14661.107;-0.24000
14663.885;-0.23000
14666.663;-0.22500
14669.440;-0.20500
14672.218;-0.20500
14674.996;-0.20000
14677.774;-0.21000
14680.551;-0.19500
14683.329;-0.20000
14686.107;-0.19000
14688.885;-0.20000
14691.663;-0.21000
14694.440;-0.22500
14697.218;-0.22500
14699.996;-0.22000
14702.774;-0.22000
14705.551;-0.22000
14708.329;-0.23000
14711.107;-0.25000
14713.885;-0.24500
14716.663;-0.23000
14719.440;-0.20500
14722.218;-0.18500
14724.996;-0.19500
14727.774;-0.22500
14730.551;-0.25000
14733.329;-0.25500
14736.107;-0.26500
14738.885;-0.27500
14741.663;-0.30500
14744.440;-0.32000
14747.218;-0.32500
14749.996;-0.32500
14752.774;-0.33000
14755.551;-0.33000
14758.329;-0.32500
14761.107;-0.33500
14763.885;-0.34000
14766.663;-0.33500
14769.440;-0.32000
14772.218;-0.33500
14774.996;-0.34500
14777.774;-0.35500
14780.551;-0.35000
14783.329;-0.35500
14786.107;-0.35000
14788.885;-0.34500
14791.663;-0.34000
14794.440;-0.35500
14797.218;-0.35000
14799.996;-0.34000
14802.774;-0.34000
14805.551;-0.34000
14808.329;-0.35500
14811.107;-0.40000
14813.885;-0.43500
14816.663;-0.45500
14819.440;-0.47000
14822.218;-0.50000
14824.996;-0.54000
14827.774;-0.54500
14830.551;-0.46500
14833.329;-0.35500
14836.107;-0.21000
14838.885;-0.03500
14841.663;0.18500
14844.440;0.43500
14847.218;0.67500
14849.996;0.82000
14852.774;0.82500
14855.551;0.64000
14858.329;0.32000
14861.107;-0.07000
14863.885;-0.34000
14866.663;-0.44500
14869.440;-0.44500
14872.218;-0.41000
14874.996;-0.38000
14877.774;-0.37500
14880.551;-0.37500
14883.329;-0.37000
14886.107;-0.36500
14888.885;-0.36000
14891.662;-0.37000
14894.440;-0.37500
14897.218;-0.37000
14899.996;-0.36000
14902.774;-0.35000
14905.551;-0.35500
14908.329;-0.36500
14911.107;-0.38000
14913.885;-0.38000
14916.662;-0.37000
14919.440;-0.36500
14922.218;-0.36500
14924.996;-0.38000
14927.774;-0.38500
14930.551;-0.39000
14933.329;-0.38000
14936.107;-0.37500
14938.885;-0.37500
14941.662;-0.38000
14944.440;-0.39000
14947.218;-0.38000
14949.996;-0.37500
14952.774;-0.37000
14955.551;-0.36500
14958.329;-0.37500
14961.107;-0.38500
14963.885;-0.36500
14966.662;-0.36000
14969.440;-0.35000
14972.218;-0.35500
14974.996;-0.35500
14977.774;-0.37000
14980.551;-0.36500
14983.329;-0.35000
14986.107;-0.36000
14988.885;-0.36500
14991.662;-0.36500
14994.440;-0.37500
14997.218;-0.37500
14999.996;-0.35500
15002.774;-0.35500
15005.551;-0.37000
15008.329;-0.37500
15011.107;-0.38000
15013.885;-0.38500
15016.662;-0.37000
15019.440;-0.37000
15022.218;-0.36000
15024.996;-0.37000
15027.774;-0.37500
15030.551;-0.36500
15033.329;-0.35500
15036.107;-0.34500
15038.885;-0.36000
15041.662;-0.35500
15044.440;-0.36500
15047.218;-0.36000
15049.996;-0.34500
15052.774;-0.33500
15055.551;-0.33500
15058.329;-0.35500
15061.107;-0.35500
15063.885;-0.35000
15066.662;-0.34000
15069.440;-0.35000
15072.218;-0.35000
15074.996;-0.35500
15077.774;-0.36500
15080.551;-0.36000
15083.329;-0.36500
15086.107;-0.36500
15088.885;-0.36500
15091.662;-0.37000
15094.440;-0.37500
15097.218;-0.38000
15099.996;-0.36500
15102.774;-0.35000
15105.551;-0.36000
15108.329;-0.36500
15111.107;-0.38000
15113.885;-0.37500
15116.662;-0.37000
15119.440;-0.36000
15122.218;-0.36500
15124.996;-0.37500
15127.774;-0.38000
15130.551;-0.37500
15133.329;-0.36000
15136.107;-0.35500
15138.885;-0.35500
15141.662;-0.35500
15144.440;-0.35000
15147.218;-0.35000
15149.996;-0.34000
15152.774;-0.33000
15155.551;-0.32500
15158.329;-0.33500
15161.107;-0.33500
15163.885;-0.33000
15166.662;-0.31000
15169.440;-0.30000
15172.218;-0.29500
15174.996;-0.30500
15177.774;-0.31000
15180.551;-0.28500
15183.329;-0.28500
15186.107;-0.26500
15188.885;-0.27000
15191.662;-0.28500
15194.440;-0.29000
15197.218;-0.27500
15199.996;-0.27000
15202.774;-0.25500
15205.551;-0.26500
15208.329;-0.26500
15211.107;-0.27500
15213.885;-0.27000
15216.662;-0.26000
15219.440;-0.25000
15222.218;-0.26000
15224.996;-0.27000
15227.774;-0.28000
15230.551;-0.29000
15233.329;-0.29000
15236.107;-0.28000
15238.885;-0.28000
15241.662;-0.29000
15244.440;-0.30500
15247.218;-0.30000
15249.996;-0.30000
15252.774;-0.29500
15255.551;-0.30000
15258.329;-0.29000
15261.107;-0.30000
15263.885;-0.31000
15266.662;-0.31000
15269.440;-0.29500
15272.218;-0.29500
15274.996;-0.30000
15277.773;-0.32000
15280.551;-0.31500
15283.329;-0.31500
15286.107;-0.30000
15288.885;-0.31000
15291.662;-0.30500
15294.440;-0.31500
15297.218;-0.30500
15299.996;-0.30500
15302.773;-0.30500
15305.551;-0.30000
15308.329;-0.30500
15311.107;-0.31000
15313.885;-0.31500
15316.662;-0.31500
15319.440;-0.31500
15322.218;-0.32000
15324.996;-0.33500
15327.773;-0.34500
15330.551;-0.33500
15333.329;-0.31000
15336.107;-0.32500
15338.885;-0.32000
15341.662;-0.33000
15344.440;-0.32500
15347.218;-0.32500
15349.996;-0.32000
15352.773;-0.32000
15355.551;-0.31500
15358.329;-0.32500
15361.107;-0.34500
15363.885;-0.33500
15366.662;-0.32500
15369.440;-0.32500
15372.218;-0.33000
15374.996;-0.33500
15377.773;-0.34000
15380.551;-0.33500
15383.329;-0.32500
15386.107;-0.32000
15388.885;-0.31500
15391.662;-0.33500
15394.440;-0.34500
15397.218;-0.33500
15399.996;-0.32500
15402.773;-0.32500
15405.551;-0.32000
15408.329;-0.32500
15411.107;-0.33500
15413.885;-0.32000
15416.662;-0.32000
15419.440;-0.31000
15422.218;-0.31000
15424.996;-0.32000
15427.773;-0.33000
15430.551;-0.34000
15433.329;-0.32500
15436.107;-0.30500
15438.885;-0.30500
15441.662;-0.29000
15444.440;-0.29000
15447.218;-0.27000
15449.996;-0.26500
15452.773;-0.26500
15455.551;-0.26000
15458.329;-0.26000
15461.107;-0.27000
15463.885;-0.27500
15466.662;-0.26000
15469.440;-0.24500
15472.218;-0.23500
15474.996;-0.23000
15477.773;-0.24500
15480.551;-0.24000
15483.329;-0.23000
15486.107;-0.24000
15488.885;-0.22500
15491.662;-0.24000
15494.440;-0.24500
15497.218;-0.24000
15499.996;-0.22000
15502.773;-0.22000
15505.551;-0.23000
15508.329;-0.24500
15511.107;-0.25500
15513.885;-0.24000
15516.662;-0.21500
15519.440;-0.22500
15522.218;-0.25500
15524.996;-0.28500
15527.773;-0.31000
15530.551;-0.31000
15533.329;-0.33000
15536.107;-0.33500
15538.885;-0.35000
15541.662;-0.35000
15544.440;-0.36000
15547.218;-0.35500
15549.996;-0.34000
15552.773;-0.34000
15555.551;-0.33500
15558.329;-0.35000
15561.107;-0.36000
15563.885;-0.36000
15566.662;-0.34500
15569.440;-0.34500
15572.218;-0.35000
15574.996;-0.35000
15577.773;-0.36000
15580.551;-0.35000
15583.329;-0.35000
15586.107;-0.34500
15588.885;-0.35500
15591.662;-0.35500
15594.440;-0.37000
15597.218;-0.37500
15599.996;-0.39000
15602.773;-0.42500
15605.551;-0.45500
15608.329;-0.47500
15611.107;-0.50000
15613.885;-0.54000
15616.662;-0.57000
15619.440;-0.51000
15622.218;-0.41500
15624.996;-0.33500
15627.773;-0.26000
15630.551;-0.15000
15633.329;-0.00500
15636.107;0.20500
15638.885;0.47000
15641.662;0.68000
15644.440;0.82500
15647.218;0.92500
15649.996;0.97000
15652.773;0.88500
15655.551;0.69000
15658.329;0.41500
15661.107;0.10500
15663.885;-0.15000
15666.662;-0.34500
15669.440;-0.43500
15672.218;-0.46500
15674.996;-0.45500
15677.773;-0.42500
15680.551;-0.41500
15683.329;-0.39500
15686.107;-0.37500
15688.884;-0.37000
15691.662;-0.39500
15694.440;-0.40000
15697.218;-0.40000
15699.996;-0.41000
15702.773;-0.40000
15705.551;-0.40500
15708.329;-0.40000
15711.107;-0.40500
15713.884;-0.39500
15716.662;-0.39000
15719.440;-0.38000
15722.218;-0.38500
15724.996;-0.40500
15727.773;-0.42000
15730.551;-0.40500
15733.329;-0.40000
15736.107;-0.39000
15738.884;-0.38000
15741.662;-0.39500
15744.440;-0.39500
15747.218;-0.40000
15749.996;-0.39000
15752.773;-0.41000
15755.551;-0.40500
15758.329;-0.41000
15761.107;-0.41000
15763.884;-0.39500
15766.662;-0.38500
15769.440;-0.39500
15772.218;-0.40500
15774.996;-0.42000
15777.773;-0.43500
15780.551;-0.41500
15783.329;-0.40500
15786.107;-0.41000
15788.884;-0.40000
15791.662;-0.41000
15794.440;-0.41500
15797.218;-0.41000
15799.996;-0.40000
15802.773;-0.40500
15805.551;-0.39000
15808.329;-0.39000
15811.107;-0.40000
15813.884;-0.39000
15816.662;-0.39000
15819.440;-0.39000
15822.218;-0.39500
15824.996;-0.42000
15827.773;-0.42000
15830.551;-0.41500
15833.329;-0.41000
15836.107;-0.39500
15838.884;-0.39500
15841.662;-0.40000
15844.440;-0.41500
15847.218;-0.41500
15849.996;-0.40000
15852.773;-0.40000
15855.551;-0.38500
15858.329;-0.39000
15861.107;-0.41000
15863.884;-0.39500
15866.662;-0.39000
15869.440;-0.38000
15872.218;-0.37500
15874.996;-0.39000
15877.773;-0.40500
15880.551;-0.42000
15883.329;-0.41500
15886.107;-0.41500
15888.884;-0.41500
15891.662;-0.43500
15894.440;-0.46500
15897.218;-0.45500
15899.996;-0.46500
15902.773;-0.46000
15905.551;-0.44500
15908.329;-0.45500
15911.107;-0.46500
15913.884;-0.47500
15916.662;-0.45500
15919.440;-0.46000
15922.218;-0.45000
15924.996;-0.45500
15927.773;-0.47000
15930.551;-0.45500
15933.329;-0.44000
15936.107;-0.42000
15938.884;-0.41500
15941.662;-0.42000
15944.440;-0.41000
15947.218;-0.41000
15949.996;-0.37000
15952.773;-0.36000
15955.551;-0.35000
15958.329;-0.35000
15961.107;-0.34500
15963.884;-0.33500
15966.662;-0.32000
15969.440;-0.30000
15972.218;-0.32000
15974.996;-0.31500
15977.773;-0.34000
15980.551;-0.32500
15983.329;-0.30000
15986.107;-0.30000
15988.884;-0.30000
15991.662;-0.31000
15994.440;-0.33000
15997.218;-0.31000
15999.996;-0.30500
16002.773;-0.30000
16005.551;-0.30500
16008.329;-0.31500
16011.107;-0.33000
16013.884;-0.31000
16016.662;-0.30500
16019.440;-0.31000
16022.218;-0.30500
16024.996;-0.31000
16027.773;-0.31000
16030.551;-0.31000
16033.329;-0.30000
16036.107;-0.30500
16038.884;-0.31000
16041.662;-0.31000
16044.440;-0.32000
16047.218;-0.31500
16049.996;-0.33000
16052.773;-0.31500
16055.551;-0.32000
16058.329;-0.34000
16061.107;-0.34000
16063.884;-0.33500
16066.662;-0.33000
16069.440;-0.32000
16072.218;-0.32000
16074.995;-0.32500
16077.773;-0.35000
16080.551;-0.34000
16083.329;-0.33500
16086.107;-0.33500
16088.884;-0.34500
16091.662;-0.35000
16094.440;-0.36000
16097.218;-0.36000
16099.995;-0.34500
16102.773;-0.33500
16105.551;-0.33500
16108.329;-0.33500
16111.107;-0.34500
16113.884;-0.33500
16116.662;-0.33500
16119.440;-0.33000
16122.218;-0.33500
16124.995;-0.33500
16127.773;-0.35000
16130.551;-0.34500
16133.329;-0.35500
16136.107;-0.34500
16138.884;-0.34500
16141.662;-0.35500
16144.440;-0.36500
16147.218;-0.36000
16149.995;-0.35500
16152.773;-0.34500
16155.551;-0.34500
16158.329;-0.34500
16161.107;-0.36000
16163.884;-0.34500
16166.662;-0.34000
16169.440;-0.33500
16172.218;-0.34000
16174.995;-0.34500
16177.773;-0.37000
16180.551;-0.37000
16183.329;-0.36000
16186.107;-0.34000
16188.884;-0.35000
16191.662;-0.36500
16194.440;-0.35500
16197.218;-0.35000
16199.995;-0.34000
16202.773;-0.34000
16205.551;-0.35500
16208.329;-0.35500
16211.107;-0.35000
16213.884;-0.35000
16216.662;-0.33500
16219.440;-0.34000
16222.218;-0.34000
16224.995;-0.33000
16227.773;-0.35000
16230.551;-0.31500
16233.329;-0.30000
16236.107;-0.29000
16238.884;-0.27500
16241.662;-0.28000
16244.440;-0.28500
16247.218;-0.27500
16249.995;-0.27000
16252.773;-0.25500
16255.551;-0.24000
16258.329;-0.25000
16261.107;-0.25500
16263.884;-0.24000
16266.662;-0.22500
16269.440;-0.22500
16272.218;-0.24000
16274.995;-0.25500
16277.773;-0.26000
16280.551;-0.27500
16283.329;-0.26000
16286.107;-0.24500
16288.884;-0.25500
16291.662;-0.26500
16294.440;-0.28000
16297.218;-0.27000
16299.995;-0.25000
16302.773;-0.23500
16305.551;-0.23000
16308.329;-0.24500
16311.107;-0.27000
16313.884;-0.28000
16316.662;-0.28000
16319.440;-0.29000
16322.218;-0.31500
16324.995;-0.33500
16327.773;-0.35500
16330.551;-0.35500
16333.329;-0.35500
16336.107;-0.36000
16338.884;-0.36000
16341.662;-0.37500
16344.440;-0.38000
16347.218;-0.36000
16349.995;-0.35500
16352.773;-0.35000
16355.551;-0.34500
16358.329;-0.37000
16361.107;-0.37000
16363.884;-0.35500
16366.662;-0.35500
16369.440;-0.35000
16372.218;-0.34500
16374.995;-0.35500
16377.773;-0.35500
16380.551;-0.36000
16383.329;-0.35500
16386.107;-0.35500
16388.884;-0.35500
16391.662;-0.36000
16394.440;-0.37500
16397.218;-0.37000
16399.995;-0.39000
16402.773;-0.42500
16405.551;-0.46500
16408.329;-0.49000
16411.107;-0.52500
16413.884;-0.56000
16416.662;-0.56000
16419.440;-0.49500
16422.218;-0.36000
16424.995;-0.22000
16427.773;-0.04500
16430.551;0.19000
16433.329;0.47500
16436.107;0.72500
16438.884;0.89500
16441.662;0.89500
16444.440;0.71000
16447.218;0.35000
16449.995;-0.05500
16452.773;-0.35000
16455.551;-0.48000
16458.329;-0.49000
16461.107;-0.46500
16463.884;-0.41500
16466.662;-0.40500
16469.440;-0.39500
16472.218;-0.40500
16474.995;-0.42000
16477.773;-0.39500
16480.551;-0.41500
16483.329;-0.40000
16486.106;-0.39000
16488.884;-0.38500
16491.662;-0.39500
16494.440;-0.40500
16497.218;-0.39500
16499.995;-0.40000
16502.773;-0.39000
16505.551;-0.39000
16508.329;-0.40000
16511.106;-0.41500
16513.884;-0.40500
16516.662;-0.39000
16519.440;-0.38000
16522.218;-0.38000
16524.995;-0.40500
16527.773;-0.39000
16530.551;-0.40000
16533.329;-0.39000
16536.106;-0.38000
16538.884;-0.38000
16541.662;-0.40500
16544.440;-0.40000
16547.218;-0.41000
16549.995;-0.40000
16552.773;-0.39500
16555.551;-0.40000
16558.329;-0.40000
16561.106;-0.40500
16563.884;-0.39000
16566.662;-0.38000
16569.440;-0.38500
16572.218;-0.38500
16574.995;-0.39000
16577.773;-0.40500
16580.551;-0.40000
16583.329;-0.40000
16586.106;-0.39000
16588.884;-0.39000
16591.662;-0.41000
16594.440;-0.41000
16597.218;-0.40500
16599.995;-0.40000
16602.773;-0.41000
16605.551;-0.40500
16608.329;-0.41000
16611.106;-0.41500
16613.884;-0.41000
16616.662;-0.40500
16619.440;-0.39500
16622.218;-0.40500
16624.995;-0.40000
16627.773;-0.40000
16630.551;-0.39500
16633.329;-0.40500
16636.106;-0.38000
16638.884;-0.38500
16641.662;-0.39000
16644.440;-0.41000
16647.218;-0.39500
16649.995;-0.39000
16652.773;-0.38000
16655.551;-0.38500
16658.329;-0.40500
16661.106;-0.40500
16663.884;-0.40500
16666.662;-0.40000
16669.440;-0.41000
16672.218;-0.41000
16674.995;-0.41500
16677.773;-0.43500
16680.551;-0.43000
16683.329;-0.41500
16686.106;-0.42000
16688.884;-0.42000
16691.662;-0.44000
16694.440;-0.44000
16697.218;-0.43500
16699.995;-0.43500
16702.773;-0.43500
16705.551;-0.43000
16708.329;-0.44500
16711.106;-0.44500
16713.884;-0.42000
16716.662;-0.42500
16719.440;-0.41000
16722.218;-0.40500
16724.995;-0.40000
16727.773;-0.41000
16730.551;-0.38000
16733.329;-0.37000
16736.106;-0.35000
16738.884;-0.34000
16741.662;-0.35500
16744.440;-0.34500
16747.218;-0.34000
16749.995;-0.31500
16752.773;-0.32000
16755.551;-0.30000
16758.329;-0.30000
16761.106;-0.31500
16763.884;-0.30500
16766.662;-0.30000
16769.440;-0.28000
16772.218;-0.29000
16774.995;-0.29000
16777.773;-0.30000
16780.551;-0.29500
16783.329;-0.29500
16786.106;-0.28000
16788.884;-0.28500
16791.662;-0.29000
16794.440;-0.29500
16797.218;-0.28500
16799.995;-0.28000
16802.773;-0.27500
16805.551;-0.26500
16808.329;-0.28000
16811.106;-0.29500
16813.884;-0.28000
16816.662;-0.28000
16819.440;-0.27500
16822.218;-0.29000
16824.995;-0.29500
16827.773;-0.31000
16830.551;-0.29000
16833.329;-0.29000
16836.106;-0.27500
16838.884;-0.27000
16841.662;-0.29500
16844.440;-0.31500
16847.218;-0.31000
16849.995;-0.30000
16852.773;-0.29500
16855.551;-0.29000
16858.329;-0.30000
16861.106;-0.31500
16863.884;-0.30500
16866.662;-0.30000
16869.440;-0.29000
16872.217;-0.31000
16874.995;-0.31500
16877.773;-0.33000
16880.551;-0.31000
16883.329;-0.30500
16886.106;-0.29500
16888.884;-0.29500
16891.662;-0.30500
16894.440;-0.32500
16897.217;-0.31500
16899.995;-0.31500
16902.773;-0.31000
16905.551;-0.30000
16908.329;-0.31500
16911.106;-0.33500
16913.884;-0.32500
16916.662;-0.32500
16919.440;-0.31500
16922.217;-0.31000
16924.995;-0.32000
16927.773;-0.33500
16930.551;-0.32500
16933.329;-0.31000
16936.106;-0.30500
16938.884;-0.30500
16941.662;-0.32000
16944.440;-0.32500
16947.217;-0.31500
16949.995;-0.31000
16952.773;-0.30000
16955.551;-0.31500
16958.329;-0.32500
16961.106;-0.32000
16963.884;-0.32000
16966.662;-0.32000
16969.440;-0.31000
16972.217;-0.31000
16974.995;-0.31000
16977.773;-0.31500
16980.551;-0.30500
16983.329;-0.28500
16986.106;-0.29500
16988.884;-0.30500
16991.662;-0.31000
16994.440;-0.31500
16997.217;-0.30000
16999.995;-0.31500
17002.773;-0.30500
17005.551;-0.30500
17008.329;-0.32500
17011.106;-0.32500
17013.884;-0.31500
17016.662;-0.30000
17019.440;-0.29500
17022.217;-0.31000
17024.995;-0.31500
17027.773;-0.32000
17030.551;-0.31500
17033.329;-0.31000
17036.106;-0.29500
17038.884;-0.28500
17041.662;-0.27000
17044.440;-0.25000
17047.217;-0.24500
17049.995;-0.23000
17052.773;-0.22000
17055.551;-0.22500
17058.329;-0.23500
17061.106;-0.23000
17063.884;-0.22000
17066.662;-0.20500
17069.440;-0.19000
17072.217;-0.19000
17074.995;-0.19000
17077.773;-0.20500
17080.551;-0.20500
17083.329;-0.20500
17086.106;-0.21000
17088.884;-0.21500
17091.662;-0.22500
17094.440;-0.23000
17097.217;-0.22500
17099.995;-0.22000
17102.773;-0.22000
17105.551;-0.24000
17108.329;-0.24000
17111.106;-0.23000
17113.884;-0.20500
17116.662;-0.19500
17119.440;-0.19500
17122.217;-0.22000
17124.995;-0.24500
17127.773;-0.27500
17130.551;-0.26000
17133.329;-0.27500
17136.106;-0.28500
17138.884;-0.30000
17141.662;-0.30000
17144.440;-0.31000
17147.217;-0.31000
17149.995;-0.32000
17152.773;-0.32000
17155.551;-0.32500
17158.329;-0.33500
17161.106;-0.34500
17163.884;-0.33500
17166.662;-0.33500
17169.440;-0.33000
17172.217;-0.33500
17174.995;-0.34500
17177.773;-0.36000
17180.551;-0.34500
17183.329;-0.33500
17186.106;-0.34500
17188.884;-0.34500
17191.662;-0.35500
17194.440;-0.36000
17197.217;-0.35500
17199.995;-0.34000
17202.773;-0.34000
17205.551;-0.35000
17208.329;-0.35000
17211.106;-0.35500
17213.884;-0.35500
17216.662;-0.35500
17219.440;-0.37000
17222.217;-0.42500
17224.995;-0.46500
17227.773;-0.48000
17230.551;-0.50000
17233.329;-0.53000
17236.106;-0.53500
17238.884;-0.48500
17241.662;-0.39500
17244.440;-0.25500
17247.217;-0.09500
17249.995;0.09500
17252.773;0.35000
17255.551;0.63000
17258.329;0.84500
17261.106;0.95500
17263.884;0.97500
17266.662;0.82500
17269.440;0.48000
17272.217;0.05500
17274.995;-0.27000
17277.773;-0.45500
17280.551;-0.48500
17283.328;-0.44000
17286.106;-0.40500
17288.884;-0.37500
17291.662;-0.37500
17294.440;-0.39000
17297.217;-0.38000
17299.995;-0.36000
17302.773;-0.35500
17305.551;-0.34500
17308.328;-0.36500
17311.106;-0.37500
17313.884;-0.37000
17316.662;-0.37000
17319.440;-0.35500
17322.217;-0.37000
17324.995;-0.37500
17327.773;-0.38000
17330.551;-0.38500
17333.328;-0.38000
17336.106;-0.38000
17338.884;-0.38000
17341.662;-0.38500
17344.440;-0.39500
17347.217;-0.39500
17349.995;-0.39000
17352.773;-0.38500
17355.551;-0.38000
17358.328;-0.38000
17361.106;-0.39500
17363.884;-0.39000
17366.662;-0.38000
17369.440;-0.37000
17372.217;-0.37500
17374.995;-0.38500
17377.773;-0.38000
17380.551;-0.37500
17383.328;-0.36500
17386.106;-0.36000
17388.884;-0.36500
17391.662;-0.36500
17394.440;-0.38500
17397.217;-0.37000
17399.995;-0.36500
17402.773;-0.35500
17405.551;-0.38500
17408.328;-0.39500
17411.106;-0.39500
17413.884;-0.38500
17416.662;-0.37000
17419.440;-0.38000
17422.217;-0.37000
17424.995;-0.37500
17427.773;-0.39000
17430.551;-0.38500
17433.328;-0.38000
17436.106;-0.37000
17438.884;-0.37000
17441.662;-0.38500
17444.440;-0.38500
17447.217;-0.38000
17449.995;-0.38500
17452.773;-0.37000
17455.551;-0.37500
17458.328;-0.37500
17461.106;-0.38000
17463.884;-0.38000
17466.662;-0.35500
17469.440;-0.36000
17472.217;-0.36500
17474.995;-0.37000
17477.773;-0.38000
17480.551;-0.37000
17483.328;-0.37500
17486.106;-0.36000
17488.884;-0.37000
17491.662;-0.38000
17494.440;-0.38500
17497.217;-0.37500
17499.995;-0.37500
17502.773;-0.37000
17505.551;-0.37000
17508.328;-0.38500
17511.106;-0.40000
17513.884;-0.39500
17516.662;-0.38500
17519.440;-0.39500
17522.217;-0.38000
17524.995;-0.40000
17527.773;-0.40000
17530.551;-0.40000
17533.328;-0.39000
17536.106;-0.39000
17538.884;-0.38500
17541.662;-0.40000
17544.440;-0.40000
17547.217;-0.38500
17549.995;-0.38000
17552.773;-0.38000
17555.551;-0.38500
17558.328;-0.38500
17561.106;-0.40500
17563.884;-0.39500
17566.662;-0.38000
17569.440;-0.37000
17572.217;-0.37000
17574.995;-0.38000
17577.773;-0.36500
17580.551;-0.35500
17583.328;-0.33500
17586.106;-0.32500
17588.884;-0.32000
17591.662;-0.32000
17594.440;-0.33000
17597.217;-0.31500
17599.995;-0.30000
17602.773;-0.29500
17605.551;-0.28500
17608.328;-0.29500
17611.106;-0.29000
17613.884;-0.28500
17616.662;-0.27000
17619.440;-0.26000
17622.217;-0.26500
17624.995;-0.27500
17627.773;-0.28000
17630.551;-0.27500
17633.328;-0.27000
17636.106;-0.27000
17638.884;-0.26000
17641.662;-0.27000
17644.440;-0.28000
17647.217;-0.28500
17649.995;-0.27500
17652.773;-0.26500
17655.551;-0.27000
17658.328;-0.28500
17661.106;-0.28500
17663.884;-0.28500
17666.662;-0.27500
17669.439;-0.28000
17672.217;-0.27500
17674.995;-0.28500
17677.773;-0.29500
17680.551;-0.29500
17683.328;-0.28500
17686.106;-0.28000
17688.884;-0.27000
17691.662;-0.28500
17694.439;-0.27500
17697.217;-0.29000
17699.995;-0.28500
17702.773;-0.28000
17705.551;-0.29000
17708.328;-0.30000
17711.106;-0.31000
17713.884;-0.31000
17716.662;-0.31000
17719.439;-0.30000
17722.217;-0.30000
17724.995;-0.31500
17727.773;-0.32500
17730.551;-0.31500
17733.328;-0.30500
17736.106;-0.31000
17738.884;-0.31000
17741.662;-0.31500
17744.439;-0.33000
17747.217;-0.32500
17749.995;-0.32000
17752.773;-0.32000
17755.551;-0.31500
17758.328;-0.32500
17761.106;-0.33000
17763.884;-0.33500
17766.662;-0.32500
17769.439;-0.32000
17772.217;-0.32000
17774.995;-0.31500
17777.773;-0.32000
17780.551;-0.31000
17783.328;-0.31000
17786.106;-0.30000
17788.884;-0.30500
17791.662;-0.32000
17794.439;-0.34000
17797.217;-0.33500
17799.995;-0.33000
17802.773;-0.32000
17805.551;-0.33000
17808.328;-0.33000
17811.106;-0.33500
17813.884;-0.34000
17816.662;-0.33500
17819.439;-0.32500
17822.217;-0.34000
17824.995;-0.34500
17827.773;-0.34000
17830.551;-0.34000
17833.328;-0.32500
17836.106;-0.34000
17838.884;-0.33500
17841.662;-0.34000
17844.439;-0.35000
17847.217;-0.34000
17849.995;-0.33000
17852.773;-0.33000
17855.551;-0.32500
17858.328;-0.33500
17861.106;-0.34000
17863.884;-0.33500
17866.662;-0.31500
17869.439;-0.31500
17872.217;-0.31000
17874.995;-0.32000
17877.773;-0.33000
17880.551;-0.32000
17883.328;-0.30500
17886.106;-0.31000
17888.884;-0.30500
17891.662;-0.29500
17894.439;-0.32000
17897.217;-0.30500
17899.995;-0.29000
17902.773;-0.28500
17905.551;-0.28500
17908.328;-0.28500
17911.106;-0.28500
17913.884;-0.26500
17916.662;-0.25000
17919.439;-0.25000
17922.217;-0.25000
17924.995;-0.25000
17927.773;-0.25000
17930.551;-0.25000
17933.328;-0.23000
17936.106;-0.21500
17938.884;-0.22500
17941.662;-0.22500
17944.439;-0.23000
17947.217;-0.23000
17949.995;-0.22500
17952.773;-0.21500
17955.551;-0.21500
17958.328;-0.23000
17961.106;-0.25000
17963.884;-0.24000
17966.662;-0.23000
17969.439;-0.23000
17972.217;-0.24000
17974.995;-0.25000
17977.773;-0.25500
17980.551;-0.22000
17983.328;-0.20000
17986.106;-0.20000
17988.884;-0.22500
17991.662;-0.26500
17994.439;-0.29000
17997.217;-0.29000
17999.995;-0.30000
18002.773;-0.31000
18005.551;-0.32500
18008.328;-0.33500
18011.106;-0.34000
18013.884;-0.35000
18016.662;-0.34000
18019.439;-0.34000
18022.217;-0.34500
18024.995;-0.33000
18027.773;-0.35000
18030.551;-0.34500
18033.328;-0.34500
18036.106;-0.34000
18038.884;-0.35000
18041.662;-0.35500
18044.439;-0.35500
18047.217;-0.35500
18049.995;-0.34500
18052.773;-0.34000
18055.551;-0.34000
18058.328;-0.35500
18061.106;-0.36000
18063.884;-0.36000
18066.662;-0.35500
18069.439;-0.34500
18072.217;-0.34500
18074.995;-0.36000
18077.773;-0.37000
18080.550;-0.37500
18083.328;-0.37000
18086.106;-0.38000
18088.884;-0.42000
18091.662;-0.46500
18094.439;-0.48500
18097.217;-0.51500
18099.995;-0.54500
18102.773;-0.57500
18105.550;-0.54500
18108.328;-0.45000
18111.106;-0.32500
18113.884;-0.19500
18116.662;-0.04500
18119.439;0.16500
18122.217;0.42500
18124.995;0.65500
18127.773;0.81000
18130.550;0.87500
18133.328;0.81500
18136.106;0.59000
18138.884;0.22000
18141.662;-0.15000
18144.439;-0.38000
18147.217;-0.47000
18149.995;-0.46500
