time_seconds;temperature
0;41.71128
300;41.53345
600;41.47954
900;41.32875
1200;41.15893
1500;41.04465
1800;40.95359
2100;40.90025
2400;40.85944
2700;40.83628
3000;40.81927
3300;40.80915
3600;40.80205
3900;40.79772
4200;40.79483
4500;40.79292
4800;40.78001
5100;40.64883
5400;40.46460
5700;40.31096
6000;40.21165
6300;40.14320
6600;40.09932
6900;40.06953
7200;40.05102
7500;40.03863
7800;40.03098
8100;40.02571
8400;40.02259
8700;40.02038
9000;40.01911
9300;40.01820
9600;40.01770
9900;40.01733
10200;40.01712
10500;40.01698
10800;40.01688
11100;40.01684
11400;40.01684
11700;40.01684
12000;40.01684
12300;40.01684
12600;40.01684
12900;40.01684
13200;40.01684
13500;40.01684
13800;40.01684
14100;40.01684
14400;40.78790
14700;40.98067
15000;40.98067
15300;40.98067
15600;40.98067
15900;40.98067
16200;40.98067
16500;40.98067
16800;40.98067
17100;40.98067
17400;40.98067
17700;40.98067
18000;40.98067
18300;40.98067
18600;40.98067
18900;40.98067
19200;40.98067
19500;40.98067
19800;40.98067
20100;40.98067
20400;40.98067
20700;40.98067
21000;40.98067
21300;40.98067
21600;40.98067
21900;40.98067
22200;40.98067
22500;40.98067
22800;40.98067
23100;40.98067
23400;40.98067
23700;40.98067
24000;40.98067
24300;40.98067
24600;40.98067
24900;40.98067
25200;40.98067
25500;40.98067
25800;40.98067
26100;40.98067
26400;40.98067
26700;40.98067
27000;40.98067
27300;40.98067
27600;40.98067
27900;40.98067
28200;40.98067
28500;40.98067
28800;40.97532
29100;40.86502
29400;40.67780
29700;40.54954
30000;40.43858
30300;40.37821
30600;40.32898
30900;40.30274
31200;40.28234
31500;40.27093
31800;40.26257
32100;40.24836
32400;40.12745
32700;39.96756
33000;39.82189
33300;39.72213
33600;39.65367
33900;39.60279
34200;39.45021
34500;39.26127
34800;39.11237
35100;39.00501
35400;38.93454
35700;38.86811
36000;38.70486
36300;38.50264
36600;38.36941
36900;38.26233
37200;38.20277
37500;38.15547
37800;38.13057
38100;38.02832
38400;37.87104
38700;37.70290
39000;37.59841
39300;37.51315
39600;37.46205
39900;37.37793
40200;37.21176
40500;37.03560
40800;36.91260
41100;36.82303
41400;36.76480
41700;36.72704
42000;36.70220
42300;36.68575
42600;36.67463
42900;36.66785
43200;36.66296
43500;36.63543
43800;36.47528
44100;36.32118
44400;36.18443
44700;36.10777
45000;36.04353
45300;36.01011
45600;35.98217
45900;35.96708
46200;35.95549
46500;35.94913
46800;35.94437
47100;35.94152
47400;35.93953
47700;35.93835
48000;35.93751
48300;35.93699
48600;35.93664
48900;35.93642
49200;35.93628
49500;35.93618
49800;35.93613
50100;35.89903
50400;42.72832
50700;47.25782
51000;47.18393
51300;47.12471
51600;47.09136
51900;47.06488
52200;47.05064
52500;47.03914
52800;47.03322
53100;47.02846
53400;47.02593
53700;47.02394
54000;47.02284
54300;47.02201
54600;47.02170
54900;47.06464
55200;47.16591
55500;47.27231
55800;47.34568
56100;47.39790
56400;47.43142
56700;47.45350
57000;47.46806
57300;47.47742
57600;47.48389
57900;47.48765
58200;47.49053
58500;47.49210
58800;47.49334
59100;47.49401
59400;47.49454
59700;47.51788
60000;47.62915
60300;47.72753
60600;47.81621
60900;47.91160
61200;48.06576
61500;48.18546
61800;48.31145
62100;48.49238
62400;48.82746
62700;49.16143
63000;49.51461
63300;49.79428
63600;50.07726
63900;50.33083
64200;50.53732
64500;50.77283
64800;50.96885
65100;51.13518
65400;51.32583
65700;51.58195
66000;51.79613
66300;51.98485
66600;52.09532
66900;52.18519
67200;52.23435
67500;52.30571
67800;52.42460
68100;52.55371
68400;52.63733
68700;52.70075
69000;52.73953
69300;52.76683
69600;52.79131
69900;52.88838
70200;53.00226
70500;53.10032
70800;53.16375
71100;53.20826
71400;53.23731
71700;53.25548
72000;53.26792
72300;53.27571
72600;53.28102
72900;53.28411
73200;53.28645
73500;53.28775
73800;53.31304
74100;53.40772
74400;53.47457
74700;53.48157
75000;53.55061
75300;53.61362
75600;53.66908
75900;53.70293
76200;53.72880
76500;53.74406
76800;53.75501
77100;53.76171
77400;53.76648
77700;53.76940
78000;53.77139
78300;53.77262
78600;53.77343
78900;53.77618
79200;53.26862
79500;53.24328
79800;53.33896
80100;53.41533
80400;53.46149
80700;53.49700
81000;53.46517
81300;53.35354
81600;53.26669
81900;53.18743
82200;53.17504
82500;53.25623
82800;53.33281
83100;53.39800
83400;53.44280
83700;53.47991
84000;53.50509
84300;53.52264
84600;53.53424
84900;53.54204
85200;53.54802
85500;53.61050
85800;53.73326
86100;53.84098
86400;53.92399
86700;53.98032
87000;54.01853
87300;54.04123
87600;54.05921
87900;54.06868
88200;54.07665
88500;54.08127
88800;54.08488
89100;54.08702
89400;54.08862
89700;54.08961
90000;54.09032
90300;54.09076
90600;54.09107
90900;54.09125
91200;54.09140
91500;54.09148
91800;54.09148
92100;54.09148
92400;54.09148
92700;54.09148
93000;54.09148
93300;54.09148
93600;54.09148
93900;54.09148
94200;54.09148
94500;54.09148
94800;54.09148
95100;54.09148
95400;54.09148
95700;54.09148
96000;54.09148
96300;54.09148
96600;54.09148
96900;54.09148
97200;54.09148
97500;54.09148
97800;54.09148
98100;54.09148
98400;54.09148
98700;54.09148
99000;54.09148
99300;54.09148
99600;54.09148
99900;54.09148
100200;54.09148
100500;54.09148
100800;54.61334
101100;54.74380
101400;54.74380
101700;54.74380
102000;54.74380
102300;54.74380
102600;54.74380
102900;54.74380
103200;54.74380
103500;54.74380
103800;54.74380
104100;54.74380
104400;54.74380
104700;54.74380
105000;54.71974
105300;54.71084
105600;54.71138
105900;54.74380
106200;54.74380
106500;54.74380
106800;54.74380
107100;54.74380
107400;54.74823
107700;54.81884
108000;54.92932
108300;55.02688
108600;55.09003
108900;55.13977
109200;55.16846
109500;55.19030
109800;55.20248
110100;55.21173
110400;55.21721
110700;55.22121
111000;55.22357
111300;55.22525
111600;55.22632
111900;55.22641
112200;55.22755
112500;55.22722
112800;55.22807
113100;55.22655
113400;55.22831
113700;55.22832
114000;55.22832
114300;55.23470
114600;55.31409
114900;55.42984
115200;55.52740
115500;55.59226
115800;55.64217
116100;55.67112
116400;55.69336
116700;55.70723
117000;55.71607
117300;55.72114
117600;55.72499
117900;55.72733
118200;55.65673
118500;55.34334
118800;54.75580
119100;54.20031
119400;53.28227
119700;52.30888
120000;51.41040
120300;50.66386
120600;50.06763
120900;49.66777
121200;49.51476
121500;49.54688
121800;49.89363
122100;50.43824
122400;51.10401
122700;51.94794
123000;52.73831
123300;53.58817
123600;54.43192
123900;55.13058
124200;55.66184
124500;55.72870
124800;55.72764
125100;55.71327
125400;55.68862
125700;55.55957
126000;55.54334
126300;55.73182
126600;55.72999
126900;55.67477
127200;55.56772
127500;55.46196
127800;55.38603
128100;55.33175
128400;55.29670
128700;55.27330
129000;55.25788
129300;55.24802
129600;55.24128
129900;55.23633
130200;55.23401
130500;55.23223
130800;55.23087
131100;55.21495
131400;55.19820
131700;55.22903
132000;55.21829
132300;55.09538
132600;54.90181
132900;54.50090
133200;54.05289
133500;53.58784
133800;53.27128
134100;53.11596
134400;53.13294
134700;53.23277
135000;53.36982
135300;53.59687
135600;53.81002
135900;54.04889
136200;54.23007
136500;54.41397
136800;54.94260
137100;55.20500
137400;55.20007
137700;55.22026
138000;55.22848
138300;55.21095
138600;55.21771
138900;55.20316
139200;55.20888
139500;55.12975
139800;54.94747
140100;54.92521
140400;55.22868
140700;55.22868
141000;55.22868
141300;55.22868
141600;55.22868
141900;55.22868
142200;55.22868
142500;55.21952
142800;55.21996
143100;55.22868
143400;55.21460
143700;55.21183
144000;55.20104
144300;55.20075
144600;55.20815
144900;55.20783
145200;55.21586
145500;55.22868
145800;55.22868
146100;55.16905
146400;55.05743
146700;54.82833
147000;54.63117
147300;54.67248
147600;55.38063
147900;55.59291
148200;55.64062
148500;55.67101
148800;55.69199
149100;55.70085
149400;55.67236
149700;55.71484
150000;55.68270
150300;55.68586
150600;55.69123
150900;55.68830
151200;55.73061
151500;55.73109
151800;55.69613
152100;55.69682
152400;55.61743
152700;55.39970
153000;55.13339
153300;55.04615
153600;55.82034
153900;55.96717
154200;56.04566
154500;56.10774
154800;56.14605
155100;56.17383
155400;56.19174
155700;56.20380
156000;56.21130
156300;56.21642
156600;56.21965
156900;56.22185
157200;56.22325
157500;56.22419
157800;56.22480
158100;56.22520
158400;56.22548
158700;56.22563
159000;56.22577
159300;56.22582
159600;56.22582
159900;56.19078
160200;56.20191
160500;56.19031
160800;56.14667
161100;56.03422
161400;55.93064
161700;55.85368
162000;55.85350
162300;55.78453
162600;56.18063
162900;56.22582
163200;56.22582
163500;56.22582
163800;56.22582
164100;56.22582
164400;56.22582
164700;56.22582
165000;56.22582
165300;56.22582
165600;55.79996
165900;55.69350
166200;55.69350
166500;55.69350
166800;55.69350
167100;55.69350
167400;55.69350
167700;55.70365
168000;55.78458
168300;55.90809
168600;55.99753
168900;56.06837
169200;56.11047
169500;56.14041
169800;56.15910
170100;56.17394
170400;56.18445
170700;56.19184
171000;56.19700
171300;56.20041
171600;56.20268
171900;56.20413
172200;56.20514
172500;56.20578
172800;56.20626
173100;56.19959
173400;56.00561
173700;55.52287
174000;54.76585
174300;53.87987
174600;53.18606
174900;52.92193
175200;53.12416
175500;53.66724
175800;54.27530
176100;55.17040
176400;56.19067
176700;56.69224
177000;56.70212
177300;56.70852
177600;56.71257
177900;56.71527
178200;56.71496
178500;56.71824
178800;56.71901
179100;56.71958
179400;56.71992
179700;56.72016
180000;56.72030
180300;56.72043
180600;56.72043
180900;56.72043
181200;56.72043
181500;56.72043
181800;56.72043
182100;56.72076
182400;56.77985
182700;57.01869
183000;57.24584
183300;57.42777
183600;57.52337
183900;57.48708
184200;57.41722
184500;57.35694
184800;57.31534
185100;57.28778
185400;57.26925
185700;57.25664
186000;57.24854
186300;57.25964
186600;57.36475
186900;57.48495
187200;57.89381
187500;58.02750
187800;58.06743
188100;58.09033
188400;58.10557
188700;58.10939
189000;58.06876
189300;58.20839
189600;58.26112
189900;58.38143
190200;58.62452
190500;58.77581
190800;58.88864
191100;58.95320
191400;58.84194
191700;58.40975
192000;58.24548
192300;58.24068
192600;58.15621
192900;58.16839
193200;58.15602
193500;58.09510
193800;58.03889
194100;57.86568
194400;57.48301
194700;58.61341
195000;59.00289
195300;59.11141
195600;59.27540
195900;59.35541
196200;59.31308
196500;59.32714
196800;59.32992
197100;59.03033
197400;58.42992
197700;57.17364
198000;55.62116
198300;54.14034
198600;53.30175
198900;52.42681
199200;51.80793
199500;51.95690
199800;55.08216
200100;58.61077
200400;59.11601
200700;57.99951
201000;56.10086
201300;53.32302
201600;50.06768
201900;49.06971
202200;48.94334
202500;48.84144
202800;48.76256
203100;48.71503
203400;48.68004
203700;48.65669
204000;48.60140
204300;49.04401
204600;50.14603
204900;51.70182
205200;53.77453
205500;56.23363
205800;58.10740
206100;58.15832
206400;58.12120
206700;58.01559
207000;57.90205
207300;57.82092
207600;57.76270
207900;57.72343
208200;57.69748
208500;57.68027
208800;57.60696
209100;57.48949
209400;57.38925
209700;57.31631
210000;57.99616
210300;60.86495
210600;60.83970
210900;60.74660
211200;60.60694
211500;60.42863
211800;60.13117
212100;59.64960
212400;59.13971
212700;58.34020
213000;57.46906
213300;56.54829
213600;55.55953
213900;54.66873
214200;53.87659
214500;53.27996
214800;52.86157
215100;52.75228
215400;52.77639
215700;53.02111
216000;53.43423
216300;54.05420
216600;54.87498
216900;55.71801
217200;56.59389
217500;57.42629
217800;58.13757
218100;58.23923
218400;58.10428
218700;58.00391
219000;57.86497
219300;57.61963
219600;57.20881
219900;56.69170
220200;56.08139
220500;55.57819
220800;55.15761
221100;54.82672
221400;54.57911
221700;54.46468
222000;54.49562
222300;54.71110
222600;54.90489
222900;54.98751
223200;55.06049
223500;55.20932
223800;55.31171
224100;55.50153
224400;55.88461
224700;56.13754
225000;56.09057
225300;55.84463
225600;55.32898
225900;54.31094
226200;53.08440
226500;51.85577
226800;50.74275
227100;49.87649
227400;49.19646
227700;48.77235
228000;48.57912
228300;48.50395
228600;48.46876
228900;48.62446
229200;48.88635
229500;49.23518
229800;49.71547
230100;50.38553
230400;51.83336
230700;53.39847
231000;55.05451
231300;56.64245
231600;57.25024
231900;57.25024
232200;57.25024
232500;57.25024
232800;57.25024
233100;57.25024
233400;57.25024
233700;57.25024
234000;57.23704
234300;57.25020
234600;57.11073
234900;57.22741
235200;56.72254
235500;55.80117
235800;54.92417
236100;53.98561
236400;53.04751
236700;52.35434
237000;52.20941
237300;52.32227
237600;52.39875
237900;52.79693
238200;53.46670
238500;54.13951
238800;54.91017
239100;55.54078
239400;56.11373
239700;56.64868
240000;56.80431
240300;56.75673
240600;56.72924
240900;56.70916
241200;56.69757
241500;56.68924
241800;56.68444
242100;56.67194
242400;56.06763
242700;54.88907
243000;53.76362
243300;53.14663
243600;52.70291
243900;52.04013
244200;52.93681
244500;54.42188
244800;55.88429
245100;56.10833
245400;56.10036
245700;56.03312
246000;55.88918
246300;55.75556
246600;55.67329
246900;55.61641
247200;55.57996
247500;55.55695
247800;55.51596
248100;55.47832
248400;55.50522
248700;55.47674
249000;55.51794
249300;55.51643
249600;55.51537
249900;55.51369
250200;55.43910
250500;55.30709
250800;55.18418
251100;55.10354
251400;55.04358
251700;55.00748
252000;54.30671
252300;54.12214
252600;54.11102
252900;54.10398
253200;54.04607
253500;53.90950
253800;53.77462
254100;53.67919
254400;53.60842
254700;53.56248
255000;53.53262
255300;53.51304
255600;53.50146
255900;53.49413
256200;53.48897
256500;53.41493
256800;53.27964
257100;53.14856
257400;53.05942
257700;52.99442
258000;52.90381
258300;52.72637
258600;52.57579
258900;52.45892
259200;52.38247
259500;52.32216
259800;52.28241
260100;52.25892
260400;52.24607
260700;52.23809
261000;52.17236
261300;51.98682
261600;51.83699
261900;51.73555
262200;51.67738
262500;51.64203
262800;51.62365
263100;51.61243
263400;51.60564
263700;51.60149
264000;51.59900
264300;51.59753
264600;51.59664
264900;51.59611
265200;51.59580
265500;51.59562
265800;51.59552
266100;51.59545
266400;51.59544
266700;51.59544
267000;51.59544
267300;51.59544
267600;51.59544
267900;51.59544
268200;51.59544
268500;51.59544
268800;51.59544
269100;51.59544
269400;51.59544
269700;51.59544
270000;51.59544
270300;51.59544
270600;51.59544
270900;51.59544
271200;51.59544
271500;51.59544
271800;51.59544
272100;51.59544
272400;51.57694
272700;51.44283
273000;51.29519
273300;51.19312
273600;51.90966
273900;52.06404
274200;52.04123
274500;52.02635
274800;52.01832
275100;52.01320
275400;52.01037
275700;52.00858
276000;52.00758
276300;52.00695
276600;52.00660
276900;52.00638
277200;52.00627
277500;52.00618
277800;52.00603
278100;52.00618
278400;52.00618
278700;52.00618
279000;52.00618
279300;52.00618
279600;52.00618
279900;52.00618
280200;52.00618
280500;52.00618
280800;52.00618
281100;52.00618
281400;52.00618
281700;52.00618
282000;52.00618
282300;52.00618
282600;52.00618
282900;52.00618
283200;52.00618
283500;52.00618
283800;52.00618
284100;52.00618
284400;52.00618
284700;52.00618
285000;52.00385
285300;52.01245
285600;52.15344
285900;52.31238
286200;52.41445
286500;52.48815
286800;52.52632
287100;52.54801
287400;52.55420
287700;52.55701
288000;52.56904
288300;52.57500
288600;52.57477
288900;52.58006
289200;52.57297
289500;52.57050
289800;52.57036
290100;52.56656
290400;52.56516
290700;52.57070
291000;52.57396
291300;52.56718
291600;52.57617
291900;52.55955
292200;52.56582
292500;52.57331
292800;52.56960
293100;52.56838
293400;52.57344
293700;52.57103
294000;52.55783
294300;52.56910
294600;52.56255
294900;52.53759
295200;52.55169
295500;52.54057
295800;52.52895
296100;52.50752
296400;52.52421
296700;52.51284
297000;52.56612
297300;52.52087
297600;52.35467
297900;52.20423
298200;52.12202
298500;52.02547
298800;51.92304
299100;51.83793
299400;51.87506
299700;51.94049
300000;51.97696
300300;51.98953
300600;51.97736
300900;51.97443
301200;51.99525
301500;51.98565
301800;51.97741
302100;51.92206
302400;51.73530
302700;51.51545
303000;51.37894
303300;51.26700
303600;51.09783
303900;51.01656
304200;50.98257
304500;50.98635
304800;51.06871
305100;51.17563
305400;51.34182
305700;51.38927
306000;51.39968
306300;51.40110
306600;51.39689
306900;51.39733
307200;51.39061
307500;51.39209
307800;51.38789
308100;51.39005
308400;51.39450
308700;51.38913
309000;51.38303
309300;51.39828
309600;51.39617
309900;51.38983
310200;51.39379
310500;51.39099
310800;51.39988
311100;51.40519
311400;51.40446
311700;51.40818
312000;51.40818
312300;51.40486
312600;51.40742
312900;51.40684
313200;51.40762
313500;51.40818
313800;51.40818
314100;51.40539
314400;51.40818
314700;51.40495
315000;51.40736
315300;51.40818
315600;51.40416
315900;51.40630
316200;51.40364
316500;51.40454
316800;51.40818
317100;51.40818
317400;51.40818
317700;51.40448
318000;51.40517
318300;51.40356
318600;51.40717
318900;51.40818
319200;51.40637
319500;51.40699
319800;51.40818
320100;51.40467
320400;51.40818
320700;51.40818
321000;51.40801
321300;51.40818
321600;51.40760
321900;51.39300
322200;51.40636
322500;51.39940
322800;51.39652
323100;51.40594
323400;51.40818
323700;51.40692
324000;51.40535
324300;51.40558
324600;51.40570
324900;51.40792
325200;51.40818
325500;51.40365
325800;51.40818
326100;51.40818
326400;51.40818
326700;51.40818
327000;51.40818
327300;51.40344
327600;51.40818
327900;51.40818
328200;51.40146
328500;51.40591
328800;51.39641
329100;51.39611
329400;51.40818
329700;51.40394
330000;51.40456
330300;51.40795
330600;51.40818
330900;51.40460
331200;51.40818
331500;51.40818
331800;51.40520
332100;51.40818
332400;51.40818
332700;51.40818
333000;51.40818
333300;51.40703
333600;51.40818
333900;51.40818
334200;51.40818
334500;51.40818
334800;51.40818
335100;51.40818
335400;51.40818
335700;51.40414
336000;51.40777
336300;51.40709
336600;51.40150
336900;51.39158
337200;51.38396
337500;51.39805
337800;51.39856
338100;51.39121
338400;50.65256
338700;50.46450
339000;50.45134
339300;50.46569
339600;50.46817
339900;50.46817
340200;50.46817
340500;50.46817
340800;50.46817
341100;50.46817
341400;50.46817
341700;50.46817
342000;50.46817
342300;50.46817
342600;50.46817
342900;50.46817
343200;50.46817
343500;50.46817
343800;50.46817
344100;50.46817
344400;50.46817
344700;50.46817
345000;50.46817
345300;50.46817
345600;50.46817
345900;50.46817
346200;50.46817
346500;50.46817
346800;50.46817
347100;50.46817
347400;50.46817
347700;50.46817
348000;50.46817
348300;50.46817
348600;50.46817
348900;50.46817
349200;50.46817
349500;50.46817
349800;50.46817
350100;50.46817
350400;50.46817
350700;50.46817
351000;50.46817
351300;50.46817
351600;50.46817
351900;50.46817
352200;50.46817
352500;50.46817
352800;50.46817
353100;50.46817
353400;50.46817
353700;50.46817
354000;50.46817
354300;50.46817
354600;50.46817
354900;50.46817
355200;50.46817
355500;50.46817
355800;50.46817
356100;50.46817
356400;50.46817
356700;50.46817
357000;50.46817
357300;50.46817
357600;50.46817
357900;50.46817
358200;50.46817
358500;50.46817
358800;50.46817
359100;50.46817
359400;50.46817
359700;50.46817
360000;51.40818
360300;51.40818
360600;51.40818
360900;51.40818
361200;51.40818
361500;51.40818
361800;51.40818
362100;51.40818
362400;51.40818
362700;51.40818
363000;51.40818
363300;51.40818
363600;51.40818
363900;51.40818
364200;51.40818
364500;51.40818
364800;51.40818
365100;51.40818
365400;51.40818
365700;51.40818
366000;51.40818
366300;51.40818
366600;51.40818
366900;51.40818
367200;51.40818
367500;51.40818
367800;51.40818
368100;51.40818
368400;51.40818
368700;51.40818
369000;51.40818
369300;51.40818
369600;51.40818
369900;51.40818
370200;51.40818
370500;51.40818
370800;51.40818
371100;51.40818
371400;51.40818
371700;51.40818
372000;51.40818
372300;51.40777
372600;51.40818
372900;51.40818
373200;51.40818
373500;51.40818
373800;51.40818
374100;51.40818
374400;51.40818
374700;51.39748
375000;51.40051
375300;51.41395
375600;51.57481
375900;51.78372
376200;51.89876
376500;51.95539
376800;51.98202
377100;51.99469
377400;52.00063
377700;52.00344
378000;52.00475
378300;52.00537
378600;52.00566
378900;52.00580
379200;52.00583
379500;52.00583
379800;52.00583
380100;51.99575
380400;51.99648
380700;51.99082
381000;51.96664
