time_ms;ecg_value
0;-0.50000
2778;-0.51000
5556;-0.52000
8333;-0.52000
11111;-0.51000
13889;-0.51000
16667;-0.51500
19444;-0.53500
22222;-0.53000
25000;-0.50500
27778;-0.51000
30556;-0.49000
33333;-0.49500
36111;-0.49500
38889;-0.49500
41667;-0.48000
44444;-0.46500
47222;-0.46500
50000;-0.45500
52778;-0.46000
55556;-0.44500
58333;-0.45500
61111;-0.43000
63889;-0.41500
66667;-0.40000
69444;-0.40000
72222;-0.39000
75000;-0.38500
77778;-0.37000
80556;-0.37000
83333;-0.37500
86111;-0.37000
88889;-0.37500
91667;-0.36500
94444;-0.35000
97222;-0.36500
100000;-0.38500
102778;-0.40500
105556;-0.39000
108333;-0.38000
111111;-0.36500
113889;-0.36500
116667;-0.37000
119444;-0.38000
122222;-0.39000
125000;-0.38000
127778;-0.36500
130556;-0.37500
133333;-0.37500
136111;-0.39000
138889;-0.40000
141667;-0.38500
144444;-0.37000
147222;-0.37000
150000;-0.37500
152778;-0.38000
155556;-0.37500
158333;-0.37500
161111;-0.37500
163889;-0.37000
166667;-0.39000
169444;-0.40000
172222;-0.40500
175000;-0.40500
177778;-0.38500
180556;-0.39000
183333;-0.39500
186111;-0.40500
188889;-0.41500
191667;-0.40500
194444;-0.40000
197222;-0.41000
200000;-0.41000
202778;-0.40500
205555;-0.39500
208333;-0.40500
211111;-0.39000
213889;-0.39000
216667;-0.40000
219444;-0.41500
222222;-0.41000
225000;-0.41000
227778;-0.39500
230555;-0.38500
233333;-0.39500
236111;-0.40500
238889;-0.42000
241667;-0.40000
244444;-0.39500
247222;-0.40500
250000;-0.41000
252778;-0.41500
255555;-0.41500
258333;-0.41000
261111;-0.40000
263889;-0.41000
266667;-0.39500
269444;-0.40000
272222;-0.41500
275000;-0.38500
277778;-0.38000
280555;-0.38500
283333;-0.39000
286111;-0.40000
288889;-0.40500
291667;-0.40000
294444;-0.38500
297222;-0.39000
300000;-0.39500
302778;-0.40500
305555;-0.40500
308333;-0.40000
311111;-0.40000
313889;-0.39000
316667;-0.39500
319444;-0.39500
322222;-0.39000
325000;-0.38500
327778;-0.37000
330555;-0.36500
333333;-0.35500
336111;-0.37000
338889;-0.36000
341667;-0.35000
344444;-0.33000
347222;-0.32500
350000;-0.32500
352778;-0.33000
355555;-0.31500
358333;-0.30000
361111;-0.29000
363889;-0.28500
366667;-0.28500
369444;-0.28500
372222;-0.29000
375000;-0.28000
377778;-0.27500
380555;-0.27500
383333;-0.27500
386111;-0.28500
388889;-0.29500
391667;-0.28500
394444;-0.28500
397222;-0.28000
400000;-0.27500
402778;-0.29000
405555;-0.29500
408333;-0.28000
411111;-0.26500
413889;-0.26000
416667;-0.25500
419444;-0.26500
422222;-0.29000
425000;-0.29500
427778;-0.31500
430555;-0.32500
433333;-0.34000
436111;-0.36500
438889;-0.38000
441667;-0.38500
444444;-0.38500
447222;-0.39000
450000;-0.40000
452778;-0.41000
455555;-0.42000
458333;-0.39500
461111;-0.40500
463889;-0.41000
466667;-0.41000
469444;-0.42500
472222;-0.43500
475000;-0.41000
477778;-0.40000
480555;-0.40000
483333;-0.41000
486111;-0.41500
488889;-0.43000
491667;-0.41000
494444;-0.40000
497222;-0.40000
500000;-0.40000
502778;-0.42000
505555;-0.44000
508333;-0.44500
511111;-0.46500
513889;-0.50500
516667;-0.53000
519444;-0.57500
522222;-0.62000
525000;-0.63000
527778;-0.59000
530555;-0.51000
533333;-0.39500
536111;-0.29500
538889;-0.15500
541667;0.04500
544444;0.27000
547222;0.47500
550000;0.62500
552778;0.73500
555555;0.84000
558333;0.94500
561111;0.99000
563889;0.93000
566667;0.75000
569444;0.48500
572222;0.17000
575000;-0.15500
577778;-0.39000
580555;-0.50500
583333;-0.53500
586111;-0.50500
588889;-0.48000
591667;-0.44500
594444;-0.43000
597222;-0.42500
600000;-0.43000
602778;-0.43500
605555;-0.45500
608333;-0.44500
611111;-0.42000
613889;-0.44000
616666;-0.44000
619444;-0.45000
622222;-0.44500
625000;-0.43500
627778;-0.42500
630555;-0.42500
633333;-0.43000
636111;-0.44500
638889;-0.44000
641666;-0.43000
644444;-0.43000
647222;-0.42000
650000;-0.43000
652778;-0.43000
655555;-0.43000
658333;-0.42000
661111;-0.40500
663889;-0.40500
666666;-0.41000
669444;-0.43000
672222;-0.42500
675000;-0.41500
677778;-0.41500
680555;-0.41500
683333;-0.43000
686111;-0.43000
688889;-0.43000
691666;-0.42500
694444;-0.42000
697222;-0.40500
700000;-0.42500
702778;-0.43000
705555;-0.42500
708333;-0.41000
711111;-0.39000
713889;-0.39500
716666;-0.41500
719444;-0.40000
722222;-0.42500
725000;-0.40000
727778;-0.39500
730555;-0.40000
733333;-0.41000
736111;-0.41500
738889;-0.42500
741666;-0.41500
744444;-0.38500
747222;-0.38500
750000;-0.40500
752778;-0.39000
755555;-0.40000
758333;-0.39000
761111;-0.39000
763889;-0.39000
766666;-0.38500
769444;-0.40500
772222;-0.41000
775000;-0.40500
777778;-0.40000
780555;-0.40500
783333;-0.41000
786111;-0.42000
788889;-0.42000
791666;-0.42000
794444;-0.42000
797222;-0.42000
800000;-0.42000
802778;-0.44000
805555;-0.44500
808333;-0.43500
811111;-0.43000
813889;-0.43000
816666;-0.44000
819444;-0.45000
822222;-0.45500
825000;-0.45000
827778;-0.43000
830555;-0.45000
833333;-0.45000
836111;-0.46500
838889;-0.44500
841666;-0.44500
844444;-0.43000
847222;-0.42500
850000;-0.43000
852778;-0.43000
855555;-0.42500
858333;-0.40500
861111;-0.39000
863889;-0.38500
866666;-0.37500
869444;-0.37500
872222;-0.37500
875000;-0.35500
877778;-0.34000
880555;-0.32500
883333;-0.33000
886111;-0.32000
888889;-0.33500
891666;-0.32000
894444;-0.31500
897222;-0.31500
900000;-0.31500
902778;-0.32000
905555;-0.31500
908333;-0.31500
911111;-0.31000
913889;-0.30000
916666;-0.31500
919444;-0.30500
922222;-0.31000
925000;-0.30000
927778;-0.29500
930555;-0.30500
933333;-0.31000
936111;-0.32000
938889;-0.33000
941666;-0.33000
944444;-0.31000
947222;-0.31500
950000;-0.32000
952778;-0.32000
955555;-0.32000
958333;-0.31500
961111;-0.30500
963889;-0.30500
966666;-0.31000
969444;-0.32000
972222;-0.32500
975000;-0.31500
977778;-0.30000
980555;-0.30500
983333;-0.32500
986111;-0.32500
988889;-0.32500
991666;-0.32000
994444;-0.31500
997222;-0.31000
1000000;-0.31500
1002777;-0.32000
1005555;-0.33500
1008333;-0.32000
1011111;-0.32500
1013889;-0.32000
1016666;-0.32500
1019444;-0.33500
1022222;-0.35000
1025000;-0.32500
1027777;-0.33000
1030555;-0.32500
1033333;-0.33500
1036111;-0.34500
1038889;-0.34500
1041666;-0.34000
1044444;-0.32000
1047222;-0.32500
1050000;-0.33000
1052777;-0.34500
1055555;-0.33500
1058333;-0.34000
1061111;-0.33000
1063889;-0.33000
1066666;-0.34500
1069444;-0.36500
1072222;-0.36500
1075000;-0.35500
1077777;-0.34500
1080555;-0.35500
1083333;-0.35500
1086111;-0.36000
1088889;-0.35500
1091666;-0.34500
1094444;-0.34500
1097222;-0.34500
1100000;-0.36500
1102777;-0.36000
1105555;-0.35500
1108333;-0.34500
1111111;-0.34500
1113889;-0.34500
1116666;-0.32500
1119444;-0.34500
1122222;-0.34000
1125000;-0.34000
1127777;-0.32500
1130555;-0.29500
1133333;-0.29500
1136111;-0.30000
1138889;-0.32000
1141666;-0.29000
1144444;-0.28000
1147222;-0.28500
1150000;-0.28000
1152777;-0.28000
1155555;-0.28500
1158333;-0.27000
1161111;-0.24000
1163889;-0.24500
1166666;-0.24000
1169444;-0.24000
1172222;-0.23000
1175000;-0.22000
1177777;-0.22500
1180555;-0.21500
1183333;-0.22500
1186111;-0.25000
1188889;-0.26000
1191666;-0.23500
1194444;-0.22000
1197222;-0.22500
1200000;-0.23000
1202777;-0.24000
1205555;-0.22000
1208333;-0.18500
1211111;-0.18000
1213889;-0.20500
1216666;-0.26000
1219444;-0.28500
1222222;-0.29500
1225000;-0.28500
1227777;-0.28500
1230555;-0.30000
1233333;-0.32000
1236111;-0.33500
1238889;-0.33000
1241666;-0.35000
1244444;-0.35000
1247222;-0.35000
1250000;-0.36500
1252777;-0.37000
1255555;-0.38000
1258333;-0.35500
1261111;-0.35500
1263889;-0.36000
1266666;-0.37500
1269444;-0.37500
1272222;-0.37500
1275000;-0.38000
1277777;-0.37000
1280555;-0.38000
1283333;-0.37500
1286111;-0.39000
1288889;-0.38000
1291666;-0.38500
1294444;-0.37000
1297222;-0.36500
1300000;-0.37500
1302777;-0.38000
1305555;-0.38500
1308333;-0.38500
1311111;-0.38000
1313889;-0.38500
1316666;-0.41500
1319444;-0.45500
1322222;-0.50000
1325000;-0.52000
1327777;-0.52000
1330555;-0.58000
1333333;-0.63000
1336111;-0.61000
1338889;-0.54000
1341666;-0.38000
1344444;-0.26500
1347222;-0.10500
1350000;0.08000
1352777;0.33500
1355555;0.61000
1358333;0.81000
1361111;0.92000
1363889;0.88500
1366666;0.72000
1369444;0.37500
1372222;-0.03000
1375000;-0.34500
1377777;-0.50500
1380555;-0.54000
1383333;-0.53000
1386111;-0.51000
1388888;-0.47000
1391666;-0.43000
1394444;-0.41000
1397222;-0.40500
1400000;-0.41000
1402777;-0.43500
1405555;-0.41500
1408333;-0.41500
1411111;-0.40500
1413888;-0.40500
1416666;-0.41000
1419444;-0.42000
1422222;-0.41500
1425000;-0.40000
1427777;-0.40500
1430555;-0.40000
1433333;-0.41000
1436111;-0.42000
1438888;-0.43000
1441666;-0.42000
1444444;-0.41000
1447222;-0.41500
1450000;-0.41500
1452777;-0.42000
1455555;-0.43500
1458333;-0.40500
1461111;-0.41000
1463888;-0.41500
1466666;-0.41500
1469444;-0.41500
1472222;-0.41500
1475000;-0.40500
1477777;-0.39500
1480555;-0.40000
1483333;-0.40500
1486111;-0.40500
1488888;-0.41500
1491666;-0.39000
1494444;-0.38500
1497222;-0.38500
1500000;-0.38500
1502777;-0.39500
1505555;-0.39000
1508333;-0.38500
1511111;-0.37500
1513888;-0.38000
1516666;-0.38000
1519444;-0.39500
1522222;-0.39500
1525000;-0.39500
1527777;-0.38000
1530555;-0.39000
1533333;-0.39000
1536111;-0.39000
1538888;-0.39500
1541666;-0.37500
1544444;-0.37000
1547222;-0.37000
1550000;-0.37500
1552777;-0.38000
1555555;-0.38000
1558333;-0.38000
1561111;-0.36500
1563888;-0.37000
1566666;-0.38000
1569444;-0.38500
1572222;-0.39000
1575000;-0.38000
1577777;-0.37500
1580555;-0.36000
1583333;-0.38000
1586111;-0.37500
1588888;-0.37000
1591666;-0.37500
1594444;-0.36000
1597222;-0.36000
1600000;-0.37500
1602777;-0.38000
1605555;-0.38500
1608333;-0.37500
1611111;-0.37000
1613888;-0.37000
1616666;-0.36500
1619444;-0.39000
1622222;-0.39500
1625000;-0.40000
1627777;-0.39000
1630555;-0.38000
1633333;-0.39500
1636111;-0.39500
1638888;-0.40000
1641666;-0.38500
1644444;-0.37500
1647222;-0.38000
1650000;-0.38000
1652777;-0.38500
1655555;-0.38500
1658333;-0.37500
1661111;-0.35000
1663888;-0.35000
1666666;-0.33500
1669444;-0.34500
1672222;-0.33500
1675000;-0.33000
1677777;-0.31000
1680555;-0.31000
1683333;-0.31000
1686111;-0.31500
1688888;-0.32000
1691666;-0.30000
1694444;-0.28000
1697222;-0.29000
1700000;-0.29000
1702777;-0.28500
1705555;-0.30500
1708333;-0.28500
1711111;-0.28500
1713888;-0.28000
1716666;-0.30000
1719444;-0.28500
1722222;-0.29500
1725000;-0.28000
1727777;-0.27500
1730555;-0.27500
1733333;-0.30000
1736111;-0.29500
1738888;-0.28500
1741666;-0.29000
1744444;-0.28500
1747222;-0.28000
1750000;-0.28500
1752777;-0.30500
1755555;-0.30500
1758333;-0.29000
1761111;-0.30000
1763888;-0.30000
1766666;-0.30500
1769444;-0.31000
1772222;-0.32000
1775000;-0.32000
1777777;-0.29500
1780555;-0.30000
1783333;-0.30500
1786111;-0.31000
1788888;-0.32000
1791666;-0.32000
1794444;-0.31000
1797222;-0.31000
1799999;-0.32000
1802777;-0.31500
1805555;-0.32500
1808333;-0.33000
1811111;-0.30500
1813888;-0.31000
1816666;-0.32500
1819444;-0.32000
1822222;-0.32500
1824999;-0.31000
1827777;-0.31500
1830555;-0.32500
1833333;-0.34000
1836111;-0.34500
1838888;-0.34500
1841666;-0.34500
1844444;-0.32500
1847222;-0.32000
1849999;-0.31500
1852777;-0.32500
1855555;-0.33000
1858333;-0.32000
1861111;-0.32000
1863888;-0.31500
1866666;-0.32500
1869444;-0.33000
1872222;-0.34000
1874999;-0.31500
1877777;-0.31000
1880555;-0.31500
1883333;-0.32000
1886111;-0.32000
1888888;-0.32500
1891666;-0.31500
1894444;-0.31500
1897222;-0.31000
1899999;-0.31500
1902777;-0.32500
1905555;-0.33000
1908333;-0.33000
1911111;-0.33500
1913888;-0.33000
1916666;-0.34000
1919444;-0.33500
1922222;-0.33000
1924999;-0.32500
1927777;-0.31000
1930555;-0.31500
1933333;-0.31500
1936111;-0.31000
1938888;-0.31000
1941666;-0.28500
1944444;-0.26500
1947222;-0.26500
1949999;-0.26000
1952777;-0.26500
1955555;-0.26500
1958333;-0.25500
1961111;-0.24500
1963888;-0.23000
1966666;-0.23000
1969444;-0.22000
1972222;-0.22000
1974999;-0.19500
1977777;-0.18000
1980555;-0.18500
1983333;-0.20000
1986111;-0.22000
1988888;-0.24000
1991666;-0.23000
1994444;-0.21500
1997222;-0.20500
1999999;-0.21500
2002777;-0.22000
2005555;-0.20500
2008333;-0.18500
2011111;-0.17000
2013888;-0.20500
2016666;-0.24000
2019444;-0.27000
2022222;-0.28000
2024999;-0.28000
2027777;-0.29000
2030555;-0.30500
2033333;-0.32000
2036111;-0.33500
2038888;-0.34500
2041666;-0.34500
2044444;-0.33000
2047222;-0.33000
2049999;-0.33000
2052777;-0.34500
2055555;-0.35000
2058333;-0.35000
2061111;-0.34000
2063888;-0.36000
2066666;-0.36000
2069444;-0.37500
2072222;-0.38000
2074999;-0.36500
2077777;-0.36000
2080555;-0.35500
2083333;-0.36500
2086111;-0.36500
2088888;-0.36000
2091666;-0.36000
2094444;-0.35000
2097222;-0.35500
2099999;-0.35000
2102777;-0.36000
2105555;-0.39000
2108333;-0.40500
2111111;-0.44000
2113888;-0.46000
2116666;-0.49000
2119444;-0.53500
2122222;-0.58500
2124999;-0.58500
2127777;-0.51000
2130555;-0.39500
2133333;-0.26500
2136111;-0.11500
2138888;0.11500
2141666;0.42500
2144444;0.68000
2147222;0.86000
2149999;0.87500
2152777;0.73000
2155555;0.39000
2158333;-0.00500
2161111;-0.31000
2163888;-0.47500
2166666;-0.51500
2169444;-0.46000
2172222;-0.41500
2174999;-0.38500
2177777;-0.38500
2180555;-0.38500
2183333;-0.39000
2186110;-0.37500
2188888;-0.38000
2191666;-0.37000
2194444;-0.37500
2197222;-0.38000
2199999;-0.38000
2202777;-0.39000
2205555;-0.39500
2208333;-0.37500
2211110;-0.36500
2213888;-0.36000
2216666;-0.36500
2219444;-0.37500
2222222;-0.39000
2224999;-0.38000
2227777;-0.39000
2230555;-0.39000
2233333;-0.39000
2236110;-0.40500
2238888;-0.40000
2241666;-0.39500
2244444;-0.38500
2247222;-0.37500
2249999;-0.38000
2252777;-0.39000
2255555;-0.39000
2258333;-0.39000
2261110;-0.38000
2263888;-0.38500
2266666;-0.39000
2269444;-0.38500
2272222;-0.39500
2274999;-0.39000
2277777;-0.38500
2280555;-0.38000
2283333;-0.38000
2286110;-0.38500
2288888;-0.39500
2291666;-0.38500
2294444;-0.37000
2297222;-0.37500
2299999;-0.39000
2302777;-0.40000
2305555;-0.40000
2308333;-0.39000
2311110;-0.37000
2313888;-0.37000
2316666;-0.38000
2319444;-0.38000
2322222;-0.38000
2324999;-0.38000
2327777;-0.36500
2330555;-0.37500
2333333;-0.38500
2336110;-0.38500
2338888;-0.37500
2341666;-0.36500
2344444;-0.36000
2347222;-0.34500
2349999;-0.35500
2352777;-0.36000
2355555;-0.36500
2358333;-0.35000
2361110;-0.34000
2363888;-0.35000
2366666;-0.35500
2369444;-0.36500
2372222;-0.37500
2374999;-0.36500
2377777;-0.35500
2380555;-0.35000
2383333;-0.36500
2386110;-0.37500
2388888;-0.37000
2391666;-0.39000
2394444;-0.39000
2397222;-0.38500
2399999;-0.38000
2402777;-0.39000
2405555;-0.40000
2408333;-0.38000
2411110;-0.37500
2413888;-0.38000
2416666;-0.39000
2419444;-0.39500
2422222;-0.40500
2424999;-0.39500
2427777;-0.39500
2430555;-0.38500
2433333;-0.37000
2436110;-0.37500
2438888;-0.38000
2441666;-0.37500
2444444;-0.36000
2447222;-0.35500
2449999;-0.34500
2452777;-0.35000
2455555;-0.33500
2458333;-0.32500
2461110;-0.32000
2463888;-0.32000
2466666;-0.32000
2469444;-0.32500
2472222;-0.34000
2474999;-0.32500
2477777;-0.30500
2480555;-0.29500
2483333;-0.29500
2486110;-0.29500
2488888;-0.29500
2491666;-0.27500
2494444;-0.28000
2497222;-0.28500
2499999;-0.30000
2502777;-0.29500
2505555;-0.30500
2508333;-0.27500
2511110;-0.26000
2513888;-0.26500
2516666;-0.27500
2519444;-0.28500
2522222;-0.29000
2524999;-0.28500
2527777;-0.29000
2530555;-0.29000
2533333;-0.29500
2536110;-0.30000
2538888;-0.32500
2541666;-0.30000
2544444;-0.30000
2547222;-0.27500
2549999;-0.29500
2552777;-0.30000
2555555;-0.30000
2558333;-0.29500
2561110;-0.29500
2563888;-0.29500
2566666;-0.30000
2569444;-0.31500
2572222;-0.32000
2574999;-0.31000
2577777;-0.31000
2580555;-0.30000
2583333;-0.30500
2586110;-0.30500
2588888;-0.32500
2591666;-0.32000
2594444;-0.32500
2597221;-0.32500
2599999;-0.32500
2602777;-0.32500
2605555;-0.32500
2608333;-0.29500
2611110;-0.29500
2613888;-0.30000
2616666;-0.30000
2619444;-0.31500
2622221;-0.33500
2624999;-0.34500
2627777;-0.34000
2630555;-0.33500
2633333;-0.34500
2636110;-0.34500
2638888;-0.36000
2641666;-0.35000
2644444;-0.33000
2647221;-0.32500
2649999;-0.32500
2652777;-0.31500
2655555;-0.33000
2658333;-0.32000
2661110;-0.32000
2663888;-0.32000
2666666;-0.31000
2669444;-0.33000
2672221;-0.33000
2674999;-0.33500
2677777;-0.32500
2680555;-0.33000
2683333;-0.32500
2686110;-0.32500
2688888;-0.32000
2691666;-0.33000
2694444;-0.32500
2697221;-0.32500
2699999;-0.35000
2702777;-0.35500
2705555;-0.35500
2708333;-0.34000
2711110;-0.33000
2713888;-0.33000
2716666;-0.33000
2719444;-0.33000
2722221;-0.33500
2724999;-0.30000
2727777;-0.27000
2730555;-0.27500
2733333;-0.27000
2736110;-0.28500
2738888;-0.28500
2741666;-0.27000
2744444;-0.25000
2747221;-0.24500
2749999;-0.23500
2752777;-0.24000
2755555;-0.23000
2758333;-0.21000
2761110;-0.20000
2763888;-0.18500
2766666;-0.19000
2769444;-0.20500
2772221;-0.22000
2774999;-0.22500
2777777;-0.23500
2780555;-0.22500
2783333;-0.24500
2786110;-0.24500
2788888;-0.25000
2791666;-0.23500
2794444;-0.21500
2797221;-0.18500
2799999;-0.20000
2802777;-0.24500
2805555;-0.27500
2808333;-0.28500
2811110;-0.28500
2813888;-0.31000
2816666;-0.33500
2819444;-0.34500
2822221;-0.35500
2824999;-0.34500
2827777;-0.35000
2830555;-0.34500
2833333;-0.36000
2836110;-0.35500
2838888;-0.36000
2841666;-0.34500
2844444;-0.33000
2847221;-0.34500
2849999;-0.35500
2852777;-0.38000
2855555;-0.39000
2858333;-0.37500
2861110;-0.36500
2863888;-0.37500
2866666;-0.39000
2869444;-0.38500
2872221;-0.39000
2874999;-0.37000
2877777;-0.38000
2880555;-0.39000
2883333;-0.42000
2886110;-0.47000
2888888;-0.48500
2891666;-0.52000
2894444;-0.56500
2897221;-0.61500
2899999;-0.62000
2902777;-0.60000
2905555;-0.53500
2908333;-0.45000
2911110;-0.36500
2913888;-0.29000
2916666;-0.22000
2919444;-0.09500
2922221;0.08500
2924999;0.35500
2927777;0.66000
2930555;0.86500
2933333;0.90500
2936110;0.73000
2938888;0.35500
2941666;-0.05500
2944444;-0.34500
2947221;-0.48000
2949999;-0.50500
2952777;-0.47500
2955555;-0.44000
2958333;-0.41500
2961110;-0.41000
2963888;-0.40000
2966666;-0.40000
2969444;-0.40500
2972221;-0.40500
2974999;-0.40000
2977777;-0.39500
2980555;-0.39500
2983332;-0.41000
2986110;-0.41500
2988888;-0.41500
2991666;-0.41500
2994444;-0.39500
2997221;-0.40500
2999999;-0.41000
3002777;-0.41000
3005555;-0.41000
3008332;-0.41000
3011110;-0.39000
3013888;-0.40500
3016666;-0.40500
3019444;-0.40000
3022221;-0.41500
3024999;-0.40000
3027777;-0.39500
3030555;-0.40000
3033332;-0.40000
3036110;-0.41000
3038888;-0.41000
3041666;-0.40500
3044444;-0.39500
3047221;-0.39000
3049999;-0.39000
3052777;-0.40500
3055555;-0.41000
3058332;-0.40000
3061110;-0.39000
3063888;-0.38500
3066666;-0.39000
3069444;-0.40000
3072221;-0.42000
3074999;-0.40000
3077777;-0.39000
3080555;-0.39000
3083332;-0.40000
3086110;-0.39000
3088888;-0.40000
3091666;-0.39500
3094444;-0.39000
3097221;-0.38500
3099999;-0.39000
3102777;-0.39500
3105555;-0.39500
3108332;-0.39500
3111110;-0.38000
3113888;-0.37500
3116666;-0.39000
3119444;-0.39500
3122221;-0.40000
3124999;-0.39000
3127777;-0.38000
3130555;-0.39000
3133332;-0.39000
3136110;-0.40500
3138888;-0.40500
3141666;-0.40000
3144444;-0.41000
3147221;-0.39500
3149999;-0.41000
3152777;-0.43500
3155555;-0.43500
3158332;-0.43000
3161110;-0.42500
3163888;-0.43000
3166666;-0.43500
3169444;-0.45000
3172221;-0.45000
3174999;-0.45500
3177777;-0.44000
3180555;-0.44500
3183332;-0.46500
3186110;-0.47500
3188888;-0.48000
3191666;-0.46500
3194444;-0.45000
3197221;-0.45000
3199999;-0.44000
3202777;-0.44000
3205555;-0.44000
3208332;-0.42000
3211110;-0.39500
3213888;-0.38000
3216666;-0.37500
3219444;-0.38000
3222221;-0.36000
3224999;-0.34000
3227777;-0.32000
3230555;-0.31500
3233332;-0.32000
3236110;-0.31500
3238888;-0.32500
3241666;-0.30500
3244444;-0.28500
3247221;-0.29000
3249999;-0.29000
3252777;-0.29500
3255555;-0.29500
3258332;-0.29000
3261110;-0.26500
3263888;-0.26500
3266666;-0.27500
3269444;-0.29000
3272221;-0.29000
3274999;-0.28000
3277777;-0.27500
3280555;-0.26500
3283332;-0.27500
3286110;-0.29000
3288888;-0.29000
3291666;-0.28000
3294444;-0.27500
3297221;-0.27500
3299999;-0.27500
3302777;-0.28500
3305555;-0.29000
3308332;-0.28000
3311110;-0.28500
3313888;-0.28500
3316666;-0.28000
3319444;-0.30000
3322221;-0.30000
3324999;-0.27500
3327777;-0.27000
3330555;-0.28500
3333332;-0.28500
3336110;-0.29000
3338888;-0.29000
3341666;-0.29000
3344444;-0.28500
3347221;-0.28000
3349999;-0.28000
3352777;-0.29000
3355555;-0.29000
3358332;-0.29500
3361110;-0.29500
3363888;-0.30500
3366666;-0.33000
3369444;-0.35000
3372221;-0.36000
3374999;-0.36000
3377777;-0.36500
3380555;-0.38500
3383332;-0.40000
3386110;-0.40500
3388888;-0.41500
3391666;-0.42500
3394443;-0.42000
3397221;-0.43000
3399999;-0.44000
3402777;-0.44000
3405555;-0.44500
3408332;-0.42000
3411110;-0.41000
3413888;-0.42000
3416666;-0.39000
3419443;-0.39000
3422221;-0.38500
3424999;-0.39000
3427777;-0.37000
3430555;-0.34500
3433332;-0.32000
3436110;-0.31000
3438888;-0.30500
3441666;-0.31000
3444443;-0.30000
3447221;-0.31000
3449999;-0.29500
3452777;-0.30000
3455555;-0.31000
3458332;-0.29500
3461110;-0.29000
3463888;-0.29500
3466666;-0.30000
3469443;-0.31000
3472221;-0.31000
3474999;-0.29000
3477777;-0.29500
3480555;-0.30000
3483332;-0.29500
3486110;-0.31500
3488888;-0.34500
3491666;-0.37500
3494443;-0.40500
3497221;-0.43500
3499999;-0.48000
3502777;-0.53500
3505555;-0.53500
3508332;-0.42500
3511110;-0.27500
3513888;-0.09000
3516666;0.07500
3519443;0.29500
3522221;0.58000
3524999;0.85500
3527777;0.99500
3530555;0.96500
3533332;0.72500
3536110;0.29500
3538888;-0.15500
3541666;-0.42000
3544443;-0.44000
3547221;-0.37500
3549999;-0.32500
3552777;-0.30000
3555555;-0.30000
3558332;-0.30500
3561110;-0.29500
3563888;-0.29500
3566666;-0.30000
3569443;-0.29500
3572221;-0.30000
3574999;-0.29500
3577777;-0.28000
3580555;-0.28500
3583332;-0.29000
3586110;-0.29000
3588888;-0.28500
3591666;-0.27500
3594443;-0.27500
3597221;-0.27500
3599999;-0.28000
3602777;-0.28500
3605555;-0.28500
3608332;-0.29000
3611110;-0.27500
3613888;-0.27000
3616666;-0.27500
3619443;-0.28500
3622221;-0.28000
3624999;-0.28000
3627777;-0.27000
3630555;-0.27500
3633332;-0.28500
3636110;-0.29000
3638888;-0.30000
3641666;-0.29500
3644443;-0.29500
3647221;-0.28500
3649999;-0.30500
3652777;-0.30500
3655555;-0.30000
3658332;-0.29500
3661110;-0.29000
3663888;-0.29000
3666666;-0.28500
3669443;-0.29500
3672221;-0.29500
3674999;-0.29000
3677777;-0.29000
3680555;-0.28500
3683332;-0.30000
3686110;-0.31000
3688888;-0.31500
3691666;-0.29500
3694443;-0.29500
3697221;-0.30500
3699999;-0.31000
3702777;-0.31000
3705555;-0.32000
3708332;-0.31000
3711110;-0.31000
3713888;-0.30500
3716666;-0.31500
3719443;-0.32000
3722221;-0.33500
3724999;-0.33500
3727777;-0.33000
3730555;-0.33500
3733332;-0.34000
3736110;-0.35000
3738888;-0.35500
3741666;-0.33500
3744443;-0.33500
3747221;-0.33500
3749999;-0.34500
3752777;-0.35500
3755555;-0.36000
3758332;-0.35500
3761110;-0.35500
3763888;-0.36500
3766666;-0.35500
3769443;-0.35500
3772221;-0.37000
3774999;-0.37000
3777777;-0.36000
3780554;-0.35000
3783332;-0.36500
3786110;-0.38000
3788888;-0.38500
3791666;-0.36500
3794443;-0.36000
3797221;-0.36500
3799999;-0.37000
3802777;-0.37000
3805554;-0.37000
3808332;-0.36500
3811110;-0.35500
3813888;-0.35000
3816666;-0.35000
3819443;-0.33500
3822221;-0.33000
3824999;-0.31000
3827777;-0.31000
3830554;-0.30500
3833332;-0.29500
3836110;-0.30500
3838888;-0.30500
3841666;-0.28500
3844443;-0.28000
3847221;-0.28500
3849999;-0.28000
3852777;-0.29000
3855554;-0.29500
3858332;-0.28500
3861110;-0.27500
3863888;-0.29000
3866666;-0.28500
3869443;-0.29000
3872221;-0.29500
3874999;-0.28500
3877777;-0.28000
3880554;-0.29000
3883332;-0.28500
3886110;-0.29500
3888888;-0.30000
3891666;-0.29000
3894443;-0.29000
3897221;-0.29500
3899999;-0.29500
3902777;-0.31000
3905554;-0.31500
3908332;-0.31000
3911110;-0.29500
3913888;-0.29500
3916666;-0.30000
3919443;-0.30500
3922221;-0.31000
3924999;-0.32000
3927777;-0.30500
3930554;-0.31000
3933332;-0.32500
3936110;-0.33500
3938888;-0.34000
3941666;-0.32500
3944443;-0.32500
3947221;-0.31500
3949999;-0.33000
3952777;-0.33500
3955554;-0.34000
3958332;-0.33000
3961110;-0.32000
3963888;-0.32500
3966666;-0.34000
3969443;-0.33500
3972221;-0.35000
3974999;-0.32000
3977777;-0.32500
3980554;-0.31500
3983332;-0.33000
3986110;-0.33000
3988888;-0.33000
3991666;-0.33000
3994443;-0.31500
3997221;-0.32000
3999999;-0.32500
4002777;-0.34500
4005554;-0.34500
4008332;-0.34000
4011110;-0.32000
4013888;-0.32500
4016666;-0.33500
4019443;-0.33000
4022221;-0.33500
4024999;-0.33000
4027777;-0.32000
4030554;-0.33000
4033332;-0.33500
4036110;-0.34000
4038888;-0.35000
4041666;-0.33500
4044443;-0.32500
4047221;-0.33000
4049999;-0.33500
4052777;-0.34000
4055554;-0.33500
4058332;-0.33500
4061110;-0.32000
4063888;-0.33500
4066666;-0.34000
4069443;-0.35000
4072221;-0.35500
4074999;-0.34000
4077777;-0.33500
4080554;-0.33500
4083332;-0.33000
4086110;-0.35000
4088888;-0.34500
4091666;-0.34500
4094443;-0.33500
4097221;-0.33500
4099999;-0.33500
4102777;-0.34000
4105554;-0.34500
4108332;-0.33500
4111110;-0.32500
4113888;-0.33000
4116666;-0.33000
4119443;-0.34000
4122221;-0.34000
4124999;-0.33000
4127777;-0.32500
4130554;-0.33500
4133332;-0.33500
4136110;-0.33000
4138888;-0.34000
4141666;-0.33000
4144443;-0.33000
4147221;-0.33500
4149999;-0.34000
4152777;-0.34000
4155554;-0.35000
4158332;-0.33000
4161110;-0.32000
4163888;-0.32000
4166666;-0.33000
4169443;-0.34000
4172221;-0.34000
4174999;-0.33500
4177777;-0.32000
4180554;-0.31500
4183332;-0.31500
4186110;-0.33000
4188888;-0.33500
4191665;-0.31500
4194443;-0.29500
4197221;-0.29000
4199999;-0.29000
4202777;-0.28500
4205554;-0.28500
4208332;-0.28000
4211110;-0.27000
4213888;-0.27000
4216665;-0.26500
4219443;-0.26500
4222221;-0.26500
4224999;-0.25000
4227777;-0.26000
4230554;-0.24500
4233332;-0.25000
4236110;-0.23000
4238888;-0.23500
4241665;-0.22500
4244443;-0.20000
4247221;-0.19500
4249999;-0.19500
4252777;-0.21000
4255554;-0.21000
4258332;-0.21500
4261110;-0.23500
4263888;-0.22500
4266665;-0.21500
4269443;-0.22500
4272221;-0.23000
4274999;-0.21500
4277777;-0.21000
4280554;-0.19500
4283332;-0.19000
4286110;-0.22500
4288888;-0.26500
4291665;-0.28500
4294443;-0.29000
4297221;-0.29500
4299999;-0.31500
4302777;-0.33000
4305554;-0.36000
4308332;-0.35000
4311110;-0.34500
4313888;-0.35000
4316665;-0.35500
4319443;-0.35000
4322221;-0.36500
4324999;-0.36500
4327777;-0.35500
4330554;-0.35500
4333332;-0.35000
4336110;-0.37000
4338888;-0.37500
4341665;-0.38000
4344443;-0.37000
4347221;-0.36000
4349999;-0.36500
4352777;-0.37500
4355554;-0.37000
4358332;-0.37000
4361110;-0.36500
4363888;-0.35500
4366665;-0.37000
4369443;-0.39500
4372221;-0.42000
4374999;-0.45500
4377777;-0.48500
4380554;-0.48000
4383332;-0.49500
4386110;-0.53000
4388888;-0.58500
4391665;-0.57500
4394443;-0.49000
4397221;-0.36000
4399999;-0.20000
4402777;-0.02500
4405554;0.23000
4408332;0.54500
4411110;0.78000
4413888;0.90000
4416665;0.85500
4419443;0.61500
4422221;0.15500
4424999;-0.25000
4427777;-0.50000
4430554;-0.54500
4433332;-0.50000
4436110;-0.43500
4438888;-0.41500
4441665;-0.40000
4444443;-0.40500
4447221;-0.40000
4449999;-0.39500
4452777;-0.42500
4455554;-0.41000
4458332;-0.41500
4461110;-0.41500
4463888;-0.40500
4466665;-0.43500
4469443;-0.43000
4472221;-0.44000
4474999;-0.42000
4477777;-0.42000
4480554;-0.41500
4483332;-0.42000
4486110;-0.43000
4488888;-0.43000
4491665;-0.42000
4494443;-0.41500
4497221;-0.40500
4499999;-0.40500
4502777;-0.42000
4505554;-0.43000
4508332;-0.41000
4511110;-0.41000
4513888;-0.40000
4516665;-0.41000
4519443;-0.42000
4522221;-0.42000
4524999;-0.39500
4527777;-0.39000
4530554;-0.39500
4533332;-0.41500
4536110;-0.42500
4538888;-0.42500
4541665;-0.42000
4544443;-0.41000
4547221;-0.40500
4549999;-0.41000
4552777;-0.41500
4555554;-0.42000
4558332;-0.41000
4561110;-0.40500
4563888;-0.40000
4566665;-0.40000
4569443;-0.41500
4572221;-0.42000
4574999;-0.40500
4577776;-0.39500
4580554;-0.39000
4583332;-0.38500
4586110;-0.40500
4588888;-0.40000
4591665;-0.40000
4594443;-0.39000
4597221;-0.38000
4599999;-0.39000
4602776;-0.40500
4605554;-0.41500
4608332;-0.40500
4611110;-0.39000
4613888;-0.38500
4616665;-0.39500
4619443;-0.40000
4622221;-0.41000
4624999;-0.40000
4627776;-0.38500
4630554;-0.38500
4633332;-0.38500
4636110;-0.40000
4638888;-0.41000
4641665;-0.40500
4644443;-0.40500
4647221;-0.41000
4649999;-0.41000
4652776;-0.41500
4655554;-0.42500
4658332;-0.41000
4661110;-0.40000
4663888;-0.40000
4666665;-0.41000
4669443;-0.42000
4672221;-0.41500
4674999;-0.41000
4677776;-0.40500
4680554;-0.40500
4683332;-0.41500
4686110;-0.42000
4688888;-0.41000
4691665;-0.39500
4694443;-0.37500
4697221;-0.36500
4699999;-0.36000
4702776;-0.35500
4705554;-0.36000
4708332;-0.34000
4711110;-0.33500
4713888;-0.33000
4716665;-0.33000
4719443;-0.33000
4722221;-0.33000
4724999;-0.32000
4727776;-0.30000
4730554;-0.29000
4733332;-0.30500
4736110;-0.30000
4738888;-0.31500
4741665;-0.31000
4744443;-0.30500
4747221;-0.29500
4749999;-0.30500
4752776;-0.30000
4755554;-0.31000
4758332;-0.31500
4761110;-0.31000
4763888;-0.31500
4766665;-0.30500
4769443;-0.32000
4772221;-0.31000
4774999;-0.31000
4777776;-0.31000
4780554;-0.30000
4783332;-0.31000
4786110;-0.32000
4788888;-0.31500
4791665;-0.32000
4794443;-0.30500
4797221;-0.30500
4799999;-0.31500
4802776;-0.32000
4805554;-0.33000
4808332;-0.32500
4811110;-0.31000
4813888;-0.32000
4816665;-0.32500
4819443;-0.35000
4822221;-0.34500
4824999;-0.34500
4827776;-0.32500
4830554;-0.33000
4833332;-0.33500
4836110;-0.35500
4838888;-0.35000
4841665;-0.34500
4844443;-0.33000
4847221;-0.33000
4849999;-0.33500
4852776;-0.33500
4855554;-0.34000
4858332;-0.34500
4861110;-0.32500
4863888;-0.32500
4866665;-0.34500
4869443;-0.35500
4872221;-0.36500
4874999;-0.37500
4877776;-0.36500
4880554;-0.35500
4883332;-0.36000
4886110;-0.36500
4888888;-0.36500
4891665;-0.37500
4894443;-0.36500
4897221;-0.35500
4899999;-0.35500
4902776;-0.37500
4905554;-0.37000
4908332;-0.36000
4911110;-0.36500
4913888;-0.36500
4916665;-0.37500
4919443;-0.37000
4922221;-0.38000
4924999;-0.37000
4927776;-0.36500
4930554;-0.37500
4933332;-0.37500
4936110;-0.37500
4938888;-0.39500
4941665;-0.39500
4944443;-0.37000
4947221;-0.37000
4949999;-0.37500
4952776;-0.37500
4955554;-0.39500
4958332;-0.38500
4961110;-0.37000
4963887;-0.36500
4966665;-0.36500
4969443;-0.38000
4972221;-0.38500
4974999;-0.37500
4977776;-0.37000
4980554;-0.37000
4983332;-0.37500
4986110;-0.38500
4988887;-0.38000
4991665;-0.38500
4994443;-0.37500
4997221;-0.37500
4999999;-0.37000
5002776;-0.36500
5005554;-0.37000
5008332;-0.34500
5011110;-0.34000
5013887;-0.34000
5016665;-0.35000
5019443;-0.34500
5022221;-0.34000
5024999;-0.32000
5027776;-0.30000
5030554;-0.29500
5033332;-0.29500
5036110;-0.30000
5038887;-0.30500
5041665;-0.30000
5044443;-0.28500
5047221;-0.28500
5049999;-0.28500
5052776;-0.29000
5055554;-0.30500
5058332;-0.29500
5061110;-0.27500
5063887;-0.27500
5066665;-0.27000
5069443;-0.28000
5072221;-0.29500
5074999;-0.30000
5077776;-0.29000
5080554;-0.28000
5083332;-0.28500
5086110;-0.29500
5088887;-0.29500
5091665;-0.26500
5094443;-0.24000
5097221;-0.23000
5099999;-0.25500
5102776;-0.30500
5105554;-0.34000
5108332;-0.35000
5111110;-0.37500
5113887;-0.38500
5116665;-0.40500
5119443;-0.40000
5122221;-0.42000
5124999;-0.41000
5127776;-0.41000
5130554;-0.41000
5133332;-0.41500
5136110;-0.41500
5138887;-0.41000
5141665;-0.41500
5144443;-0.41500
5147221;-0.43500
5149999;-0.43500
5152776;-0.43500
5155554;-0.44500
5158332;-0.43000
5161110;-0.43000
5163887;-0.42500
5166665;-0.42500
5169443;-0.43500
5172221;-0.44500
5174999;-0.43500
5177776;-0.43500
5180554;-0.43500
5183332;-0.43500
5186110;-0.47500
5188887;-0.51500
5191665;-0.54000
5194443;-0.54500
5197221;-0.58500
5199999;-0.65500
5202776;-0.70500
5205554;-0.69500
5208332;-0.63500
5211110;-0.53500
5213887;-0.45500
5216665;-0.36000
5219443;-0.28500
5222221;-0.17000
5224999;0.01000
5227776;0.23000
5230554;0.45000
5233332;0.60500
5236110;0.72500
5238887;0.79000
5241665;0.74000
5244443;0.52500
5247221;0.15500
5249999;-0.22000
5252776;-0.46500
5255554;-0.57000
5258332;-0.56500
5261110;-0.51500
5263887;-0.47500
5266665;-0.47000
5269443;-0.47000
5272221;-0.48000
5274999;-0.46000
5277776;-0.46500
5280554;-0.46500
5283332;-0.48000
5286110;-0.49000
5288887;-0.50000
5291665;-0.49500
5294443;-0.48000
5297221;-0.45500
5299999;-0.45500
5302776;-0.47500
5305554;-0.48000
5308332;-0.48500
5311110;-0.47500
5313887;-0.47000
5316665;-0.47000
5319443;-0.46000
5322221;-0.47000
5324999;-0.47000
5327776;-0.46000
5330554;-0.47000
5333332;-0.47500
5336110;-0.49500
5338887;-0.48500
5341665;-0.47500
5344443;-0.46000
5347221;-0.47500
5349999;-0.47500
5352776;-0.47500
5355554;-0.49000
5358332;-0.49000
5361110;-0.47500
5363887;-0.48000
5366665;-0.47500
5369443;-0.48000
5372221;-0.48000
5374998;-0.47000
5377776;-0.47500
5380554;-0.46500
5383332;-0.47000
5386110;-0.47000
5388887;-0.48500
5391665;-0.48500
5394443;-0.48500
5397221;-0.49500
5399998;-0.49000
5402776;-0.49500
5405554;-0.48500
5408332;-0.48000
5411110;-0.46500
5413887;-0.46000
5416665;-0.47000
5419443;-0.48500
5422221;-0.50000
5424998;-0.49500
5427776;-0.50000
5430554;-0.48500
5433332;-0.48500
5436110;-0.48500
5438887;-0.49500
5441665;-0.49000
5444443;-0.47500
5447221;-0.48000
5449998;-0.50000
5452776;-0.50000
5455554;-0.51500
5458332;-0.50500
5461110;-0.49000
5463887;-0.49000
5466665;-0.48500
5469443;-0.51000
5472221;-0.50500
5474998;-0.49500
5477776;-0.48000
5480554;-0.49000
5483332;-0.51000
5486110;-0.52500
5488887;-0.54500
5491665;-0.54500
5494443;-0.55000
5497221;-0.54000
5499998;-0.54000
5502776;-0.54000
5505554;-0.55000
5508332;-0.54500
5511110;-0.52500
5513887;-0.52000
5516665;-0.52000
5519443;-0.53000
5522221;-0.52500
5524998;-0.50000
5527776;-0.48500
5530554;-0.47500
5533332;-0.46000
5536110;-0.45500
5538887;-0.45000
5541665;-0.44500
5544443;-0.43500
5547221;-0.43500
5549998;-0.41500
5552776;-0.41000
5555554;-0.42500
5558332;-0.42000
5561110;-0.43000
5563887;-0.42500
5566665;-0.42000
5569443;-0.42500
5572221;-0.41500
5574998;-0.41000
5577776;-0.37500
5580554;-0.36000
5583332;-0.36000
5586110;-0.36500
5588887;-0.38000
5591665;-0.38500
5594443;-0.39000
5597221;-0.39000
5599998;-0.39500
5602776;-0.40000
5605554;-0.40500
5608332;-0.38000
5611110;-0.39000
5613887;-0.39500
5616665;-0.39000
5619443;-0.39500
5622221;-0.40000
5624998;-0.37500
5627776;-0.37000
5630554;-0.36500
5633332;-0.36500
5636110;-0.38000
5638887;-0.40500
5641665;-0.40500
5644443;-0.41500
5647221;-0.41500
5649998;-0.41500
5652776;-0.41500
5655554;-0.43500
5658332;-0.42000
5661110;-0.40000
5663887;-0.41000
5666665;-0.40500
5669443;-0.41500
5672221;-0.41500
5674998;-0.42000
5677776;-0.39500
5680554;-0.39500
5683332;-0.40000
5686110;-0.42500
5688887;-0.44000
5691665;-0.43500
5694443;-0.40500
5697221;-0.41000
5699998;-0.41500
5702776;-0.40500
5705554;-0.42000
5708332;-0.43500
5711110;-0.42000
5713887;-0.42500
5716665;-0.42500
5719443;-0.42000
5722221;-0.42000
5724998;-0.42000
5727776;-0.41500
5730554;-0.41500
5733332;-0.42500
5736110;-0.43000
5738887;-0.45500
5741665;-0.43000
5744443;-0.42000
5747221;-0.41000
5749998;-0.41000
5752776;-0.42000
5755554;-0.42000
5758332;-0.43000
5761109;-0.42000
5763887;-0.42500
5766665;-0.42500
5769443;-0.44000
5772221;-0.44500
5774998;-0.44000
5777776;-0.43500
5780554;-0.42500
5783332;-0.43500
5786109;-0.44000
5788887;-0.45000
5791665;-0.45000
5794443;-0.43000
5797221;-0.42500
5799998;-0.43500
5802776;-0.43500
5805554;-0.44000
5808332;-0.43500
5811109;-0.42000
5813887;-0.41500
5816665;-0.42000
5819443;-0.42500
5822221;-0.43500
5824998;-0.43500
5827776;-0.42000
5830554;-0.41500
5833332;-0.42500
5836109;-0.43500
5838887;-0.43500
5841665;-0.44000
5844443;-0.43500
5847221;-0.42500
5849998;-0.43500
5852776;-0.43000
5855554;-0.44000
5858332;-0.44000
5861109;-0.43000
5863887;-0.41500
5866665;-0.40500
5869443;-0.40500
5872221;-0.41500
5874998;-0.39500
5877776;-0.38000
5880554;-0.36000
5883332;-0.36000
5886109;-0.36500
5888887;-0.37000
5891665;-0.34000
5894443;-0.33000
5897221;-0.32000
5899998;-0.32000
5902776;-0.31500
5905554;-0.31500
5908332;-0.31500
5911109;-0.30000
5913887;-0.31000
5916665;-0.30000
5919443;-0.32000
5922221;-0.33000
5924998;-0.33000
5927776;-0.32500
5930554;-0.31000
5933332;-0.31500
5936109;-0.32000
5938887;-0.33000
5941665;-0.30500
5944443;-0.29000
5947221;-0.28000
5949998;-0.30000
5952776;-0.34000
5955554;-0.36000
5958332;-0.37000
5961109;-0.37500
5963887;-0.39500
5966665;-0.41000
5969443;-0.42500
5972221;-0.43000
5974998;-0.43000
5977776;-0.42500
5980554;-0.42000
5983332;-0.41000
5986109;-0.42000
5988887;-0.43500
5991665;-0.42500
5994443;-0.43000
5997221;-0.42000
5999998;-0.43500
6002776;-0.44500
6005554;-0.46500
6008332;-0.46500
6011109;-0.45500
6013887;-0.44000
6016665;-0.45500
6019443;-0.44500
6022221;-0.45000
6024998;-0.45000
6027776;-0.44500
6030554;-0.44500
6033332;-0.44500
6036109;-0.45500
6038887;-0.46000
6041665;-0.45000
6044443;-0.45500
6047221;-0.45000
6049998;-0.51000
6052776;-0.54000
6055554;-0.55500
6058332;-0.57000
6061109;-0.59500
6063887;-0.63000
6066665;-0.63000
6069443;-0.56000
6072221;-0.44500
6074998;-0.30000
6077776;-0.14000
6080554;0.09000
6083332;0.38500
6086109;0.63500
6088887;0.78500
6091665;0.81000
6094443;0.64500
6097221;0.27500
6099998;-0.15000
6102776;-0.45500
6105554;-0.59000
6108332;-0.61000
6111109;-0.57500
6113887;-0.53000
6116665;-0.49000
6119443;-0.46500
6122221;-0.47500
6124998;-0.46500
6127776;-0.47000
6130554;-0.45000
6133332;-0.45500
6136109;-0.46000
6138887;-0.46500
6141665;-0.46000
6144443;-0.45500
6147221;-0.44500
6149998;-0.45500
6152776;-0.46000
6155554;-0.45500
6158332;-0.45000
6161109;-0.44000
6163887;-0.45000
6166665;-0.46500
6169443;-0.48000
6172220;-0.48500
6174998;-0.47000
6177776;-0.47000
6180554;-0.47000
6183332;-0.47000
6186109;-0.47000
6188887;-0.48000
6191665;-0.47000
6194443;-0.45000
6197220;-0.45000
6199998;-0.45000
6202776;-0.45500
6205554;-0.47500
6208332;-0.45500
6211109;-0.46000
6213887;-0.44500
6216665;-0.45000
6219443;-0.45500
6222220;-0.46500
6224998;-0.45500
6227776;-0.43500
6230554;-0.44000
6233332;-0.44500
6236109;-0.44500
6238887;-0.45500
6241665;-0.45000
6244443;-0.44500
6247220;-0.43500
6249998;-0.43500
6252776;-0.44500
6255554;-0.45500
6258332;-0.45500
6261109;-0.46000
6263887;-0.45500
6266665;-0.45500
6269443;-0.45000
6272220;-0.46500
6274998;-0.45500
6277776;-0.44500
6280554;-0.43500
6283332;-0.44500
6286109;-0.44500
6288887;-0.44500
6291665;-0.45000
6294443;-0.44000
6297220;-0.43500
6299998;-0.44000
6302776;-0.44500
6305554;-0.45500
6308332;-0.45000
6311109;-0.44500
6313887;-0.44000
6316665;-0.45000
6319443;-0.46000
6322220;-0.48000
6324998;-0.48000
6327776;-0.47500
6330554;-0.46500
6333332;-0.48000
6336109;-0.49000
6338887;-0.50500
6341665;-0.50500
6344443;-0.49500
6347220;-0.49500
6349998;-0.50000
6352776;-0.51000
6355554;-0.52000
6358332;-0.51500
6361109;-0.50500
6363887;-0.50000
6366665;-0.49500
6369443;-0.51000
6372220;-0.51000
6374998;-0.49500
6377776;-0.48500
6380554;-0.46500
6383332;-0.46500
6386109;-0.46000
6388887;-0.45500
6391665;-0.45500
6394443;-0.43000
6397220;-0.42000
6399998;-0.42000
6402776;-0.41500
6405554;-0.42000
6408332;-0.41500
6411109;-0.39500
6413887;-0.38500
6416665;-0.39000
6419443;-0.39500
6422220;-0.40000
6424998;-0.38500
6427776;-0.37000
6430554;-0.36500
6433332;-0.36500
6436109;-0.37000
6438887;-0.35500
6441665;-0.36000
6444443;-0.35000
6447220;-0.34000
6449998;-0.35000
6452776;-0.35000
6455554;-0.35500
6458332;-0.35500
6461109;-0.36000
6463887;-0.35000
6466665;-0.35000
6469443;-0.36500
6472220;-0.37500
6474998;-0.36000
6477776;-0.35500
6480554;-0.35000
6483332;-0.35500
6486109;-0.36500
6488887;-0.37500
6491665;-0.36500
6494443;-0.35500
6497220;-0.35500
6499998;-0.36500
6502776;-0.36500
6505554;-0.38500
6508332;-0.38000
6511109;-0.37500
6513887;-0.36500
6516665;-0.37000
6519443;-0.38500
6522220;-0.39000
6524998;-0.38500
6527776;-0.36500
6530554;-0.37000
6533332;-0.37000
6536109;-0.37500
6538887;-0.40000
6541665;-0.39500
6544443;-0.37000
6547220;-0.36500
6549998;-0.37000
6552776;-0.37500
6555554;-0.39000
6558331;-0.39000
6561109;-0.38500
6563887;-0.37500
6566665;-0.38000
6569443;-0.39000
6572220;-0.42000
6574998;-0.39500
6577776;-0.39000
6580554;-0.38500
6583331;-0.39000
6586109;-0.39500
6588887;-0.41500
6591665;-0.41500
6594443;-0.40000
6597220;-0.39500
6599998;-0.39500
6602776;-0.40500
6605554;-0.41000
6608331;-0.40000
6611109;-0.40000
6613887;-0.38000
6616665;-0.39000
6619443;-0.39500
6622220;-0.40500
6624998;-0.40500
6627776;-0.39500
6630554;-0.40000
6633331;-0.40000
6636109;-0.40000
6638887;-0.41500
6641665;-0.42000
6644443;-0.41500
6647220;-0.40500
6649998;-0.39500
6652776;-0.40000
6655554;-0.40000
6658331;-0.38000
6661109;-0.37000
6663887;-0.35500
6666665;-0.35500
6669443;-0.35500
6672220;-0.37000
6674998;-0.35500
6677776;-0.34000
6680554;-0.33000
6683331;-0.33000
6686109;-0.33500
6688887;-0.33000
6691665;-0.33000
6694443;-0.32000
6697220;-0.30500
6699998;-0.30500
6702776;-0.31500
6705554;-0.31000
6708331;-0.29500
6711109;-0.28500
6713887;-0.27500
6716665;-0.27500
6719443;-0.27500
6722220;-0.29500
6724998;-0.30500
6727776;-0.30000
6730554;-0.29500
6733331;-0.29500
6736109;-0.30000
6738887;-0.30000
6741665;-0.29500
6744443;-0.28000
6747220;-0.25500
6749998;-0.24500
6752776;-0.27000
6755554;-0.32000
6758331;-0.34500
6761109;-0.34000
6763887;-0.35500
6766665;-0.36000
6769443;-0.39500
6772220;-0.41000
6774998;-0.41000
6777776;-0.41500
6780554;-0.40000
6783331;-0.40500
6786109;-0.42000
6788887;-0.43000
6791665;-0.43000
6794443;-0.41500
6797220;-0.41500
6799998;-0.43500
6802776;-0.44500
6805554;-0.44500
6808331;-0.44500
6811109;-0.44000
6813887;-0.43500
6816665;-0.43500
6819443;-0.44500
6822220;-0.45000
6824998;-0.43500
6827776;-0.44000
6830554;-0.43500
6833331;-0.43000
6836109;-0.42000
6838887;-0.44500
6841665;-0.44000
6844443;-0.45000
6847220;-0.47500
6849998;-0.54000
6852776;-0.56000
6855554;-0.58500
6858331;-0.60500
6861109;-0.65000
6863887;-0.64500
6866665;-0.58500
6869443;-0.48000
6872220;-0.34500
6874998;-0.20000
6877776;-0.02500
6880554;0.21000
6883331;0.48000
6886109;0.69000
6888887;0.83000
6891665;0.94000
6894443;1.03500
6897220;1.05000
6899998;0.98500
6902776;0.78000
6905554;0.47000
6908331;0.11000
6911109;-0.22000
6913887;-0.46000
6916665;-0.58500
6919443;-0.63000
6922220;-0.59500
6924998;-0.52500
6927776;-0.47000
6930554;-0.45000
6933331;-0.46500
6936109;-0.47000
6938887;-0.47000
6941665;-0.47500
6944442;-0.47000
6947220;-0.47500
6949998;-0.48000
6952776;-0.47000
6955554;-0.49000
6958331;-0.48500
6961109;-0.47500
6963887;-0.47500
6966665;-0.48500
6969442;-0.49000
6972220;-0.49500
6974998;-0.49000
6977776;-0.48500
6980554;-0.47500
6983331;-0.48000
6986109;-0.48500
6988887;-0.50000
6991665;-0.48000
6994442;-0.48000
6997220;-0.47000
6999998;-0.47000
7002776;-0.47000
7005554;-0.47500
7008331;-0.47500
7011109;-0.45500
7013887;-0.45500
7016665;-0.45500
7019442;-0.47000
7022220;-0.47000
7024998;-0.47000
7027776;-0.46500
7030554;-0.46500
7033331;-0.47000
7036109;-0.47000
7038887;-0.47000
7041665;-0.46500
7044442;-0.45500
7047220;-0.45000
7049998;-0.45000
7052776;-0.46000
7055554;-0.46500
7058331;-0.46000
7061109;-0.45000
7063887;-0.45000
7066665;-0.45000
7069442;-0.47000
7072220;-0.47000
7074998;-0.46000
7077776;-0.46000
7080554;-0.45500
7083331;-0.44000
7086109;-0.45000
7088887;-0.45500
7091665;-0.46000
7094442;-0.45000
7097220;-0.44500
7099998;-0.44000
7102776;-0.45000
7105554;-0.46000
7108331;-0.45000
7111109;-0.45500
7113887;-0.44500
7116665;-0.45500
7119442;-0.45500
7122220;-0.46500
7124998;-0.46000
7127776;-0.46000
7130554;-0.45500
7133331;-0.46000
7136109;-0.46500
7138887;-0.48000
7141665;-0.46500
7144442;-0.45500
7147220;-0.45500
7149998;-0.46500
7152776;-0.46500
7155554;-0.47500
7158331;-0.46500
7161109;-0.46000
7163887;-0.46000
7166665;-0.46500
7169442;-0.46000
7172220;-0.47500
7174998;-0.46500
7177776;-0.45000
7180554;-0.44500
7183331;-0.44500
7186109;-0.45500
7188887;-0.45000
7191665;-0.44500
7194442;-0.43000
7197220;-0.42500
7199998;-0.41500
7202776;-0.42000
7205554;-0.42000
7208331;-0.41000
7211109;-0.40000
7213887;-0.40500
7216665;-0.39500
7219442;-0.40500
7222220;-0.38500
7224998;-0.38500
7227776;-0.36500
7230554;-0.37000
7233331;-0.36000
7236109;-0.37500
7238887;-0.38500
7241665;-0.38000
7244442;-0.37500
7247220;-0.36000
7249998;-0.37000
7252776;-0.36500
7255554;-0.38000
7258331;-0.38000
7261109;-0.37000
7263887;-0.36000
7266665;-0.37500
7269442;-0.37500
7272220;-0.39500
7274998;-0.38500
7277776;-0.38500
7280554;-0.38000
7283331;-0.37500
7286109;-0.40500
7288887;-0.41000
7291665;-0.40500
7294442;-0.39500
7297220;-0.39000
7299998;-0.39000
7302776;-0.40000
7305554;-0.40000
7308331;-0.40500
7311109;-0.40000
7313887;-0.38000
7316665;-0.38500
7319442;-0.39000
7322220;-0.40000
7324998;-0.40000
7327776;-0.39000
7330554;-0.39000
7333331;-0.38500
7336109;-0.39500
7338887;-0.40500
7341665;-0.40500
7344442;-0.40000
7347220;-0.39000
7349998;-0.39500
7352776;-0.42000
7355553;-0.41500
7358331;-0.42500
7361109;-0.42500
7363887;-0.41000
7366665;-0.42000
7369442;-0.42000
7372220;-0.43000
7374998;-0.43000
7377776;-0.41500
7380553;-0.41000
7383331;-0.41000
7386109;-0.42000
7388887;-0.42500
7391665;-0.42500
7394442;-0.43000
7397220;-0.43000
7399998;-0.41000
7402776;-0.42000
7405553;-0.44000
7408331;-0.43000
7411109;-0.42500
7413887;-0.42000
7416665;-0.41500
7419442;-0.43000
7422220;-0.44000
7424998;-0.43000
7427776;-0.42500
7430553;-0.41500
7433331;-0.41000
7436109;-0.42500
7438887;-0.43500
7441665;-0.42000
7444442;-0.42500
7447220;-0.41500
7449998;-0.40500
7452776;-0.42000
7455553;-0.41500
7458331;-0.42000
7461109;-0.40000
7463887;-0.38500
7466665;-0.38500
7469442;-0.38000
7472220;-0.39000
7474998;-0.38000
7477776;-0.36500
7480553;-0.34000
7483331;-0.35000
7486109;-0.35500
7488887;-0.36000
7491665;-0.34500
7494442;-0.34000
7497220;-0.31000
7499998;-0.31500
7502776;-0.31500
7505553;-0.33000
7508331;-0.32000
7511109;-0.30000
7513887;-0.29000
7516665;-0.31000
7519442;-0.32000
7522220;-0.33500
7524998;-0.31000
7527776;-0.31000
7530553;-0.31000
7533331;-0.31000
7536109;-0.31500
7538887;-0.30500
7541665;-0.29500
7544442;-0.30500
7547220;-0.34000
7549998;-0.36500
7552776;-0.38000
7555553;-0.39500
7558331;-0.42000
7561109;-0.43500
7563887;-0.43500
7566665;-0.45500
7569442;-0.46500
7572220;-0.46500
7574998;-0.46000
7577776;-0.44500
7580553;-0.44000
7583331;-0.45000
7586109;-0.44500
7588887;-0.45500
7591665;-0.45000
7594442;-0.44500
7597220;-0.45000
7599998;-0.46500
7602776;-0.46500
7605553;-0.46500
7608331;-0.47500
7611109;-0.48000
7613887;-0.47000
7616665;-0.45500
7619442;-0.46500
7622220;-0.47000
7624998;-0.49000
7627776;-0.48000
7630553;-0.47000
7633331;-0.48000
7636109;-0.49000
7638887;-0.53500
7641665;-0.56500
7644442;-0.58500
7647220;-0.59500
7649998;-0.62500
7652776;-0.68000
7655553;-0.71500
7658331;-0.66500
7661109;-0.56000
7663887;-0.42000
7666665;-0.25500
7669442;-0.06000
7672220;0.19000
7674998;0.48000
7677776;0.68500
7680553;0.78000
7683331;0.72500
7686109;0.49000
7688887;0.08500
7691665;-0.31000
7694442;-0.54000
7697220;-0.62500
7699998;-0.62500
7702776;-0.57500
7705553;-0.54500
7708331;-0.52500
7711109;-0.51000
7713887;-0.51000
7716665;-0.51500
7719442;-0.51500
7722220;-0.53500
7724998;-0.52500
7727776;-0.52000
7730553;-0.52000
7733331;-0.51500
7736109;-0.51500
7738887;-0.51500
7741664;-0.51000
7744442;-0.50000
7747220;-0.50000
7749998;-0.49500
7752776;-0.50000
7755553;-0.51000
7758331;-0.52000
7761109;-0.51000
7763887;-0.49500
7766664;-0.50500
7769442;-0.50500
7772220;-0.53000
7774998;-0.52000
7777776;-0.51500
7780553;-0.52000
7783331;-0.50500
7786109;-0.52000
7788887;-0.52000
7791664;-0.51500
7794442;-0.51500
7797220;-0.51000
7799998;-0.51000
7802776;-0.52500
7805553;-0.54000
7808331;-0.52500
7811109;-0.51000
7813887;-0.51000
7816664;-0.52000
7819442;-0.52500
7822220;-0.53000
7824998;-0.52000
7827776;-0.52000
7830553;-0.50500
7833331;-0.51500
7836109;-0.53000
7838887;-0.54000
7841664;-0.53500
7844442;-0.52000
7847220;-0.49500
7849998;-0.49500
7852776;-0.50000
7855553;-0.52000
7858331;-0.51000
7861109;-0.50000
7863887;-0.48500
7866664;-0.48500
7869442;-0.50500
7872220;-0.51000
7874998;-0.50500
7877776;-0.51000
7880553;-0.51000
7883331;-0.52500
7886109;-0.51500
7888887;-0.51500
7891664;-0.50000
7894442;-0.48500
7897220;-0.48500
7899998;-0.48500
7902776;-0.50000
7905553;-0.51000
7908331;-0.50000
7911109;-0.50000
7913887;-0.49000
7916664;-0.50000
7919442;-0.51000
7922220;-0.53000
7924998;-0.53500
7927776;-0.54000
7930553;-0.54500
7933331;-0.55000
7936109;-0.55000
7938887;-0.56000
7941664;-0.56500
7944442;-0.55500
7947220;-0.55500
7949998;-0.56500
7952776;-0.56000
7955553;-0.56000
7958331;-0.54500
7961109;-0.54000
7963887;-0.54000
7966664;-0.55000
7969442;-0.54500
7972220;-0.53000
7974998;-0.51000
7977776;-0.49000
7980553;-0.47500
7983331;-0.48000
7986109;-0.47500
7988887;-0.47500
7991664;-0.47000
7994442;-0.45500
7997220;-0.46500
7999998;-0.45500
8002776;-0.45500
8005553;-0.44500
8008331;-0.42500
8011109;-0.43000
8013887;-0.40500
8016664;-0.42500
8019442;-0.42000
8022220;-0.42000
8024998;-0.41500
8027776;-0.41500
8030553;-0.41500
8033331;-0.42000
8036109;-0.43000
8038887;-0.43000
8041664;-0.41000
8044442;-0.38500
8047220;-0.37000
8049998;-0.38500
8052776;-0.39500
8055553;-0.39500
8058331;-0.40000
8061109;-0.39500
8063887;-0.40000
8066664;-0.41500
8069442;-0.42000
8072220;-0.44500
8074998;-0.42500
8077776;-0.41500
8080553;-0.42000
8083331;-0.42000
8086109;-0.41000
8088887;-0.42500
8091664;-0.42500
8094442;-0.42000
8097220;-0.42000
8099998;-0.41500
8102776;-0.43000
8105553;-0.44500
8108331;-0.45000
8111109;-0.43500
8113887;-0.45000
8116664;-0.43500
8119442;-0.44500
8122220;-0.43000
8124998;-0.42500
8127776;-0.42500
8130553;-0.41500
8133331;-0.43000
8136109;-0.43500
8138887;-0.44500
8141664;-0.45000
8144442;-0.44500
8147220;-0.44000
8149998;-0.46500
8152775;-0.47000
8155553;-0.47000
8158331;-0.45500
8161109;-0.44000
8163887;-0.44500
8166664;-0.44000
8169442;-0.45000
8172220;-0.47500
8174998;-0.46500
8177775;-0.44500
8180553;-0.44000
8183331;-0.42500
8186109;-0.43500
8188887;-0.45500
8191664;-0.45500
8194442;-0.44500
8197220;-0.45000
8199998;-0.46000
8202775;-0.44500
8205553;-0.45500
8208331;-0.46500
8211109;-0.46000
8213887;-0.45500
8216664;-0.44500
8219442;-0.45500
8222220;-0.48000
8224998;-0.46000
8227775;-0.45000
8230553;-0.43000
8233331;-0.43000
8236109;-0.44000
8238887;-0.45500
8241664;-0.45500
8244442;-0.44500
8247220;-0.45000
8249998;-0.44500
8252775;-0.44000
8255553;-0.44500
8258331;-0.43500
8261109;-0.42000
8263887;-0.41500
8266664;-0.41000
8269442;-0.41000
8272220;-0.41000
8274998;-0.39500
8277775;-0.38500
8280553;-0.38500
8283331;-0.38000
8286109;-0.38000
8288887;-0.38000
8291664;-0.36500
8294442;-0.35500
8297220;-0.33500
8299998;-0.34500
8302775;-0.35000
8305553;-0.34000
8308331;-0.33500
8311109;-0.33000
8313887;-0.31000
8316664;-0.31000
8319442;-0.31500
8322220;-0.33000
8324998;-0.32500
8327775;-0.32000
8330553;-0.32000
8333331;-0.32000
8336109;-0.33000
8338887;-0.33500
8341664;-0.32500
8344442;-0.33000
8347220;-0.32500
8349998;-0.33000
8352775;-0.31000
8355553;-0.30500
8358331;-0.31000
8361109;-0.30500
8363887;-0.33500
8366664;-0.36500
8369442;-0.37500
8372220;-0.40500
8374998;-0.41500
8377775;-0.42000
8380553;-0.43000
8383331;-0.44000
8386109;-0.45500
8388887;-0.46500
8391664;-0.45000
8394442;-0.45000
8397220;-0.45000
8399998;-0.44500
8402775;-0.46000
8405553;-0.46500
8408331;-0.46000
8411109;-0.44500
8413887;-0.44500
8416664;-0.45500
8419442;-0.46500
8422220;-0.46500
8424998;-0.46000
8427775;-0.46000
8430553;-0.44500
8433331;-0.45000
8436109;-0.46000
8438887;-0.45500
8441664;-0.44500
8444442;-0.45000
8447220;-0.46500
8449998;-0.50000
8452775;-0.53500
8455553;-0.56500
8458331;-0.58500
8461109;-0.63000
8463887;-0.66000
8466664;-0.65500
8469442;-0.57500
8472220;-0.43500
8474998;-0.27500
8477775;-0.08000
8480553;0.17000
8483331;0.46000
8486109;0.71000
8488887;0.85000
8491664;0.93000
8494442;0.87500
8497220;0.65000
8499998;0.26500
8502775;-0.12500
8505553;-0.41000
8508331;-0.55000
8511109;-0.60500
8513887;-0.60500
8516664;-0.57500
8519442;-0.55500
8522220;-0.53000
8524998;-0.50500
8527775;-0.48000
8530553;-0.48000
8533331;-0.48000
8536109;-0.49000
8538886;-0.49000
8541664;-0.49000
8544442;-0.48000
8547220;-0.48000
8549998;-0.47500
8552775;-0.49000
8555553;-0.49500
8558331;-0.48500
8561109;-0.47000
8563886;-0.46500
8566664;-0.46500
8569442;-0.48000
8572220;-0.48500
8574998;-0.48500
8577775;-0.47500
8580553;-0.46000
8583331;-0.46000
8586109;-0.46500
8588886;-0.47500
8591664;-0.47500
8594442;-0.46000
8597220;-0.45500
8599998;-0.46000
8602775;-0.46500
8605553;-0.47500
8608331;-0.46000
8611109;-0.44000
8613886;-0.44000
8616664;-0.43500
8619442;-0.46000
8622220;-0.46500
8624998;-0.46000
8627775;-0.46000
8630553;-0.45000
8633331;-0.45000
8636109;-0.46000
8638886;-0.46500
8641664;-0.45500
8644442;-0.45000
8647220;-0.44000
8649998;-0.45000
8652775;-0.44000
8655553;-0.45500
8658331;-0.45500
8661109;-0.43500
8663886;-0.43500
8666664;-0.43500
8669442;-0.44500
8672220;-0.45500
8674998;-0.43500
8677775;-0.43000
8680553;-0.43000
8683331;-0.43500
8686109;-0.43500
8688886;-0.45500
8691664;-0.44500
8694442;-0.44500
8697220;-0.44500
8699998;-0.44500
8702775;-0.44500
8705553;-0.44000
8708331;-0.44500
8711109;-0.43000
8713886;-0.42500
8716664;-0.43000
8719442;-0.44500
8722220;-0.45500
8724998;-0.45000
8727775;-0.44500
8730553;-0.45000
8733331;-0.45000
8736109;-0.46000
8738886;-0.48000
8741664;-0.47500
8744442;-0.47500
8747220;-0.48000
8749998;-0.47500
8752775;-0.48500
8755553;-0.49500
8758331;-0.50000
8761109;-0.50000
8763886;-0.49000
8766664;-0.50000
8769442;-0.49500
8772220;-0.50500
8774998;-0.49500
8777775;-0.48500
8780553;-0.46000
8783331;-0.46500
8786109;-0.46000
8788886;-0.45500
8791664;-0.43500
8794442;-0.42000
8797220;-0.40500
8799998;-0.39000
8802775;-0.40500
8805553;-0.38500
8808331;-0.39000
8811109;-0.36000
8813886;-0.34500
8816664;-0.34000
8819442;-0.34500
8822220;-0.34500
8824998;-0.34500
8827775;-0.33000
8830553;-0.32500
8833331;-0.33000
8836109;-0.32500
8838886;-0.33500
8841664;-0.33500
8844442;-0.33500
8847220;-0.32000
8849998;-0.34000
8852775;-0.33500
8855553;-0.34000
8858331;-0.33000
8861109;-0.33500
8863886;-0.32500
8866664;-0.33000
8869442;-0.32500
8872220;-0.33000
8874998;-0.33000
8877775;-0.32500
8880553;-0.32000
8883331;-0.32500
8886109;-0.34000
8888886;-0.34000
8891664;-0.33500
8894442;-0.32500
8897220;-0.33000
8899998;-0.33500
8902775;-0.34000
8905553;-0.35000
8908331;-0.35500
8911109;-0.35500
8913886;-0.34500
8916664;-0.34500
8919442;-0.34500
8922220;-0.36000
8924998;-0.36500
8927775;-0.35000
8930553;-0.35500
8933331;-0.35500
8936109;-0.37000
8938886;-0.37500
8941664;-0.35500
8944442;-0.35500
8947220;-0.35000
8949997;-0.36000
8952775;-0.36000
8955553;-0.36500
8958331;-0.37000
8961109;-0.36000
8963886;-0.34500
8966664;-0.36000
8969442;-0.35000
8972220;-0.36500
8974997;-0.36000
8977775;-0.35500
8980553;-0.35000
8983331;-0.35500
8986109;-0.36000
8988886;-0.39000
8991664;-0.37000
8994442;-0.36500
8997220;-0.36000
8999997;-0.36500
9002775;-0.37500
9005553;-0.37000
9008331;-0.36500
9011109;-0.35500
9013886;-0.35500
9016664;-0.35500
9019442;-0.35500
9022220;-0.36000
9024997;-0.36000
9027775;-0.35000
9030553;-0.33500
9033331;-0.34000
9036109;-0.33500
9038886;-0.34000
9041664;-0.31500
9044442;-0.32000
9047220;-0.32000
9049997;-0.30000
9052775;-0.29000
9055553;-0.29500
9058331;-0.28000
9061109;-0.26500
9063886;-0.24500
9066664;-0.24500
9069442;-0.24000
9072220;-0.24500
9074997;-0.24500
9077775;-0.22500
9080553;-0.22500
9083331;-0.23000
9086109;-0.24500
9088886;-0.26000
9091664;-0.25500
9094442;-0.23500
9097220;-0.23500
9099997;-0.22500
9102775;-0.23000
9105553;-0.23000
9108331;-0.20500
9111109;-0.20500
9113886;-0.21500
9116664;-0.25500
9119442;-0.28500
9122220;-0.29500
9124997;-0.31000
9127775;-0.30000
9130553;-0.32000
9133331;-0.34000
9136109;-0.35500
9138886;-0.37000
9141664;-0.38000
9144442;-0.37000
9147220;-0.35500
9149997;-0.34500
9152775;-0.36000
9155553;-0.36000
9158331;-0.37500
9161109;-0.36500
9163886;-0.36000
9166664;-0.36500
9169442;-0.37000
9172220;-0.39000
9174997;-0.39000
9177775;-0.38000
9180553;-0.36500
9183331;-0.37000
9186109;-0.38000
9188886;-0.38500
9191664;-0.39500
9194442;-0.38000
9197220;-0.38000
9199997;-0.39000
9202775;-0.40000
9205553;-0.43500
9208331;-0.47000
9211109;-0.50500
9213886;-0.51500
9216664;-0.54000
9219442;-0.58500
9222220;-0.60500
9224997;-0.54000
9227775;-0.38000
9230553;-0.20000
9233331;-0.01500
9236109;0.19000
9238886;0.45000
9241664;0.74000
9244442;0.96000
9247220;1.08500
9249997;1.03500
9252775;0.78500
9255553;0.32000
9258331;-0.14500
9261109;-0.44000
9263886;-0.52500
9266664;-0.49500
9269442;-0.45500
9272220;-0.41000
9274997;-0.38500
9277775;-0.36500
9280553;-0.37000
9283331;-0.37500
9286109;-0.39500
9288886;-0.40500
9291664;-0.41000
9294442;-0.41000
9297220;-0.40000
9299997;-0.40500
9302775;-0.42000
9305553;-0.42500
9308331;-0.42000
9311109;-0.41500
9313886;-0.40500
9316664;-0.40500
9319442;-0.42000
9322220;-0.41500
9324997;-0.41500
9327775;-0.40500
9330553;-0.40000
9333331;-0.40500
9336108;-0.41500
9338886;-0.42500
9341664;-0.41000
9344442;-0.39500
9347220;-0.38500
9349997;-0.39000
9352775;-0.40000
9355553;-0.40000
9358331;-0.40000
9361108;-0.39000
9363886;-0.38500
9366664;-0.40000
9369442;-0.41000
9372220;-0.40500
9374997;-0.40500
9377775;-0.39500
9380553;-0.38500
9383331;-0.38500
9386108;-0.40500
9388886;-0.40000
9391664;-0.39000
9394442;-0.38500
9397220;-0.37500
9399997;-0.38000
9402775;-0.38000
9405553;-0.38500
9408331;-0.38000
9411108;-0.36500
9413886;-0.37000
9416664;-0.39000
9419442;-0.37500
9422220;-0.39500
9424997;-0.38500
9427775;-0.37500
9430553;-0.36000
9433331;-0.36500
9436108;-0.36500
9438886;-0.39000
9441664;-0.38500
9444442;-0.36500
9447220;-0.37000
9449997;-0.36500
9452775;-0.38000
9455553;-0.39000
9458331;-0.38000
9461108;-0.38500
9463886;-0.38000
9466664;-0.39000
9469442;-0.38500
9472220;-0.38500
9474997;-0.39000
9477775;-0.37000
9480553;-0.37000
9483331;-0.37500
9486108;-0.38500
9488886;-0.40000
9491664;-0.39500
9494442;-0.38500
9497220;-0.35500
9499997;-0.37500
9502775;-0.38500
9505553;-0.39000
9508331;-0.38500
9511108;-0.36500
9513886;-0.35000
9516664;-0.36500
9519442;-0.35000
9522220;-0.37500
9524997;-0.35000
9527775;-0.35000
9530553;-0.34000
9533331;-0.33000
9536108;-0.33000
9538886;-0.33000
9541664;-0.32000
9544442;-0.30500
9547220;-0.30000
9549997;-0.29000
9552775;-0.29000
9555553;-0.29500
9558331;-0.29500
9561108;-0.29000
9563886;-0.27500
9566664;-0.27500
9569442;-0.28000
9572220;-0.28500
9574997;-0.28500
9577775;-0.27000
9580553;-0.26000
9583331;-0.26000
9586108;-0.26500
9588886;-0.27500
9591664;-0.28000
9594442;-0.25500
9597220;-0.24500
9599997;-0.25000
9602775;-0.26500
9605553;-0.26500
9608331;-0.26500
9611108;-0.26500
9613886;-0.24500
9616664;-0.26000
9619442;-0.27500
9622220;-0.29500
9624997;-0.29000
9627775;-0.27500
9630553;-0.27500
9633331;-0.27000
9636108;-0.27000
9638886;-0.27000
9641664;-0.28500
9644442;-0.28000
9647220;-0.25500
9649997;-0.26500
9652775;-0.27000
9655553;-0.28500
9658331;-0.28500
9661108;-0.28000
9663886;-0.28500
9666664;-0.29000
9669442;-0.31500
9672220;-0.32000
9674997;-0.30500
9677775;-0.30000
9680553;-0.29500
9683331;-0.31000
9686108;-0.31000
9688886;-0.31000
9691664;-0.31500
9694442;-0.30000
9697220;-0.29500
9699997;-0.29000
9702775;-0.30500
9705553;-0.31500
9708331;-0.31500
9711108;-0.30500
9713886;-0.30000
9716664;-0.29000
9719442;-0.31000
9722220;-0.30000
9724997;-0.30500
9727775;-0.30000
9730553;-0.29500
9733331;-0.31000
9736108;-0.31500
9738886;-0.32500
9741664;-0.31500
9744442;-0.31000
9747219;-0.31000
9749997;-0.31500
9752775;-0.31000
9755553;-0.32000
9758331;-0.31000
9761108;-0.30000
9763886;-0.29500
9766664;-0.30000
9769442;-0.31000
9772219;-0.32000
9774997;-0.31000
9777775;-0.29500
9780553;-0.28500
9783331;-0.28500
9786108;-0.30000
9788886;-0.29500
9791664;-0.30500
9794442;-0.28500
9797219;-0.28000
9799997;-0.27000
9802775;-0.26500
9805553;-0.26500
9808331;-0.27000
9811108;-0.25000
9813886;-0.24000
9816664;-0.25500
9819442;-0.24500
9822219;-0.24500
9824997;-0.22500
9827775;-0.21500
9830553;-0.20000
9833331;-0.19500
9836108;-0.19500
9838886;-0.18500
9841664;-0.18000
9844442;-0.15500
9847219;-0.15000
9849997;-0.17000
9852775;-0.18000
9855553;-0.21500
9858331;-0.21500
9861108;-0.19000
9863886;-0.18500
9866664;-0.16500
9869442;-0.17500
9872219;-0.18000
9874997;-0.15000
9877775;-0.14000
9880553;-0.17500
9883331;-0.21500
9886108;-0.23500
9888886;-0.26500
9891664;-0.27000
9894442;-0.27000
9897219;-0.28500
9899997;-0.29000
9902775;-0.31000
9905553;-0.31500
9908331;-0.31500
9911108;-0.30500
9913886;-0.30500
9916664;-0.32000
9919442;-0.32000
9922219;-0.34000
9924997;-0.34000
9927775;-0.32500
9930553;-0.32000
9933331;-0.33000
9936108;-0.33500
9938886;-0.34500
9941664;-0.36000
9944442;-0.35500
9947219;-0.34000
9949997;-0.34500
9952775;-0.36500
9955553;-0.36000
9958331;-0.37000
9961108;-0.36000
9963886;-0.36500
9966664;-0.40000
9969442;-0.45500
9972219;-0.48000
9974997;-0.47500
9977775;-0.47500
9980553;-0.47500
9983331;-0.53000
9986108;-0.58000
9988886;-0.56500
9991664;-0.48000
9994442;-0.32000
9997219;-0.12000
9999997;0.09000
10002775;0.36500
10005553;0.65000
10008331;0.90000
10011108;1.02500
10013886;0.94500
10016664;0.61500
10019442;0.13000
10022219;-0.30500
10024997;-0.49500
10027775;-0.48500
10030553;-0.39500
10033331;-0.34000
10036108;-0.36500
10038886;-0.37000
10041664;-0.36500
10044442;-0.35000
10047219;-0.34500
10049997;-0.35000
10052775;-0.37000
10055553;-0.39000
10058331;-0.36500
10061108;-0.37000
10063886;-0.36500
10066664;-0.37000
10069442;-0.37000
10072219;-0.38000
10074997;-0.38000
10077775;-0.37000
10080553;-0.36000
10083331;-0.36500
10086108;-0.37500
10088886;-0.38500
10091664;-0.38000
10094442;-0.36000
10097219;-0.36000
10099997;-0.37000
10102775;-0.37500
10105553;-0.38500
10108331;-0.38000
10111108;-0.38000
10113886;-0.37500
10116664;-0.37500
10119442;-0.38000
10122219;-0.38500
10124997;-0.38500
10127775;-0.38500
10130553;-0.36500
10133330;-0.36500
10136108;-0.36000
10138886;-0.37000
10141664;-0.36500
10144442;-0.36000
10147219;-0.36500
10149997;-0.36000
10152775;-0.37000
10155553;-0.38000
10158330;-0.37500
10161108;-0.37000
10163886;-0.36000
10166664;-0.36000
10169442;-0.36500
10172219;-0.39500
10174997;-0.38500
10177775;-0.37500
10180553;-0.36500
10183330;-0.36500
10186108;-0.37500
10188886;-0.39000
10191664;-0.38000
10194442;-0.37500
10197219;-0.35500
10199997;-0.36000
10202775;-0.36000
10205553;-0.38000
10208330;-0.37000
10211108;-0.36000
10213886;-0.34000
10216664;-0.34000
10219442;-0.34000
10222219;-0.35000
10224997;-0.36500
10227775;-0.35500
10230553;-0.35500
10233330;-0.34500
10236108;-0.35000
10238886;-0.37000
10241664;-0.37500
10244442;-0.38500
10247219;-0.38000
10249997;-0.38500
10252775;-0.39000
10255553;-0.39500
10258330;-0.38500
10261108;-0.37500
10263886;-0.36500
10266664;-0.37500
10269442;-0.39000
10272219;-0.40000
10274997;-0.38500
10277775;-0.38000
10280553;-0.35500
10283330;-0.34500
10286108;-0.33500
10288886;-0.35000
10291664;-0.33000
10294442;-0.31000
10297219;-0.31500
10299997;-0.31000
10302775;-0.33000
10305553;-0.33500
10308330;-0.32000
10311108;-0.30500
10313886;-0.27500
10316664;-0.29000
10319442;-0.29000
10322219;-0.29500
10324997;-0.30500
10327775;-0.28500
10330553;-0.27500
10333330;-0.29000
10336108;-0.31000
10338886;-0.31500
10341664;-0.30500
10344442;-0.30000
10347219;-0.28500
10349997;-0.28000
10352775;-0.28500
10355553;-0.29500
10358330;-0.30500
10361108;-0.30500
10363886;-0.29500
10366664;-0.32000
10369442;-0.32500
10372219;-0.33000
10374997;-0.32000
10377775;-0.31500
10380553;-0.31000
10383330;-0.31000
10386108;-0.31000
10388886;-0.31000
10391664;-0.31500
10394442;-0.32500
10397219;-0.32000
10399997;-0.31500
10402775;-0.31000
10405553;-0.34000
10408330;-0.32500
10411108;-0.33000
10413886;-0.31000
10416664;-0.31500
10419442;-0.32000
10422219;-0.34500
10424997;-0.34500
10427775;-0.33500
10430553;-0.33000
10433330;-0.33500
10436108;-0.35000
10438886;-0.36000
10441664;-0.35000
10444442;-0.35000
10447219;-0.35500
10449997;-0.36500
10452775;-0.37000
10455553;-0.38500
10458330;-0.35500
10461108;-0.34500
10463886;-0.34000
10466664;-0.35000
10469442;-0.35000
10472219;-0.36500
10474997;-0.36000
10477775;-0.35000
10480553;-0.34500
10483330;-0.35000
10486108;-0.35000
10488886;-0.37500
10491664;-0.38000
10494442;-0.38000
10497219;-0.36000
10499997;-0.36000
10502775;-0.36000
10505553;-0.37000
10508330;-0.36500
10511108;-0.37500
10513886;-0.37500
10516664;-0.37000
10519441;-0.38500
10522219;-0.39000
10524997;-0.38000
10527775;-0.36500
10530553;-0.35500
10533330;-0.36000
10536108;-0.38500
10538886;-0.39500
10541664;-0.39500
10544441;-0.38500
10547219;-0.37000
10549997;-0.36000
10552775;-0.35500
10555553;-0.35500
10558330;-0.35500
10561108;-0.36500
10563886;-0.36000
10566664;-0.38500
10569441;-0.38500
10572219;-0.38500
10574997;-0.38500
10577775;-0.37000
10580553;-0.36500
10583330;-0.37000
10586108;-0.38000
10588886;-0.39000
10591664;-0.37500
10594441;-0.35500
10597219;-0.32500
10599997;-0.32500
10602775;-0.32500
10605553;-0.33000
10608330;-0.33500
10611108;-0.33500
10613886;-0.31500
10616664;-0.30000
10619441;-0.30000
10622219;-0.32000
10624997;-0.31000
10627775;-0.30000
10630553;-0.28000
10633330;-0.28500
10636108;-0.29000
10638886;-0.29000
10641664;-0.28000
10644441;-0.25500
10647219;-0.25500
10649997;-0.26500
10652775;-0.29000
10655553;-0.30000
10658330;-0.28000
10661108;-0.26000
10663886;-0.25000
10666664;-0.27000
10669441;-0.28000
10672219;-0.29000
10674997;-0.28000
10677775;-0.28000
10680553;-0.28500
10683330;-0.30000
10686108;-0.32500
10688886;-0.35000
10691664;-0.37000
10694441;-0.38500
10697219;-0.39000
10699997;-0.39500
10702775;-0.39500
10705553;-0.40000
10708330;-0.39000
10711108;-0.39000
10713886;-0.39500
10716664;-0.39500
10719441;-0.39500
10722219;-0.41000
10724997;-0.42000
10727775;-0.40500
10730553;-0.40000
10733330;-0.41000
10736108;-0.42500
10738886;-0.42000
10741664;-0.41500
10744441;-0.42500
10747219;-0.43000
10749997;-0.43000
10752775;-0.42000
10755553;-0.44000
10758330;-0.43500
10761108;-0.41500
10763886;-0.40500
10766664;-0.41000
10769441;-0.46000
10772219;-0.49500
10774997;-0.52500
10777775;-0.53500
10780553;-0.55000
10783330;-0.59500
10786108;-0.62500
10788886;-0.56500
10791664;-0.42000
10794441;-0.26500
10797219;-0.07500
10799997;0.14000
10802775;0.41000
10805553;0.66500
10808330;0.87500
10811108;0.95500
