time_ms;ecg_value
0;-0.54000
2778;-0.56500
5556;-0.57000
8333;-0.58500
11111;-0.57500
13889;-0.55000
16667;-0.54500
19444;-0.56000
22222;-0.57500
25000;-0.58500
27778;-0.60500
30556;-0.60500
33333;-0.58000
36111;-0.58500
38889;-0.59000
41667;-0.61500
44444;-0.61500
47222;-0.60000
50000;-0.60000
52778;-0.60500
55556;-0.61500
58333;-0.61000
61111;-0.62000
63889;-0.62500
66667;-0.60000
69444;-0.59000
72222;-0.59500
75000;-0.60000
77778;-0.61500
80556;-0.58500
83333;-0.56500
86111;-0.58000
88889;-0.60000
91667;-0.57500
94444;-0.56500
97222;-0.55000
100000;-0.50500
102778;-0.51000
105556;-0.51000
108333;-0.51000
111111;-0.51500
113889;-0.49500
116667;-0.48000
119444;-0.47000
122222;-0.47000
125000;-0.47500
127778;-0.48000
130556;-0.47000
133333;-0.45500
136111;-0.45000
138889;-0.44000
141667;-0.44500
144444;-0.44000
147222;-0.43000
150000;-0.41000
152778;-0.41500
155556;-0.43500
158333;-0.46000
161111;-0.46500
163889;-0.46000
166667;-0.44500
169444;-0.45000
172222;-0.45000
175000;-0.46000
177778;-0.45500
180556;-0.45000
183333;-0.43000
186111;-0.44000
188889;-0.44500
191667;-0.45000
194444;-0.46500
197222;-0.46500
200000;-0.45500
202778;-0.46000
205555;-0.45000
208333;-0.45000
211111;-0.45500
213889;-0.46500
216667;-0.44500
219444;-0.46000
222222;-0.47000
225000;-0.46500
227778;-0.47500
230555;-0.47500
233333;-0.46000
236111;-0.45500
238889;-0.47000
241667;-0.49000
244444;-0.50500
247222;-0.49000
250000;-0.48500
252778;-0.48500
255555;-0.48000
258333;-0.49000
261111;-0.50500
263889;-0.49000
266667;-0.49500
269444;-0.48500
272222;-0.49500
275000;-0.50500
277778;-0.51000
280555;-0.49500
283333;-0.48500
286111;-0.48500
288889;-0.49500
291667;-0.49500
294444;-0.50000
297222;-0.48500
300000;-0.47500
302778;-0.47500
305555;-0.48000
308333;-0.48500
311111;-0.48500
313889;-0.47000
316667;-0.47000
319444;-0.46000
322222;-0.45000
325000;-0.45500
327778;-0.45500
330555;-0.43500
333333;-0.41000
336111;-0.40000
338889;-0.41500
341667;-0.40500
344444;-0.41500
347222;-0.39500
350000;-0.38500
352778;-0.37500
355555;-0.38000
358333;-0.39000
361111;-0.38000
363889;-0.38500
366667;-0.37000
369444;-0.37500
372222;-0.39000
375000;-0.39000
377778;-0.40000
380555;-0.37500
383333;-0.36500
386111;-0.35500
388889;-0.36000
391667;-0.36000
394444;-0.33500
397222;-0.31000
400000;-0.30000
402778;-0.35000
405555;-0.39000
408333;-0.42000
411111;-0.43500
413889;-0.44000
416667;-0.44500
419444;-0.46500
422222;-0.47500
425000;-0.49000
427778;-0.50500
430555;-0.49500
433333;-0.48000
436111;-0.48500
438889;-0.48500
441667;-0.48500
444444;-0.48500
447222;-0.47000
450000;-0.47500
452778;-0.48000
455555;-0.50000
458333;-0.50500
461111;-0.52000
463889;-0.51000
466667;-0.49500
469444;-0.50000
472222;-0.51000
475000;-0.51000
477778;-0.51500
480555;-0.50000
483333;-0.48500
486111;-0.48500
488889;-0.50000
491667;-0.50000
494444;-0.51000
497222;-0.50500
500000;-0.50000
502778;-0.50000
505555;-0.50000
508333;-0.51500
511111;-0.55000
513889;-0.57500
516667;-0.60500
519444;-0.62500
522222;-0.65000
525000;-0.69000
527778;-0.70500
530555;-0.63000
533333;-0.50000
536111;-0.31500
538889;-0.13500
541667;0.07000
544444;0.33000
547222;0.60500
550000;0.82000
552778;0.92500
555555;0.94000
558333;0.79500
561111;0.43000
563889;-0.01500
566667;-0.38000
569444;-0.59000
572222;-0.64000
575000;-0.60000
577778;-0.55500
580555;-0.52000
583333;-0.50500
586111;-0.51000
588889;-0.53500
591667;-0.53500
594444;-0.53500
597222;-0.53000
600000;-0.52000
602778;-0.52000
605555;-0.53000
608333;-0.54000
611111;-0.54000
613889;-0.53500
616666;-0.53500
619444;-0.53000
622222;-0.53500
625000;-0.53500
627778;-0.53500
630555;-0.54000
633333;-0.53000
636111;-0.52000
638889;-0.53000
641666;-0.54500
644444;-0.56500
647222;-0.53500
650000;-0.52000
652778;-0.52500
655555;-0.53500
658333;-0.54500
661111;-0.54500
663889;-0.54000
666666;-0.53000
669444;-0.52500
672222;-0.52500
675000;-0.53000
677778;-0.54000
680555;-0.53500
683333;-0.53000
686111;-0.52000
688889;-0.52000
691666;-0.53000
694444;-0.52000
697222;-0.52500
700000;-0.51000
702778;-0.52500
705555;-0.52500
708333;-0.53500
711111;-0.53000
713889;-0.51500
716666;-0.52000
719444;-0.52500
722222;-0.53500
725000;-0.53500
727778;-0.55000
730555;-0.53000
733333;-0.52500
736111;-0.53000
738889;-0.53500
741666;-0.54000
744444;-0.55000
747222;-0.52500
750000;-0.52000
752778;-0.53500
755555;-0.53500
758333;-0.54500
761111;-0.55000
763889;-0.53000
766666;-0.52000
769444;-0.52000
772222;-0.52500
775000;-0.53500
777778;-0.54000
780555;-0.53000
783333;-0.52500
786111;-0.53500
788889;-0.54500
791666;-0.56000
794444;-0.56000
797222;-0.54500
800000;-0.54000
802778;-0.55500
805555;-0.55000
808333;-0.56500
811111;-0.55500
813889;-0.56000
816666;-0.55500
819444;-0.54500
822222;-0.55500
825000;-0.55500
827778;-0.55000
830555;-0.52500
833333;-0.53000
836111;-0.52000
838889;-0.52000
841666;-0.52000
844444;-0.50500
847222;-0.49500
850000;-0.47500
852778;-0.47000
855555;-0.46000
858333;-0.46000
861111;-0.45500
863889;-0.44000
866666;-0.43000
869444;-0.43000
872222;-0.42500
875000;-0.43000
877778;-0.44000
880555;-0.41000
883333;-0.40500
886111;-0.41000
888889;-0.40500
891666;-0.40500
894444;-0.40000
897222;-0.39500
900000;-0.38000
902778;-0.40000
905555;-0.40500
908333;-0.40500
911111;-0.40000
913889;-0.40000
916666;-0.38000
919444;-0.39000
922222;-0.38000
925000;-0.39500
927778;-0.39000
930555;-0.38500
933333;-0.38500
936111;-0.37500
938889;-0.39500
941666;-0.40000
944444;-0.40000
947222;-0.39500
950000;-0.38500
952778;-0.39000
955555;-0.40000
958333;-0.41000
961111;-0.42000
963889;-0.40000
966666;-0.39000
969444;-0.39000
972222;-0.41000
975000;-0.42000
977778;-0.42000
980555;-0.41500
983333;-0.40500
986111;-0.40500
988889;-0.41500
991666;-0.42500
994444;-0.43500
997222;-0.41000
1000000;-0.40500
1002777;-0.40500
1005555;-0.43000
1008333;-0.43000
1011111;-0.42500
1013889;-0.40500
1016666;-0.40000
1019444;-0.42000
1022222;-0.43000
1025000;-0.44500
1027777;-0.45500
1030555;-0.44000
1033333;-0.42000
1036111;-0.41500
1038889;-0.41000
1041666;-0.41000
1044444;-0.41500
1047222;-0.38500
1050000;-0.38000
1052777;-0.37500
1055555;-0.37000
1058333;-0.37000
1061111;-0.36500
1063889;-0.35000
1066666;-0.34000
1069444;-0.32500
1072222;-0.34000
1075000;-0.35500
1077777;-0.35500
1080555;-0.32500
1083333;-0.32000
1086111;-0.33000
1088889;-0.33500
1091666;-0.35000
1094444;-0.36500
1097222;-0.32500
1100000;-0.31500
1102777;-0.32000
1105555;-0.33000
1108333;-0.31500
1111111;-0.29000
1113889;-0.28000
1116666;-0.31000
1119444;-0.35000
1122222;-0.37500
1125000;-0.39500
1127777;-0.40500
1130555;-0.40000
1133333;-0.40000
1136111;-0.41500
1138889;-0.42000
1141666;-0.43000
1144444;-0.45000
1147222;-0.44500
1150000;-0.45000
1152777;-0.45500
1155555;-0.47500
1158333;-0.47000
1161111;-0.48500
1163889;-0.47500
1166666;-0.46000
1169444;-0.45000
1172222;-0.47500
1175000;-0.47500
1177777;-0.48500
1180555;-0.48000
1183333;-0.46500
1186111;-0.47500
1188889;-0.47000
1191666;-0.48500
1194444;-0.48500
1197222;-0.49500
1200000;-0.47500
1202777;-0.47000
1205555;-0.47500
1208333;-0.48000
1211111;-0.49500
1213889;-0.49500
1216666;-0.49000
1219444;-0.50500
1222222;-0.55500
1225000;-0.61000
1227777;-0.62000
1230555;-0.64000
1233333;-0.66000
1236111;-0.65000
1238889;-0.57500
1241666;-0.43000
1244444;-0.24000
1247222;-0.03000
1250000;0.20000
1252777;0.47500
1255555;0.74500
1258333;0.92000
1261111;1.04000
1263889;1.04500
1266666;0.88500
1269444;0.49000
1272222;-0.01500
1275000;-0.42500
1277777;-0.59500
1280555;-0.58500
1283333;-0.51500
1286111;-0.47500
1288889;-0.47500
1291666;-0.48000
1294444;-0.49500
1297222;-0.49500
1300000;-0.48500
1302777;-0.49000
1305555;-0.50000
1308333;-0.51000
1311111;-0.51000
1313889;-0.50500
1316666;-0.50000
1319444;-0.49500
1322222;-0.50000
1325000;-0.51000
1327777;-0.50500
1330555;-0.49000
1333333;-0.48000
1336111;-0.49000
1338889;-0.50000
1341666;-0.50000
1344444;-0.50000
1347222;-0.49000
1350000;-0.49000
1352777;-0.49500
1355555;-0.50000
1358333;-0.50500
1361111;-0.52500
1363889;-0.51000
1366666;-0.49000
1369444;-0.48000
1372222;-0.49500
1375000;-0.51000
1377777;-0.51000
1380555;-0.50500
1383333;-0.49500
1386111;-0.50000
1388888;-0.49500
1391666;-0.51000
1394444;-0.51000
1397222;-0.49500
1400000;-0.49000
1402777;-0.49000
1405555;-0.49500
1408333;-0.50000
1411111;-0.50000
1413888;-0.50000
1416666;-0.48500
1419444;-0.48000
1422222;-0.49000
1425000;-0.50000
1427777;-0.51000
1430555;-0.50000
1433333;-0.48500
1436111;-0.49500
1438888;-0.49500
1441666;-0.49000
1444444;-0.51500
1447222;-0.50500
1450000;-0.48000
1452777;-0.47500
1455555;-0.49000
1458333;-0.49500
1461111;-0.50000
1463888;-0.48500
1466666;-0.47500
1469444;-0.48000
1472222;-0.48500
1475000;-0.48500
1477777;-0.49000
1480555;-0.48000
1483333;-0.46500
1486111;-0.47000
1488888;-0.47000
1491666;-0.48000
1494444;-0.49500
1497222;-0.49500
1500000;-0.48500
1502777;-0.47500
1505555;-0.48000
1508333;-0.48500
1511111;-0.50500
1513888;-0.49500
1516666;-0.48000
1519444;-0.48500
1522222;-0.48500
1525000;-0.49000
1527777;-0.49500
1530555;-0.47500
1533333;-0.47000
1536111;-0.46500
1538888;-0.46000
1541666;-0.46500
1544444;-0.46500
1547222;-0.44500
1550000;-0.43000
1552777;-0.42000
1555555;-0.44500
1558333;-0.44000
1561111;-0.43000
1563888;-0.41500
1566666;-0.39000
1569444;-0.39500
1572222;-0.40000
1575000;-0.40000
1577777;-0.40000
1580555;-0.38000
1583333;-0.37500
1586111;-0.37000
1588888;-0.37500
1591666;-0.37500
1594444;-0.37000
1597222;-0.37000
1600000;-0.35500
1602777;-0.35000
1605555;-0.35500
1608333;-0.37500
1611111;-0.37000
1613888;-0.36500
1616666;-0.35000
1619444;-0.36000
1622222;-0.36500
1625000;-0.37000
1627777;-0.37000
1630555;-0.36000
1633333;-0.34000
1636111;-0.35000
1638888;-0.33500
1641666;-0.35500
1644444;-0.37000
1647222;-0.35500
1650000;-0.35000
1652777;-0.36000
1655555;-0.37500
1658333;-0.37000
1661111;-0.37500
1663888;-0.36500
1666666;-0.36000
1669444;-0.37000
1672222;-0.37500
1675000;-0.38000
1677777;-0.39000
1680555;-0.37000
1683333;-0.36500
1686111;-0.36500
1688888;-0.38500
1691666;-0.38500
1694444;-0.40000
1697222;-0.38000
1700000;-0.37000
1702777;-0.36000
1705555;-0.36000
1708333;-0.37500
1711111;-0.38500
1713888;-0.38000
1716666;-0.38000
1719444;-0.39000
1722222;-0.39500
1725000;-0.40500
1727777;-0.40500
1730555;-0.39000
1733333;-0.37000
1736111;-0.38000
1738888;-0.39000
1741666;-0.39500
1744444;-0.39500
1747222;-0.36500
1750000;-0.34500
1752777;-0.34500
1755555;-0.33000
1758333;-0.34500
1761111;-0.33500
1763888;-0.31500
1766666;-0.29500
1769444;-0.30000
1772222;-0.30500
1775000;-0.30500
1777777;-0.29500
1780555;-0.29000
1783333;-0.29000
1786111;-0.27000
1788888;-0.27000
1791666;-0.27500
1794444;-0.28000
1797222;-0.26500
1799999;-0.28000
1802777;-0.28500
1805555;-0.29000
1808333;-0.29000
1811111;-0.28000
1813888;-0.27500
1816666;-0.26500
1819444;-0.27000
1822222;-0.26500
1824999;-0.26500
1827777;-0.24500
1830555;-0.22500
1833333;-0.22000
1836111;-0.26000
1838888;-0.29500
1841666;-0.34000
1844444;-0.34000
1847222;-0.34000
1849999;-0.34500
1852777;-0.36000
1855555;-0.38000
1858333;-0.40500
1861111;-0.39500
1863888;-0.40500
1866666;-0.38500
1869444;-0.39500
1872222;-0.39500
1874999;-0.40500
1877777;-0.41500
1880555;-0.41500
1883333;-0.41000
1886111;-0.40500
1888888;-0.42000
1891666;-0.42500
1894444;-0.40500
1897222;-0.42000
1899999;-0.39000
1902777;-0.39000
1905555;-0.40500
1908333;-0.40000
1911111;-0.41500
1913888;-0.38500
1916666;-0.36500
1919444;-0.38000
1922222;-0.40000
1924999;-0.41000
1927777;-0.41000
1930555;-0.44000
1933333;-0.46000
1936111;-0.50000
1938888;-0.53500
1941666;-0.54500
1944444;-0.59000
1947222;-0.60500
1949999;-0.54500
1952777;-0.42000
1955555;-0.25500
1958333;-0.09000
1961111;0.12500
1963888;0.40000
1966666;0.69500
1969444;0.91500
1972222;1.01000
1974999;0.95000
1977777;0.69500
1980555;0.31000
1983333;-0.11500
1986111;-0.43000
1988888;-0.53000
1991666;-0.51000
1994444;-0.45000
1997222;-0.39500
1999999;-0.39000
2002777;-0.38500
2005555;-0.41000
2008333;-0.42000
2011111;-0.42000
2013888;-0.41000
2016666;-0.41000
2019444;-0.41000
2022222;-0.42000
2024999;-0.42500
2027777;-0.42000
2030555;-0.41500
2033333;-0.40000
2036111;-0.40500
2038888;-0.41500
2041666;-0.41500
2044444;-0.42000
2047222;-0.41500
2049999;-0.40500
2052777;-0.40500
2055555;-0.40500
2058333;-0.41500
2061111;-0.41000
2063888;-0.40500
2066666;-0.39000
2069444;-0.39500
2072222;-0.39000
2074999;-0.40000
2077777;-0.40500
2080555;-0.39000
2083333;-0.37000
2086111;-0.38000
2088888;-0.40500
2091666;-0.40500
2094444;-0.42000
2097222;-0.40500
2099999;-0.39500
2102777;-0.39000
2105555;-0.40000
2108333;-0.41000
2111111;-0.41500
2113888;-0.40500
2116666;-0.40000
2119444;-0.39000
2122222;-0.40500
2124999;-0.39500
2127777;-0.41000
2130555;-0.39500
2133333;-0.39000
2136111;-0.39000
2138888;-0.37500
2141666;-0.38500
2144444;-0.39000
2147222;-0.38000
2149999;-0.37500
2152777;-0.37500
2155555;-0.38500
2158333;-0.39500
2161111;-0.40500
2163888;-0.39500
2166666;-0.37500
2169444;-0.39000
2172222;-0.39500
2174999;-0.38500
2177777;-0.39000
2180555;-0.38500
2183333;-0.37500
2186110;-0.38000
2188888;-0.39000
2191666;-0.40000
2194444;-0.41500
2197222;-0.39500
2199999;-0.39000
2202777;-0.39000
2205555;-0.39000
2208333;-0.39000
2211110;-0.39500
2213888;-0.39000
2216666;-0.37000
2219444;-0.38500
2222222;-0.39000
2224999;-0.40500
2227777;-0.41000
2230555;-0.39500
2233333;-0.38000
2236110;-0.38000
2238888;-0.38500
2241666;-0.39000
2244444;-0.39500
2247222;-0.38500
2249999;-0.38500
2252777;-0.38000
2255555;-0.38000
2258333;-0.38500
2261110;-0.37000
2263888;-0.35500
2266666;-0.34500
2269444;-0.34000
2272222;-0.35000
2274999;-0.34500
2277777;-0.33500
2280555;-0.32500
2283333;-0.30000
2286110;-0.31000
2288888;-0.31500
2291666;-0.31000
2294444;-0.32000
2297222;-0.31000
2299999;-0.30500
2302777;-0.30000
2305555;-0.31000
2308333;-0.32000
2311110;-0.32000
2313888;-0.30500
2316666;-0.29000
2319444;-0.29500
2322222;-0.31000
2324999;-0.32000
2327777;-0.33000
2330555;-0.32000
2333333;-0.31000
2336110;-0.29500
2338888;-0.30500
2341666;-0.31500
2344444;-0.32500
2347222;-0.32000
2349999;-0.30000
2352777;-0.30000
2355555;-0.31500
2358333;-0.33000
2361110;-0.31000
2363888;-0.31000
2366666;-0.29500
2369444;-0.30000
2372222;-0.31500
2374999;-0.32000
2377777;-0.32000
2380555;-0.31500
2383333;-0.31000
2386110;-0.32000
2388888;-0.33500
2391666;-0.35500
2394444;-0.34500
2397222;-0.34500
2399999;-0.34000
2402777;-0.34000
2405555;-0.34000
2408333;-0.33000
2411110;-0.34000
2413888;-0.33000
2416666;-0.33000
2419444;-0.34000
2422222;-0.34500
2424999;-0.35000
2427777;-0.35500
2430555;-0.36000
2433333;-0.36000
2436110;-0.35500
2438888;-0.36500
2441666;-0.36500
2444444;-0.37500
2447222;-0.38000
2449999;-0.36000
2452777;-0.36500
2455555;-0.36000
2458333;-0.35500
2461110;-0.34500
2463888;-0.33000
2466666;-0.31500
2469444;-0.31000
2472222;-0.31500
2474999;-0.30500
2477777;-0.30000
2480555;-0.29000
2483333;-0.29000
2486110;-0.30500
2488888;-0.29500
2491666;-0.30000
2494444;-0.29000
2497222;-0.26500
2499999;-0.25500
2502777;-0.24500
2505555;-0.26000
2508333;-0.26500
2511110;-0.27000
2513888;-0.26500
2516666;-0.26000
2519444;-0.25500
2522222;-0.27000
2524999;-0.26500
2527777;-0.26500
2530555;-0.24000
2533333;-0.21500
2536110;-0.21500
2538888;-0.23500
2541666;-0.29000
2544444;-0.34000
2547222;-0.34000
2549999;-0.31500
2552777;-0.34000
2555555;-0.35500
2558333;-0.38000
2561110;-0.40000
2563888;-0.40500
2566666;-0.38500
2569444;-0.38500
2572222;-0.39000
2574999;-0.39500
2577777;-0.42000
2580555;-0.41000
2583333;-0.40500
2586110;-0.41000
2588888;-0.42500
2591666;-0.44000
2594444;-0.43000
2597221;-0.42500
2599999;-0.41500
2602777;-0.40500
2605555;-0.42000
2608333;-0.41500
2611110;-0.40500
2613888;-0.38500
2616666;-0.39000
2619444;-0.40000
2622221;-0.39500
2624999;-0.41000
2627777;-0.42000
2630555;-0.41500
2633333;-0.42000
2636110;-0.47000
2638888;-0.51000
2641666;-0.54000
2644444;-0.56000
2647221;-0.59000
2649999;-0.62000
2652777;-0.61500
2655555;-0.52000
2658333;-0.37500
2661110;-0.20000
2663888;0.02500
2666666;0.31000
2669444;0.60500
2672221;0.81000
2674999;0.90000
2677777;0.78500
2680555;0.47000
2683333;0.01500
2686110;-0.36500
2688888;-0.56500
2691666;-0.58000
2694444;-0.51000
2697221;-0.45000
2699999;-0.41000
2702777;-0.43000
2705555;-0.45500
2708333;-0.48000
2711110;-0.47500
2713888;-0.46000
2716666;-0.45000
2719444;-0.47000
2722221;-0.47000
2724999;-0.46500
2727777;-0.46000
2730555;-0.45000
2733333;-0.44500
2736110;-0.44000
2738888;-0.44500
2741666;-0.44500
2744444;-0.45000
2747221;-0.45000
2749999;-0.44000
2752777;-0.45500
2755555;-0.46000
2758333;-0.48500
2761110;-0.50000
2763888;-0.47500
2766666;-0.45500
2769444;-0.45000
2772221;-0.47000
2774999;-0.49000
2777777;-0.48500
2780555;-0.47000
2783333;-0.46000
2786110;-0.46000
2788888;-0.47500
2791666;-0.47500
2794444;-0.47500
2797221;-0.46500
2799999;-0.46000
2802777;-0.46000
2805555;-0.46000
2808333;-0.47500
2811110;-0.48500
2813888;-0.48500
2816666;-0.46500
2819444;-0.46000
2822221;-0.46000
2824999;-0.46000
2827777;-0.48500
2830555;-0.49000
2833333;-0.48500
2836110;-0.47000
2838888;-0.44000
2841666;-0.45500
2844444;-0.46000
2847221;-0.43500
2849999;-0.44500
2852777;-0.46500
2855555;-0.48000
2858333;-0.48000
2861110;-0.48000
2863888;-0.47000
2866666;-0.45500
2869444;-0.45500
2872221;-0.46500
2874999;-0.49000
2877777;-0.50500
2880555;-0.51000
2883333;-0.50500
2886110;-0.51000
2888888;-0.49500
2891666;-0.49000
2894444;-0.49000
2897221;-0.50000
2899999;-0.48000
2902777;-0.50000
2905555;-0.51500
2908333;-0.53000
2911110;-0.53000
2913888;-0.51500
2916666;-0.51000
2919444;-0.52500
2922221;-0.52500
2924999;-0.52000
2927777;-0.53000
2930555;-0.51000
2933333;-0.50500
2936110;-0.49500
2938888;-0.49500
2941666;-0.51000
2944444;-0.50500
2947221;-0.47000
2949999;-0.43000
2952777;-0.42000
2955555;-0.40000
2958333;-0.40500
2961110;-0.41000
2963888;-0.40000
2966666;-0.40000
2969444;-0.40000
2972221;-0.40500
2974999;-0.40000
2977777;-0.39500
2980555;-0.36500
2983332;-0.35000
2986110;-0.35000
2988888;-0.36500
2991666;-0.38500
2994444;-0.40000
2997221;-0.38500
2999999;-0.37000
3002777;-0.36000
3005555;-0.38000
3008332;-0.39000
3011110;-0.39000
3013888;-0.36500
3016666;-0.35000
3019444;-0.36000
3022221;-0.36500
3024999;-0.37500
3027777;-0.37000
3030555;-0.37000
3033332;-0.37000
3036110;-0.36500
3038888;-0.37000
3041666;-0.38500
3044444;-0.38500
3047221;-0.37500
3049999;-0.36500
3052777;-0.36500
3055555;-0.38500
3058332;-0.41000
3061110;-0.43000
3063888;-0.41000
3066666;-0.38500
3069444;-0.38000
3072221;-0.38000
3074999;-0.39500
3077777;-0.39500
3080555;-0.39500
3083332;-0.39000
3086110;-0.40500
3088888;-0.41500
3091666;-0.43000
3094444;-0.43000
3097221;-0.40500
3099999;-0.38500
3102777;-0.37000
3105555;-0.39000
3108332;-0.41000
3111110;-0.44000
3113888;-0.42500
3116666;-0.41500
3119444;-0.40500
3122221;-0.41000
3124999;-0.41000
3127777;-0.42000
3130555;-0.41000
3133332;-0.41000
3136110;-0.42000
3138888;-0.41500
3141666;-0.42000
3144444;-0.40500
3147221;-0.39000
3149999;-0.39000
3152777;-0.39500
3155555;-0.37000
3158332;-0.36000
3161110;-0.35500
3163888;-0.34000
3166666;-0.34000
3169444;-0.33000
3172221;-0.34500
3174999;-0.35000
3177777;-0.34500
3180555;-0.31000
3183332;-0.29500
3186110;-0.30000
3188888;-0.28500
3191666;-0.29500
3194444;-0.31000
3197221;-0.30500
3199999;-0.29500
3202777;-0.28500
3205555;-0.28500
3208332;-0.29000
3211110;-0.28500
3213888;-0.28000
3216666;-0.26000
3219444;-0.25000
3222221;-0.26500
3224999;-0.30500
3227777;-0.35000
3230555;-0.37000
3233332;-0.37500
3236110;-0.38500
3238888;-0.39500
3241666;-0.42000
3244444;-0.43000
3247221;-0.43000
3249999;-0.42000
3252777;-0.42500
3255555;-0.44000
3258332;-0.43500
3261110;-0.44500
3263888;-0.44000
3266666;-0.43500
3269444;-0.44000
3272221;-0.45000
3274999;-0.45500
3277777;-0.44500
3280555;-0.43500
3283332;-0.42000
3286110;-0.43000
3288888;-0.43000
3291666;-0.43000
3294444;-0.44500
3297221;-0.43000
3299999;-0.43000
3302777;-0.42500
3305555;-0.43000
3308332;-0.44500
3311110;-0.44500
3313888;-0.43500
3316666;-0.45000
3319444;-0.46500
3322221;-0.51000
3324999;-0.54000
3327777;-0.55500
3330555;-0.55500
3333332;-0.58000
3336110;-0.60000
3338888;-0.56500
3341666;-0.44500
3344444;-0.27000
3347221;-0.04500
3349999;0.18500
3352777;0.44000
3355555;0.69000
3358332;0.89000
3361110;0.96500
3363888;0.88500
3366666;0.58000
3369444;0.07500
3372221;-0.36000
3374999;-0.57000
3377777;-0.58500
3380555;-0.52500
3383332;-0.46500
3386110;-0.45000
3388888;-0.46000
3391666;-0.47000
3394443;-0.47000
3397221;-0.45000
3399999;-0.44000
3402777;-0.45500
3405555;-0.47000
3408332;-0.47500
3411110;-0.48000
3413888;-0.48000
3416666;-0.46500
3419443;-0.45000
3422221;-0.46000
3424999;-0.47000
3427777;-0.47000
3430555;-0.45500
3433332;-0.44500
3436110;-0.45500
3438888;-0.46500
3441666;-0.46500
3444443;-0.47000
3447221;-0.46000
3449999;-0.46000
3452777;-0.44500
3455555;-0.46000
3458332;-0.47000
3461110;-0.47500
3463888;-0.46500
3466666;-0.45500
3469443;-0.46000
3472221;-0.46000
3474999;-0.47000
3477777;-0.47000
3480555;-0.46000
3483332;-0.44500
3486110;-0.45000
3488888;-0.45500
3491666;-0.45000
3494443;-0.47000
3497221;-0.46000
3499999;-0.43500
3502777;-0.44500
3505555;-0.45000
3508332;-0.45000
3511110;-0.45500
3513888;-0.44000
3516666;-0.43000
3519443;-0.43000
3522221;-0.46000
3524999;-0.44000
3527777;-0.46000
3530555;-0.44500
3533332;-0.43000
3536110;-0.44000
3538888;-0.45500
3541666;-0.46000
3544443;-0.47000
3547221;-0.46000
3549999;-0.45500
3552777;-0.45500
3555555;-0.46500
3558332;-0.46500
3561110;-0.48000
3563888;-0.46000
3566666;-0.45500
3569443;-0.46500
3572221;-0.47000
3574999;-0.48000
3577777;-0.47000
3580555;-0.47500
3583332;-0.46500
3586110;-0.47000
3588888;-0.49000
3591666;-0.49000
3594443;-0.49500
3597221;-0.49000
3599999;-0.48500
3602777;-0.48500
3605555;-0.49000
3608332;-0.50000
3611110;-0.49000
3613888;-0.48000
3616666;-0.46000
3619443;-0.45500
3622221;-0.45500
3624999;-0.45500
3627777;-0.44500
3630555;-0.41500
3633332;-0.39000
3636110;-0.37500
3638888;-0.38000
3641666;-0.37000
3644443;-0.36000
3647221;-0.33500
3649999;-0.32500
3652777;-0.31000
3655555;-0.33000
3658332;-0.32500
3661110;-0.33000
3663888;-0.32000
3666666;-0.29500
3669443;-0.29500
3672221;-0.30500
3674999;-0.32000
3677777;-0.32000
3680555;-0.30500
3683332;-0.30500
3686110;-0.31000
3688888;-0.31500
3691666;-0.32500
3694443;-0.32500
3697221;-0.31500
3699999;-0.30500
3702777;-0.31000
3705555;-0.31000
3708332;-0.31500
3711110;-0.32500
3713888;-0.31500
3716666;-0.30500
3719443;-0.30500
3722221;-0.31500
3724999;-0.33000
3727777;-0.33000
3730555;-0.32000
3733332;-0.30500
3736110;-0.30500
3738888;-0.32000
3741666;-0.32000
3744443;-0.32500
3747221;-0.32500
3749999;-0.31000
3752777;-0.31500
3755555;-0.33000
3758332;-0.34500
3761110;-0.35000
3763888;-0.34500
3766666;-0.33500
3769443;-0.34000
3772221;-0.34000
3774999;-0.35500
3777777;-0.36000
3780554;-0.35500
3783332;-0.33000
3786110;-0.34000
3788888;-0.34500
3791666;-0.35500
3794443;-0.35500
3797221;-0.33500
3799999;-0.31500
3802777;-0.31000
3805554;-0.30500
3808332;-0.30500
3811110;-0.29000
3813888;-0.27500
3816666;-0.25500
3819443;-0.25500
3822221;-0.26000
3824999;-0.26000
3827777;-0.24000
3830554;-0.23500
3833332;-0.22500
3836110;-0.22000
3838888;-0.23000
3841666;-0.23000
3844443;-0.24000
3847221;-0.24000
3849999;-0.24000
3852777;-0.24500
3855554;-0.24000
3858332;-0.25000
3861110;-0.25000
3863888;-0.25000
3866666;-0.22500
3869443;-0.21500
3872221;-0.21000
3874999;-0.20000
3877777;-0.18000
3880554;-0.17500
3883332;-0.19000
3886110;-0.22000
3888888;-0.26000
3891666;-0.29500
3894443;-0.28500
3897221;-0.29000
3899999;-0.29500
3902777;-0.32000
3905554;-0.35000
3908332;-0.36000
3911110;-0.38000
3913888;-0.37500
3916666;-0.36000
3919443;-0.36000
3922221;-0.37000
3924999;-0.38000
3927777;-0.38000
3930554;-0.37000
3933332;-0.37000
3936110;-0.37500
3938888;-0.37500
3941666;-0.37500
3944443;-0.39000
3947221;-0.38000
3949999;-0.38500
3952777;-0.37000
3955554;-0.37500
3958332;-0.37000
3961110;-0.37500
3963888;-0.36000
3966666;-0.37000
3969443;-0.38000
3972221;-0.41000
3974999;-0.44500
3977777;-0.49000
3980554;-0.51000
3983332;-0.52000
3986110;-0.56000
3988888;-0.58000
3991666;-0.52000
3994443;-0.36500
3997221;-0.16500
3999999;0.04500
4002777;0.27000
4005554;0.54500
4008332;0.81000
4011110;0.99000
4013888;1.05000
4016666;0.93000
4019443;0.54500
4022221;0.04500
4024999;-0.37000
4027777;-0.54000
4030554;-0.50000
4033332;-0.40500
4036110;-0.37000
4038888;-0.35500
4041666;-0.37000
4044443;-0.38500
4047221;-0.38500
4049999;-0.36500
4052777;-0.37000
4055554;-0.38000
4058332;-0.39500
4061110;-0.40000
4063888;-0.38500
4066666;-0.38000
4069443;-0.38000
4072221;-0.39500
4074999;-0.39500
4077777;-0.41000
4080554;-0.40500
4083332;-0.39500
4086110;-0.39500
4088888;-0.39500
4091666;-0.41000
4094443;-0.42500
4097221;-0.40000
4099999;-0.39000
4102777;-0.40000
4105554;-0.40000
4108332;-0.40000
4111110;-0.40000
4113888;-0.40000
4116666;-0.37500
4119443;-0.37500
4122221;-0.38000
4124999;-0.39000
4127777;-0.40000
4130554;-0.38500
4133332;-0.37500
4136110;-0.36500
4138888;-0.38000
4141666;-0.39000
4144443;-0.39000
4147221;-0.39000
4149999;-0.38000
4152777;-0.37500
4155554;-0.38500
4158332;-0.39000
4161110;-0.38500
4163888;-0.38500
4166666;-0.39000
4169443;-0.38500
4172221;-0.38000
4174999;-0.39500
4177777;-0.38500
4180554;-0.37000
4183332;-0.37000
4186110;-0.36500
4188888;-0.35500
4191665;-0.38000
4194443;-0.37500
4197221;-0.37000
4199999;-0.37000
4202777;-0.37000
4205554;-0.37500
4208332;-0.37500
4211110;-0.38500
4213888;-0.37000
4216665;-0.36000
4219443;-0.36500
4222221;-0.38000
4224999;-0.39500
4227777;-0.39000
4230554;-0.37500
4233332;-0.38000
4236110;-0.37000
4238888;-0.38000
4241665;-0.39500
4244443;-0.39500
4247221;-0.39000
4249999;-0.38000
4252777;-0.38500
4255554;-0.37500
4258332;-0.38000
4261110;-0.38500
4263888;-0.37000
4266665;-0.36500
4269443;-0.37000
4272221;-0.35500
4274999;-0.36000
4277777;-0.36500
4280554;-0.35000
4283332;-0.33500
4286110;-0.33500
4288888;-0.34000
4291665;-0.34500
4294443;-0.33500
4297221;-0.32500
4299999;-0.30500
4302777;-0.30500
4305554;-0.30500
4308332;-0.30500
4311110;-0.30000
4313888;-0.29500
4316665;-0.27500
4319443;-0.28500
4322221;-0.29000
4324999;-0.28000
4327777;-0.28500
4330554;-0.30000
4333332;-0.27500
4336110;-0.27500
4338888;-0.28000
4341665;-0.29000
4344443;-0.28500
4347221;-0.28500
4349999;-0.27000
4352777;-0.27500
4355554;-0.27500
4358332;-0.29000
4361110;-0.29000
4363888;-0.28000
4366665;-0.28000
4369443;-0.27500
4372221;-0.28000
4374999;-0.28000
4377777;-0.28500
4380554;-0.29000
4383332;-0.28000
4386110;-0.29000
4388888;-0.30000
4391665;-0.29500
4394443;-0.30000
4397221;-0.29000
4399999;-0.29000
4402777;-0.29000
4405554;-0.30000
4408332;-0.30000
4411110;-0.30500
4413888;-0.30000
4416665;-0.29000
4419443;-0.30500
4422221;-0.30500
4424999;-0.30500
4427777;-0.31000
4430554;-0.31000
4433332;-0.30000
4436110;-0.30500
4438888;-0.31000
4441665;-0.31500
4444443;-0.32000
4447221;-0.31000
4449999;-0.30500
4452777;-0.30500
4455554;-0.31000
4458332;-0.33500
4461110;-0.33500
4463888;-0.32500
4466665;-0.32500
4469443;-0.32500
4472221;-0.33000
4474999;-0.33500
4477777;-0.34000
4480554;-0.31500
4483332;-0.30500
4486110;-0.29500
4488888;-0.30000
4491665;-0.28500
4494443;-0.28500
4497221;-0.26500
4499999;-0.25000
4502777;-0.25000
4505554;-0.24500
4508332;-0.24500
4511110;-0.24000
4513888;-0.22000
4516665;-0.21000
4519443;-0.19500
4522221;-0.19500
4524999;-0.21000
4527777;-0.21000
4530554;-0.20000
4533332;-0.20000
4536110;-0.21000
4538888;-0.22500
4541665;-0.23000
4544443;-0.22500
4547221;-0.22500
4549999;-0.22000
4552777;-0.20500
4555554;-0.18500
4558332;-0.18500
4561110;-0.19000
4563888;-0.21500
4566665;-0.23000
4569443;-0.26500
4572221;-0.26500
4574999;-0.28000
4577776;-0.29500
4580554;-0.28500
4583332;-0.29000
4586110;-0.30500
4588888;-0.32000
4591665;-0.34000
4594443;-0.34500
4597221;-0.35000
4599999;-0.35000
4602776;-0.34000
4605554;-0.33500
4608332;-0.34500
4611110;-0.36500
4613888;-0.36000
4616665;-0.34000
4619443;-0.35000
4622221;-0.35000
4624999;-0.36500
4627776;-0.37000
4630554;-0.36500
4633332;-0.36000
4636110;-0.36000
4638888;-0.36000
4641665;-0.38500
4644443;-0.39000
4647221;-0.36000
4649999;-0.36500
4652776;-0.36500
4655554;-0.38500
4658332;-0.39500
4661110;-0.41000
4663888;-0.43500
4666665;-0.46000
4669443;-0.48000
4672221;-0.51500
4674999;-0.56500
4677776;-0.57500
4680554;-0.48500
4683332;-0.35500
4686110;-0.19500
4688888;-0.03500
4691665;0.15000
4694443;0.43000
4697221;0.70500
4699999;0.90000
4702776;1.02000
4705554;1.08000
4708332;1.05500
4711110;0.87500
4713888;0.54000
4716665;0.12500
4719443;-0.27500
4722221;-0.50000
4724999;-0.54000
4727776;-0.49500
4730554;-0.42500
4733332;-0.37500
4736110;-0.37000
4738888;-0.38500
4741665;-0.39500
4744443;-0.40500
4747221;-0.40000
4749999;-0.39000
4752776;-0.39500
4755554;-0.41000
4758332;-0.41000
4761110;-0.41000
4763888;-0.39500
4766665;-0.38500
4769443;-0.38500
4772221;-0.38500
4774999;-0.40000
4777776;-0.39500
4780554;-0.39500
4783332;-0.38500
4786110;-0.39000
4788888;-0.40000
4791665;-0.40000
4794443;-0.40000
4797221;-0.39000
4799999;-0.37500
4802776;-0.39500
4805554;-0.38500
4808332;-0.39500
4811110;-0.41500
4813888;-0.40500
4816665;-0.39000
4819443;-0.39000
4822221;-0.39000
4824999;-0.40000
4827776;-0.39500
4830554;-0.38500
4833332;-0.38000
4836110;-0.38000
4838888;-0.38500
4841665;-0.38000
4844443;-0.39000
4847221;-0.38000
4849999;-0.38500
4852776;-0.38500
4855554;-0.38500
4858332;-0.39000
4861110;-0.39500
4863888;-0.39500
4866665;-0.37500
4869443;-0.39000
4872221;-0.40500
4874999;-0.40000
4877776;-0.40000
4880554;-0.38500
4883332;-0.37500
4886110;-0.38000
4888888;-0.39000
4891665;-0.39000
4894443;-0.40500
4897221;-0.40000
4899999;-0.39000
4902776;-0.39500
4905554;-0.38500
4908332;-0.39500
4911110;-0.38500
4913888;-0.38000
4916665;-0.35500
4919443;-0.36500
4922221;-0.37500
4924999;-0.39000
4927776;-0.39000
4930554;-0.39500
4933332;-0.38500
4936110;-0.39000
4938888;-0.38500
4941665;-0.39500
4944443;-0.39000
4947221;-0.40500
4949999;-0.39500
4952776;-0.40000
4955554;-0.41000
4958332;-0.41500
4961110;-0.41500
4963887;-0.42000
4966665;-0.40000
4969443;-0.40000
4972221;-0.42000
4974999;-0.43000
4977776;-0.43000
4980554;-0.42000
4983332;-0.38500
4986110;-0.37000
4988887;-0.37500
4991665;-0.38500
4994443;-0.39500
4997221;-0.37500
4999999;-0.36000
5002776;-0.34500
5005554;-0.34500
5008332;-0.35500
5011110;-0.36000
5013887;-0.33500
5016665;-0.32500
5019443;-0.31500
5022221;-0.33000
5024999;-0.33500
5027776;-0.33500
5030554;-0.32500
5033332;-0.32000
5036110;-0.33000
5038887;-0.32500
5041665;-0.33000
5044443;-0.33000
5047221;-0.32000
5049999;-0.33500
5052776;-0.33500
5055554;-0.32000
5058332;-0.31500
5061110;-0.31500
5063887;-0.31000
5066665;-0.29500
5069443;-0.30500
5072221;-0.31500
5074999;-0.32500
5077776;-0.33000
5080554;-0.31500
5083332;-0.32000
5086110;-0.31500
5088887;-0.32500
5091665;-0.34000
5094443;-0.34000
5097221;-0.32500
5099999;-0.32500
5102776;-0.32000
5105554;-0.34500
5108332;-0.36500
5111110;-0.36500
5113887;-0.36500
5116665;-0.33500
5119443;-0.33500
5122221;-0.33500
5124999;-0.33500
5127776;-0.34500
5130554;-0.34500
5133332;-0.34500
5136110;-0.36000
5138887;-0.36000
5141665;-0.36000
5144443;-0.36500
5147221;-0.35000
5149999;-0.34500
5152776;-0.34500
5155554;-0.34500
5158332;-0.36000
5161110;-0.37000
5163887;-0.38000
5166665;-0.37500
5169443;-0.37000
5172221;-0.38000
5174999;-0.40000
5177776;-0.40000
5180554;-0.39500
5183332;-0.37000
5186110;-0.37500
5188887;-0.38000
5191665;-0.38500
5194443;-0.40000
5197221;-0.38500
5199999;-0.36500
5202776;-0.36000
5205554;-0.36500
5208332;-0.37000
5211110;-0.35500
5213887;-0.35500
5216665;-0.35000
5219443;-0.33500
5222221;-0.33500
5224999;-0.33000
5227776;-0.32500
5230554;-0.31500
5233332;-0.31500
5236110;-0.30000
5238887;-0.29000
5241665;-0.30500
5244443;-0.29000
5247221;-0.27500
5249999;-0.27000
5252776;-0.27000
5255554;-0.26500
5258332;-0.28500
5261110;-0.29500
5263887;-0.29000
5266665;-0.28500
5269443;-0.25500
5272221;-0.26000
5274999;-0.25500
5277776;-0.26500
5280554;-0.26500
5283332;-0.25000
5286110;-0.27000
5288887;-0.27000
5291665;-0.27000
5294443;-0.26000
5297221;-0.23000
5299999;-0.22500
5302776;-0.25500
5305554;-0.31000
5308332;-0.34500
5311110;-0.36500
5313887;-0.36500
5316665;-0.38000
5319443;-0.40000
5322221;-0.40000
5324999;-0.41500
5327776;-0.42000
5330554;-0.41000
5333332;-0.40500
5336110;-0.41500
5338887;-0.41500
5341665;-0.42500
5344443;-0.42000
5347221;-0.40500
5349999;-0.39000
5352776;-0.40000
5355554;-0.42500
5358332;-0.43000
5361110;-0.42500
5363887;-0.40500
5366665;-0.40500
5369443;-0.41500
5372221;-0.42000
5374998;-0.44000
5377776;-0.44500
5380554;-0.44500
5383332;-0.43500
5386110;-0.43000
5388887;-0.46500
5391665;-0.49000
5394443;-0.53500
5397221;-0.53500
5399998;-0.55500
5402776;-0.60000
5405554;-0.64000
5408332;-0.61000
5411110;-0.50000
5413887;-0.35500
5416665;-0.18000
5419443;0.01500
5422221;0.24500
5424998;0.50000
5427776;0.73000
5430554;0.90000
5433332;0.95500
5436110;0.85500
5438887;0.59500
5441665;0.18500
5444443;-0.23500
5447221;-0.47500
5449998;-0.57500
5452776;-0.55500
5455554;-0.51500
5458332;-0.48500
5461110;-0.46500
5463887;-0.45500
