time_ms;ecg_value
0;0.88500
2778;1.06000
5556;1.11000
8333;0.99000
11111;0.63500
13889;0.11000
16667;-0.31000
19444;-0.49500
22222;-0.49500
25000;-0.43500
27778;-0.40000
30556;-0.39500
33333;-0.40000
36111;-0.40500
38889;-0.41000
41667;-0.42000
44444;-0.42500
47222;-0.44500
50000;-0.43500
52778;-0.42500
55556;-0.43000
58333;-0.45000
61111;-0.46000
63889;-0.45000
66667;-0.44000
69444;-0.42500
72222;-0.43500
75000;-0.44500
77778;-0.44500
80556;-0.44500
83333;-0.44000
86111;-0.43000
88889;-0.44500
91667;-0.45000
94444;-0.45500
97222;-0.45000
100000;-0.44500
102778;-0.43000
105556;-0.43500
108333;-0.44500
111111;-0.45500
113889;-0.45000
116667;-0.44000
119444;-0.42500
122222;-0.42500
125000;-0.43500
127778;-0.46000
130556;-0.45500
133333;-0.44500
136111;-0.43000
138889;-0.43000
141667;-0.45000
144444;-0.43500
147222;-0.46000
150000;-0.45000
152778;-0.44000
155556;-0.44500
158333;-0.45000
161111;-0.45500
163889;-0.45000
166667;-0.45000
169444;-0.44000
172222;-0.44500
175000;-0.45500
177778;-0.46000
180556;-0.46500
183333;-0.45500
186111;-0.43000
188889;-0.45500
191667;-0.46000
194444;-0.46500
197222;-0.47500
200000;-0.45500
202778;-0.46000
205555;-0.46000
208333;-0.45500
211111;-0.46500
213889;-0.46500
216667;-0.45500
219444;-0.46500
222222;-0.45500
225000;-0.46000
227778;-0.47500
230555;-0.48000
233333;-0.47000
236111;-0.47500
238889;-0.47500
241667;-0.48000
244444;-0.48000
247222;-0.48500
250000;-0.47000
252778;-0.47000
255555;-0.47500
258333;-0.48000
261111;-0.48000
263889;-0.48500
266667;-0.47500
269444;-0.46500
272222;-0.46500
275000;-0.46500
277778;-0.46000
280555;-0.44500
283333;-0.43500
286111;-0.41500
288889;-0.39000
291667;-0.39000
294444;-0.39000
297222;-0.39500
300000;-0.37000
302778;-0.35500
305555;-0.36000
308333;-0.35000
311111;-0.35500
313889;-0.35000
316667;-0.34500
319444;-0.33500
322222;-0.33500
325000;-0.34000
327778;-0.34500
330555;-0.34000
333333;-0.33000
336111;-0.33500
338889;-0.33000
341667;-0.33500
344444;-0.34000
347222;-0.34500
350000;-0.33000
352778;-0.32500
355555;-0.32500
358333;-0.35000
361111;-0.34500
363889;-0.35500
366667;-0.34500
369444;-0.33500
372222;-0.34500
375000;-0.34500
377778;-0.35000
380555;-0.35000
383333;-0.34500
386111;-0.34000
388889;-0.34000
391667;-0.34500
394444;-0.35500
397222;-0.36000
400000;-0.34500
402778;-0.34500
405555;-0.35000
408333;-0.35500
411111;-0.36000
413889;-0.36500
416667;-0.36000
419444;-0.35500
422222;-0.35500
425000;-0.37000
427778;-0.37000
430555;-0.39000
433333;-0.37500
436111;-0.37000
438889;-0.36000
441667;-0.38000
444444;-0.38500
447222;-0.38500
450000;-0.38000
452778;-0.37000
455555;-0.38500
458333;-0.39000
461111;-0.40000
463889;-0.40000
466667;-0.40500
469444;-0.38000
472222;-0.38500
475000;-0.38000
477778;-0.39500
480555;-0.39500
483333;-0.39500
486111;-0.38000
488889;-0.38500
491667;-0.38000
494444;-0.38500
497222;-0.40000
500000;-0.39000
502778;-0.39000
505555;-0.38000
508333;-0.39000
511111;-0.38500
513889;-0.39500
516667;-0.39500
519444;-0.38500
522222;-0.38000
525000;-0.39000
527778;-0.39500
530555;-0.39000
533333;-0.40000
536111;-0.36500
538889;-0.38000
541667;-0.39500
544444;-0.39500
547222;-0.40000
550000;-0.38000
552778;-0.37500
555555;-0.37500
558333;-0.38500
561111;-0.39000
563889;-0.39000
566667;-0.37000
569444;-0.37000
572222;-0.36500
575000;-0.38000
577778;-0.37500
580555;-0.38000
583333;-0.36500
586111;-0.36000
588889;-0.35000
591667;-0.34000
594444;-0.33000
597222;-0.31500
600000;-0.30500
602778;-0.30000
605555;-0.29500
608333;-0.30500
611111;-0.29500
613889;-0.29000
616666;-0.27500
619444;-0.26000
622222;-0.26000
625000;-0.27500
627778;-0.29000
630555;-0.29000
633333;-0.28000
636111;-0.27000
638889;-0.29000
641666;-0.30000
644444;-0.30000
647222;-0.30500
650000;-0.29500
652778;-0.29000
655555;-0.30000
658333;-0.28500
661111;-0.26500
663889;-0.25000
666666;-0.25500
669444;-0.28000
672222;-0.29000
675000;-0.31500
677778;-0.33000
680555;-0.33500
683333;-0.32000
686111;-0.31500
688889;-0.35000
691666;-0.36500
694444;-0.38000
697222;-0.38500
700000;-0.39000
702778;-0.40000
705555;-0.39500
708333;-0.39500
711111;-0.40000
713889;-0.42000
716666;-0.40000
719444;-0.39500
722222;-0.39000
725000;-0.40500
727778;-0.40000
730555;-0.41500
733333;-0.40500
736111;-0.40500
738889;-0.40000
741666;-0.41500
744444;-0.42000
747222;-0.42000
750000;-0.40500
752778;-0.40500
755555;-0.40000
758333;-0.42000
761111;-0.41000
763889;-0.42500
766666;-0.43500
769444;-0.46500
772222;-0.50500
775000;-0.54500
777778;-0.57000
780555;-0.61500
783333;-0.63500
786111;-0.60000
788889;-0.49500
791666;-0.35500
794444;-0.21000
797222;-0.02500
800000;0.22000
802778;0.50500
805555;0.78000
808333;0.96000
811111;0.99500
813889;0.86500
816666;0.53000
819444;0.07000
822222;-0.34000
825000;-0.53000
827778;-0.55000
830555;-0.49500
833333;-0.43500
836111;-0.41000
838889;-0.42000
841666;-0.42500
844444;-0.44000
847222;-0.44500
850000;-0.45000
852778;-0.43000
855555;-0.43500
858333;-0.44500
861111;-0.44500
863889;-0.45000
866666;-0.44500
869444;-0.44000
872222;-0.43500
875000;-0.45500
877778;-0.45500
880555;-0.45000
883333;-0.43000
886111;-0.43500
888889;-0.43500
891666;-0.44500
894444;-0.46000
897222;-0.46500
900000;-0.46000
902778;-0.44500
905555;-0.44500
908333;-0.44500
911111;-0.45500
913889;-0.46500
916666;-0.45500
919444;-0.44500
922222;-0.44500
925000;-0.45000
927778;-0.45000
930555;-0.46000
933333;-0.44500
936111;-0.44000
938889;-0.45000
941666;-0.45000
944444;-0.47500
947222;-0.47500
950000;-0.45000
952778;-0.44500
955555;-0.44500
958333;-0.45500
961111;-0.45500
963889;-0.45000
966666;-0.44500
969444;-0.44000
972222;-0.44000
975000;-0.45000
977778;-0.45000
980555;-0.46000
983333;-0.45000
986111;-0.44000
988889;-0.43000
991666;-0.45000
994444;-0.46000
997222;-0.45500
1000000;-0.45000
1002777;-0.43500
1005555;-0.43500
1008333;-0.43000
1011111;-0.44500
1013889;-0.45000
1016666;-0.44000
1019444;-0.42500
1022222;-0.43000
1025000;-0.43500
1027777;-0.44000
1030555;-0.44000
1033333;-0.43000
1036111;-0.42500
1038889;-0.43500
1041666;-0.44500
1044444;-0.45000
1047222;-0.45000
1050000;-0.45000
1052777;-0.43500
1055555;-0.45000
1058333;-0.46000
1061111;-0.47000
1063889;-0.47000
1066666;-0.45500
1069444;-0.46000
1072222;-0.46000
1075000;-0.46500
1077777;-0.47000
1080555;-0.47500
1083333;-0.46500
1086111;-0.45000
1088889;-0.46000
1091666;-0.46500
1094444;-0.48000
1097222;-0.46000
1100000;-0.44000
1102777;-0.43000
1105555;-0.43000
1108333;-0.41500
1111111;-0.42000
1113889;-0.41000
1116666;-0.40000
1119444;-0.38500
1122222;-0.37500
1125000;-0.37000
1127777;-0.37500
1130555;-0.38000
1133333;-0.35500
1136111;-0.34000
1138889;-0.35000
1141666;-0.36000
1144444;-0.37500
1147222;-0.36500
1150000;-0.35000
1152777;-0.33500
1155555;-0.34000
1158333;-0.33500
1161111;-0.35500
1163889;-0.36000
1166666;-0.35500
1169444;-0.35000
1172222;-0.35500
1175000;-0.35000
1177777;-0.35500
1180555;-0.36000
1183333;-0.35500
1186111;-0.34000
1188889;-0.35000
1191666;-0.35000
1194444;-0.35500
1197222;-0.35500
1200000;-0.35500
1202777;-0.34500
1205555;-0.35500
1208333;-0.36500
1211111;-0.37500
1213889;-0.36000
1216666;-0.36500
1219444;-0.35500
1222222;-0.35500
1225000;-0.37000
1227777;-0.38500
1230555;-0.40500
1233333;-0.39000
1236111;-0.38500
1238889;-0.39000
1241666;-0.38500
1244444;-0.38000
1247222;-0.39500
1250000;-0.39000
1252777;-0.38000
1255555;-0.39000
1258333;-0.40000
1261111;-0.40000
1263889;-0.41500
1266666;-0.39500
1269444;-0.38500
1272222;-0.39500
1275000;-0.39000
1277777;-0.40000
1280555;-0.41000
1283333;-0.40500
1286111;-0.40500
1288889;-0.40000
1291666;-0.41500
1294444;-0.40500
1297222;-0.40500
1300000;-0.39000
1302777;-0.38500
1305555;-0.39500
1308333;-0.42000
1311111;-0.42500
1313889;-0.41500
1316666;-0.41500
1319444;-0.41000
1322222;-0.40500
1325000;-0.41000
1327777;-0.40500
1330555;-0.41000
1333333;-0.40000
1336111;-0.40000
1338889;-0.40000
1341666;-0.40500
1344444;-0.41000
1347222;-0.41000
1350000;-0.41000
1352777;-0.39500
1355555;-0.39500
1358333;-0.39000
1361111;-0.40500
1363889;-0.40000
1366666;-0.39500
1369444;-0.40000
1372222;-0.39500
1375000;-0.41000
1377777;-0.41500
1380555;-0.42000
1383333;-0.40000
1386111;-0.39500
1388888;-0.39500
1391666;-0.38500
1394444;-0.39500
1397222;-0.38500
1400000;-0.37000
1402777;-0.35500
1405555;-0.33500
1408333;-0.34000
1411111;-0.34500
1413888;-0.34500
1416666;-0.33000
1419444;-0.32500
1422222;-0.32000
1425000;-0.32000
1427777;-0.31500
1430555;-0.31000
1433333;-0.30000
1436111;-0.28500
1438888;-0.27500
1441666;-0.28500
1444444;-0.29500
1447222;-0.30500
1450000;-0.29500
1452777;-0.29000
1455555;-0.29000
1458333;-0.30500
1461111;-0.30500
1463888;-0.31500
1466666;-0.32000
1469444;-0.32500
1472222;-0.31000
1475000;-0.30000
1477777;-0.29500
1480555;-0.32000
1483333;-0.34000
1486111;-0.35000
1488888;-0.36500
1491666;-0.37000
1494444;-0.40500
1497222;-0.40000
1500000;-0.41500
1502777;-0.41000
1505555;-0.42500
1508333;-0.42000
1511111;-0.41000
1513888;-0.42000
1516666;-0.40500
1519444;-0.41500
1522222;-0.42000
1525000;-0.42500
1527777;-0.44000
1530555;-0.43500
1533333;-0.43000
1536111;-0.42000
1538888;-0.42500
1541666;-0.44000
1544444;-0.44000
1547222;-0.44500
1550000;-0.43500
1552777;-0.43000
1555555;-0.42500
1558333;-0.43500
1561111;-0.43500
1563888;-0.45000
1566666;-0.45000
1569444;-0.47000
1572222;-0.50500
1575000;-0.53500
1577777;-0.55500
1580555;-0.59500
1583333;-0.63000
1586111;-0.61500
1588888;-0.53500
1591666;-0.43000
1594444;-0.31500
1597222;-0.18000
1600000;0.00500
1602777;0.23500
1605555;0.48500
1608333;0.68500
1611111;0.84000
1613888;0.95000
1616666;1.03000
1619444;1.03500
1622222;0.89000
1625000;0.62000
1627777;0.24500
1630555;-0.14000
1633333;-0.41500
1636111;-0.53000
1638888;-0.56500
1641666;-0.55000
1644444;-0.53000
1647222;-0.50500
1650000;-0.49500
1652777;-0.46500
1655555;-0.46500
1658333;-0.46000
1661111;-0.47500
1663888;-0.47500
1666666;-0.46500
1669444;-0.45500
1672222;-0.46000
1675000;-0.46500
1677777;-0.47500
1680555;-0.47500
1683333;-0.47500
1686111;-0.47500
1688888;-0.47000
1691666;-0.48000
1694444;-0.48500
1697222;-0.51000
1700000;-0.49000
1702777;-0.48500
1705555;-0.47500
1708333;-0.48000
1711111;-0.49500
1713888;-0.49000
1716666;-0.47000
1719444;-0.47000
1722222;-0.48500
1725000;-0.49500
1727777;-0.49500
1730555;-0.49500
1733333;-0.49000
1736111;-0.48000
1738888;-0.49000
1741666;-0.49000
1744444;-0.51000
1747222;-0.51000
1750000;-0.50500
1752777;-0.48000
1755555;-0.48500
1758333;-0.49000
1761111;-0.49500
1763888;-0.50000
1766666;-0.50000
1769444;-0.50500
1772222;-0.51000
1775000;-0.50500
1777777;-0.49500
1780555;-0.48500
1783333;-0.47500
1786111;-0.47000
1788888;-0.49500
1791666;-0.51500
1794444;-0.52500
1797222;-0.51500
1799999;-0.49000
1802777;-0.47000
1805555;-0.49000
1808333;-0.50500
1811111;-0.52000
1813888;-0.51500
1816666;-0.49000
1819444;-0.48000
1822222;-0.49500
1824999;-0.50500
1827777;-0.52000
1830555;-0.51000
1833333;-0.50500
1836111;-0.50000
1838888;-0.49500
1841666;-0.53000
1844444;-0.53500
1847222;-0.53500
1849999;-0.52000
1852777;-0.51500
1855555;-0.53000
1858333;-0.54500
1861111;-0.57000
1863888;-0.56000
1866666;-0.56000
1869444;-0.54500
1872222;-0.56000
1874999;-0.56500
1877777;-0.57500
1880555;-0.58500
1883333;-0.58000
1886111;-0.57500
1888888;-0.57000
1891666;-0.58500
1894444;-0.58500
1897222;-0.59500
1899999;-0.57000
1902777;-0.56500
1905555;-0.56500
1908333;-0.57000
1911111;-0.57500
1913888;-0.56000
1916666;-0.54000
1919444;-0.52500
1922222;-0.53000
1924999;-0.51500
1927777;-0.51500
1930555;-0.49500
1933333;-0.46500
1936111;-0.45000
1938888;-0.44500
1941666;-0.45500
1944444;-0.44500
1947222;-0.43000
1949999;-0.42000
1952777;-0.40000
1955555;-0.41000
1958333;-0.41000
1961111;-0.42000
1963888;-0.42000
1966666;-0.41000
1969444;-0.39500
1972222;-0.40000
1974999;-0.40500
1977777;-0.42000
1980555;-0.44000
1983333;-0.41000
1986111;-0.39500
1988888;-0.39000
1991666;-0.40500
1994444;-0.42500
1997222;-0.41500
1999999;-0.41500
2002777;-0.41500
2005555;-0.41500
2008333;-0.41500
2011111;-0.42500
2013888;-0.42500
2016666;-0.42000
2019444;-0.40500
2022222;-0.40500
2024999;-0.42500
2027777;-0.42000
2030555;-0.42000
2033333;-0.42000
2036111;-0.40500
2038888;-0.40000
2041666;-0.40500
2044444;-0.41500
2047222;-0.43000
2049999;-0.43500
2052777;-0.43000
2055555;-0.43000
2058333;-0.42500
2061111;-0.42500
2063888;-0.43500
2066666;-0.44000
2069444;-0.43500
2072222;-0.43500
2074999;-0.44500
2077777;-0.46000
2080555;-0.46000
2083333;-0.46500
2086111;-0.44500
2088888;-0.44500
2091666;-0.45000
2094444;-0.46500
2097222;-0.45000
2099999;-0.43500
2102777;-0.42500
2105555;-0.43000
2108333;-0.43000
2111111;-0.44000
2113888;-0.45500
2116666;-0.44000
2119444;-0.43000
2122222;-0.43000
2124999;-0.43500
2127777;-0.45500
2130555;-0.44500
2133333;-0.43000
2136111;-0.43500
2138888;-0.43000
2141666;-0.44500
2144444;-0.45000
2147222;-0.45500
2149999;-0.45000
2152777;-0.44500
2155555;-0.43500
2158333;-0.44500
2161111;-0.45000
2163888;-0.45500
2166666;-0.43500
2169444;-0.43000
2172222;-0.44500
2174999;-0.44500
2177777;-0.45500
2180555;-0.46000
2183333;-0.45000
2186110;-0.42500
2188888;-0.43000
2191666;-0.43500
2194444;-0.44500
2197222;-0.44000
2199999;-0.42500
2202777;-0.42500
2205555;-0.42500
2208333;-0.43000
2211110;-0.43000
2213888;-0.41500
2216666;-0.40500
2219444;-0.38000
2222222;-0.37500
2224999;-0.38000
2227777;-0.38500
2230555;-0.38500
2233333;-0.37500
2236110;-0.36000
2238888;-0.34500
2241666;-0.34000
2244444;-0.35000
2247222;-0.35000
2249999;-0.33000
2252777;-0.32500
2255555;-0.31500
2258333;-0.32000
2261110;-0.33000
2263888;-0.34000
2266666;-0.33500
2269444;-0.33000
2272222;-0.33000
2274999;-0.33000
2277777;-0.34000
2280555;-0.35000
2283333;-0.36000
2286110;-0.34000
2288888;-0.32000
2291666;-0.31000
2294444;-0.32000
2297222;-0.34000
2299999;-0.36000
2302777;-0.35500
2305555;-0.38000
2308333;-0.40000
2311110;-0.41500
2313888;-0.43500
2316666;-0.43000
2319444;-0.42500
2322222;-0.43000
2324999;-0.44000
2327777;-0.43000
2330555;-0.45000
2333333;-0.43500
2336110;-0.42000
2338888;-0.41500
2341666;-0.43000
2344444;-0.43500
2347222;-0.44500
2349999;-0.43000
2352777;-0.42500
2355555;-0.43500
2358333;-0.43500
2361110;-0.43500
2363888;-0.44000
2366666;-0.43500
2369444;-0.42500
2372222;-0.42500
2374999;-0.42000
2377777;-0.43500
2380555;-0.44000
2383333;-0.43000
2386110;-0.42000
2388888;-0.42500
2391666;-0.45000
2394444;-0.50500
2397222;-0.53500
2399999;-0.55500
2402777;-0.57000
2405555;-0.60500
2408333;-0.64000
2411110;-0.60500
2413888;-0.51000
2416666;-0.35500
2419444;-0.19000
2422222;0.00000
2424999;0.23500
2427777;0.49000
2430555;0.74000
2433333;0.91500
2436110;0.98500
2438888;0.88500
2441666;0.58500
2444444;0.15000
2447222;-0.27000
2449999;-0.51000
2452777;-0.55500
2455555;-0.54000
2458333;-0.50000
2461110;-0.47500
2463888;-0.46500
2466666;-0.45500
2469444;-0.44500
2472222;-0.44500
2474999;-0.44500
2477777;-0.45500
2480555;-0.45500
2483333;-0.44500
2486110;-0.43000
2488888;-0.43500
2491666;-0.44500
2494444;-0.46000
2497222;-0.47000
2499999;-0.46000
2502777;-0.44000
2505555;-0.45000
2508333;-0.46000
2511110;-0.46000
2513888;-0.47000
2516666;-0.45500
2519444;-0.44500
2522222;-0.45000
2524999;-0.45500
2527777;-0.47500
2530555;-0.47500
2533333;-0.46000
2536110;-0.46500
2538888;-0.45500
2541666;-0.46000
2544444;-0.46500
2547222;-0.48000
2549999;-0.46500
2552777;-0.46000
2555555;-0.45500
2558333;-0.45500
2561110;-0.47000
2563888;-0.46500
2566666;-0.46500
2569444;-0.46000
2572222;-0.45000
2574999;-0.46500
2577777;-0.47000
2580555;-0.47000
2583333;-0.45500
2586110;-0.44500
2588888;-0.45000
2591666;-0.45500
2594444;-0.46000
2597221;-0.46000
2599999;-0.45500
2602777;-0.45000
2605555;-0.44500
2608333;-0.45500
2611110;-0.46000
2613888;-0.46500
2616666;-0.46000
2619444;-0.45000
2622221;-0.45000
2624999;-0.46000
2627777;-0.45500
2630555;-0.47000
2633333;-0.45500
2636110;-0.45500
2638888;-0.44500
2641666;-0.44500
2644444;-0.45000
2647221;-0.46500
2649999;-0.43500
2652777;-0.44000
2655555;-0.44500
2658333;-0.45000
2661110;-0.47000
2663888;-0.47000
2666666;-0.46500
2669444;-0.45000
2672221;-0.45500
2674999;-0.46000
2677777;-0.47000
2680555;-0.47500
2683333;-0.47500
2686110;-0.47000
2688888;-0.47500
2691666;-0.49000
2694444;-0.50500
2697221;-0.50500
2699999;-0.49000
2702777;-0.48000
2705555;-0.50000
2708333;-0.51500
2711110;-0.50000
2713888;-0.50500
2716666;-0.49500
2719444;-0.49000
2722221;-0.49000
2724999;-0.48500
2727777;-0.49000
2730555;-0.49500
2733333;-0.46500
2736110;-0.46000
2738888;-0.43500
2741666;-0.43000
2744444;-0.43500
2747221;-0.42000
2749999;-0.39500
2752777;-0.38000
2755555;-0.38000
2758333;-0.37500
2761110;-0.38000
2763888;-0.37000
2766666;-0.35500
2769444;-0.33500
2772221;-0.33000
2774999;-0.34000
2777777;-0.33500
2780555;-0.32500
2783333;-0.33000
2786110;-0.32000
2788888;-0.31500
2791666;-0.32500
2794444;-0.33000
2797221;-0.33500
2799999;-0.32000
2802777;-0.31000
2805555;-0.31000
2808333;-0.31500
2811110;-0.33000
2813888;-0.33000
2816666;-0.32000
2819444;-0.30500
2822221;-0.30500
2824999;-0.31000
2827777;-0.31000
2830555;-0.32500
2833333;-0.31500
2836110;-0.31000
2838888;-0.30500
2841666;-0.31500
2844444;-0.32500
2847221;-0.33500
2849999;-0.32000
2852777;-0.31500
2855555;-0.31000
2858333;-0.32500
2861110;-0.33000
2863888;-0.32500
2866666;-0.32500
2869444;-0.31500
2872221;-0.31500
2874999;-0.31000
2877777;-0.33000
2880555;-0.33500
2883333;-0.33500
2886110;-0.31500
2888888;-0.32000
2891666;-0.33000
2894444;-0.33500
2897221;-0.33500
2899999;-0.33000
2902777;-0.32500
2905555;-0.32000
2908333;-0.33000
2911110;-0.34000
2913888;-0.34000
2916666;-0.34000
2919444;-0.33500
2922221;-0.33500
2924999;-0.34000
2927777;-0.34500
2930555;-0.35500
2933333;-0.34000
2936110;-0.33000
2938888;-0.35500
2941666;-0.34000
2944444;-0.35500
2947221;-0.35500
2949999;-0.34000
2952777;-0.33500
2955555;-0.34500
2958333;-0.34500
2961110;-0.35500
2963888;-0.36500
2966666;-0.35000
2969444;-0.34500
2972221;-0.33500
2974999;-0.34500
2977777;-0.35500
2980555;-0.35500
2983332;-0.35000
2986110;-0.33500
2988888;-0.33500
2991666;-0.34500
2994444;-0.35000
2997221;-0.35000
2999999;-0.34500
3002777;-0.34000
3005555;-0.33500
3008332;-0.34500
3011110;-0.35000
3013888;-0.36000
3016666;-0.34500
3019444;-0.34000
3022221;-0.33000
3024999;-0.34000
3027777;-0.35500
3030555;-0.35000
3033332;-0.34000
3036110;-0.33000
3038888;-0.33000
3041666;-0.34000
3044444;-0.34500
3047221;-0.34500
3049999;-0.33500
3052777;-0.32500
3055555;-0.32000
3058332;-0.32500
3061110;-0.34000
3063888;-0.33500
3066666;-0.31000
3069444;-0.29500
3072221;-0.27000
3074999;-0.26500
3077777;-0.27000
3080555;-0.27500
3083332;-0.26500
3086110;-0.25500
3088888;-0.25500
3091666;-0.26000
3094444;-0.26500
3097221;-0.25000
3099999;-0.23500
3102777;-0.23500
3105555;-0.22000
3108332;-0.23500
3111110;-0.23000
3113888;-0.23500
3116666;-0.23500
3119444;-0.22500
3122221;-0.22000
3124999;-0.24000
3127777;-0.24500
3130555;-0.26500
3133332;-0.25000
3136110;-0.24000
3138888;-0.23500
3141666;-0.24500
3144444;-0.26000
3147221;-0.27000
3149999;-0.25000
3152777;-0.22500
3155555;-0.21000
3158332;-0.21500
3161110;-0.24500
3163888;-0.28500
3166666;-0.29000
3169444;-0.30500
3172221;-0.30500
3174999;-0.33000
3177777;-0.34000
3180555;-0.36000
3183332;-0.35000
3186110;-0.35000
3188888;-0.35500
3191666;-0.35500
3194444;-0.37500
3197221;-0.37500
3199999;-0.37500
3202777;-0.36000
3205555;-0.35000
3208332;-0.36500
3211110;-0.36000
3213888;-0.37000
3216666;-0.36500
3219444;-0.35000
3222221;-0.35500
3224999;-0.36000
3227777;-0.36500
3230555;-0.37500
3233332;-0.36000
3236110;-0.36500
3238888;-0.36000
3241666;-0.36500
3244444;-0.36500
3247221;-0.39500
3249999;-0.40000
3252777;-0.44000
3255555;-0.47500
3258332;-0.50500
3261110;-0.52500
3263888;-0.56500
3266666;-0.56000
3269444;-0.50500
3272221;-0.39500
3274999;-0.25000
3277777;-0.09000
3280555;0.07000
3283332;0.29500
3286110;0.53000
3288888;0.76500
3291666;0.96500
3294444;1.07500
3297221;1.13500
3299999;1.11500
3302777;0.94000
3305555;0.57500
3308332;0.13000
3311110;-0.22000
3313888;-0.41500
3316666;-0.44500
3319444;-0.41500
3322221;-0.37500
3324999;-0.36000
3327777;-0.38500
3330555;-0.39000
3333332;-0.38500
3336110;-0.38000
3338888;-0.38000
3341666;-0.40000
3344444;-0.41500
3347221;-0.42000
3349999;-0.42000
3352777;-0.41000
3355555;-0.41500
3358332;-0.42000
3361110;-0.43000
3363888;-0.42500
3366666;-0.42000
3369444;-0.41500
3372221;-0.41000
3374999;-0.42000
3377777;-0.42500
3380555;-0.43500
3383332;-0.42500
3386110;-0.41000
3388888;-0.41500
3391666;-0.42000
3394443;-0.42500
3397221;-0.43500
3399999;-0.42500
3402777;-0.41000
3405555;-0.41500
3408332;-0.42000
3411110;-0.43500
3413888;-0.44000
3416666;-0.41500
3419443;-0.41500
3422221;-0.41500
3424999;-0.43000
3427777;-0.43500
3430555;-0.43000
3433332;-0.43000
3436110;-0.42000
3438888;-0.42000
3441666;-0.43000
3444443;-0.43500
3447221;-0.43500
3449999;-0.43000
3452777;-0.41500
3455555;-0.42000
3458332;-0.42500
3461110;-0.43000
3463888;-0.43000
3466666;-0.42500
3469443;-0.42000
3472221;-0.41500
3474999;-0.42000
3477777;-0.42500
3480555;-0.43500
3483332;-0.43500
3486110;-0.42500
3488888;-0.42500
3491666;-0.43000
3494443;-0.43500
3497221;-0.44000
3499999;-0.43500
3502777;-0.41000
3505555;-0.41000
3508332;-0.41500
3511110;-0.42500
3513888;-0.43000
3516666;-0.42500
3519443;-0.43000
3522221;-0.43500
3524999;-0.43000
3527777;-0.43000
3530555;-0.44500
3533332;-0.43500
3536110;-0.43000
3538888;-0.43500
3541666;-0.44500
3544443;-0.44000
3547221;-0.44500
3549999;-0.45000
3552777;-0.44000
3555555;-0.44500
3558332;-0.45500
3561110;-0.46500
3563888;-0.46500
3566666;-0.46000
3569443;-0.44500
3572221;-0.44000
3574999;-0.45000
3577777;-0.46000
3580555;-0.46000
3583332;-0.44500
3586110;-0.45000
3588888;-0.43500
3591666;-0.43000
3594443;-0.43500
3597221;-0.44500
3599999;-0.43000
3602777;-0.41000
3605555;-0.39000
3608332;-0.39500
3611110;-0.39500
3613888;-0.39000
3616666;-0.37000
3619443;-0.35000
3622221;-0.35000
3624999;-0.34500
3627777;-0.34500
3630555;-0.34000
3633332;-0.33000
3636110;-0.32000
3638888;-0.30500
3641666;-0.31000
3644443;-0.32000
3647221;-0.31500
3649999;-0.30000
3652777;-0.29500
3655555;-0.29000
3658332;-0.29500
3661110;-0.30500
3663888;-0.31000
3666666;-0.30500
3669443;-0.30000
3672221;-0.30500
3674999;-0.30000
3677777;-0.30500
3680555;-0.31000
3683332;-0.30500
3686110;-0.30000
3688888;-0.30000
3691666;-0.30500
3694443;-0.31500
3697221;-0.31500
3699999;-0.31000
3702777;-0.31500
3705555;-0.30500
3708332;-0.31000
3711110;-0.31500
3713888;-0.32500
3716666;-0.32500
3719443;-0.31500
3722221;-0.31500
3724999;-0.32500
3727777;-0.33000
3730555;-0.33500
3733332;-0.32500
3736110;-0.32000
3738888;-0.31500
3741666;-0.32000
3744443;-0.33500
3747221;-0.34000
3749999;-0.33000
3752777;-0.33000
3755555;-0.34500
3758332;-0.34000
3761110;-0.34000
3763888;-0.36500
3766666;-0.35000
3769443;-0.34000
3772221;-0.34500
3774999;-0.34000
3777777;-0.35000
3780554;-0.36000
3783332;-0.36000
3786110;-0.34000
3788888;-0.34500
3791666;-0.36000
3794443;-0.37000
3797221;-0.37500
3799999;-0.35500
3802777;-0.35000
3805554;-0.35500
3808332;-0.36500
3811110;-0.37000
3813888;-0.37000
3816666;-0.35500
3819443;-0.35000
3822221;-0.34500
3824999;-0.35500
3827777;-0.35500
3830554;-0.36500
3833332;-0.36000
3836110;-0.35500
3838888;-0.35000
3841666;-0.35500
3844443;-0.37000
3847221;-0.36000
3849999;-0.36500
3852777;-0.34500
3855554;-0.36500
3858332;-0.35000
3861110;-0.36000
3863888;-0.36500
3866666;-0.35500
3869443;-0.34000
3872221;-0.34500
3874999;-0.34000
3877777;-0.36000
3880554;-0.36000
3883332;-0.34500
3886110;-0.35000
3888888;-0.35000
3891666;-0.35000
3894443;-0.35000
3897221;-0.35500
3899999;-0.34500
3902777;-0.33500
3905554;-0.34500
3908332;-0.35000
3911110;-0.35500
3913888;-0.35500
3916666;-0.34000
3919443;-0.31500
3922221;-0.32500
3924999;-0.33000
3927777;-0.33500
3930554;-0.32000
3933332;-0.30500
3936110;-0.29000
3938888;-0.27500
3941666;-0.28000
3944443;-0.27000
3947221;-0.29000
3949999;-0.27000
3952777;-0.25000
3955554;-0.24000
3958332;-0.23500
3961110;-0.24000
3963888;-0.25000
3966666;-0.23500
3969443;-0.23000
3972221;-0.24000
3974999;-0.24500
3977777;-0.26500
3980554;-0.27500
3983332;-0.27000
3986110;-0.25500
3988888;-0.27000
3991666;-0.28000
3994443;-0.27500
3997221;-0.25000
3999999;-0.22500
4002777;-0.23000
4005554;-0.26000
4008332;-0.28500
4011110;-0.31000
4013888;-0.33500
4016666;-0.32500
4019443;-0.32500
4022221;-0.33500
4024999;-0.34500
4027777;-0.36000
4030554;-0.39000
4033332;-0.36500
4036110;-0.35500
4038888;-0.34500
4041666;-0.37000
4044443;-0.38500
4047221;-0.37000
4049999;-0.37000
4052777;-0.37500
4055554;-0.37500
4058332;-0.39000
4061110;-0.39000
4063888;-0.39000
4066666;-0.38500
4069443;-0.36500
4072221;-0.37500
4074999;-0.37000
4077777;-0.37000
4080554;-0.37000
4083332;-0.37500
4086110;-0.37500
4088888;-0.37000
4091666;-0.37500
4094443;-0.38500
4097221;-0.41500
4099999;-0.45500
4102777;-0.48500
4105554;-0.50500
4108332;-0.53000
4111110;-0.57500
4113888;-0.63000
4116666;-0.60500
4119443;-0.49000
4122221;-0.32000
4124999;-0.13500
4127777;0.06500
4130554;0.33000
4133332;0.66000
4136110;0.91500
4138888;1.04000
4141666;0.99500
4144443;0.71500
4147221;0.23000
4149999;-0.22500
4152777;-0.47000
4155554;-0.51000
4158332;-0.45500
4161110;-0.40500
4163888;-0.40500
4166666;-0.41000
4169443;-0.40500
4172221;-0.40000
4174999;-0.41000
4177777;-0.44000
4180554;-0.44000
4183332;-0.43000
4186110;-0.41500
4188888;-0.42500
4191665;-0.42500
4194443;-0.43500
4197221;-0.43500
4199999;-0.43500
4202777;-0.43000
4205554;-0.43000
4208332;-0.44000
4211110;-0.43500
4213888;-0.44500
4216665;-0.43500
4219443;-0.42500
4222221;-0.42500
4224999;-0.42000
4227777;-0.43500
4230554;-0.44500
4233332;-0.44500
4236110;-0.42000
4238888;-0.42000
4241665;-0.43500
4244443;-0.44000
4247221;-0.45000
4249999;-0.44500
4252777;-0.43000
4255554;-0.42000
4258332;-0.43000
4261110;-0.44000
4263888;-0.45000
4266665;-0.44500
4269443;-0.43500
4272221;-0.43500
4274999;-0.43000
4277777;-0.43500
4280554;-0.45000
4283332;-0.42500
4286110;-0.41500
4288888;-0.43000
4291665;-0.44000
4294443;-0.43500
4297221;-0.44500
4299999;-0.43500
4302777;-0.42500
4305554;-0.43500
4308332;-0.43000
4311110;-0.44000
4313888;-0.44500
4316665;-0.43500
4319443;-0.41500
4322221;-0.42500
4324999;-0.43000
4327777;-0.43500
4330554;-0.44000
4333332;-0.43000
4336110;-0.42000
4338888;-0.43500
4341665;-0.43000
4344443;-0.44000
4347221;-0.44000
4349999;-0.43500
4352777;-0.43000
4355554;-0.42500
4358332;-0.43500
4361110;-0.45500
4363888;-0.45000
4366665;-0.44000
4369443;-0.44500
4372221;-0.44500
4374999;-0.44000
4377777;-0.45500
4380554;-0.45000
4383332;-0.45500
4386110;-0.44500
4388888;-0.45500
4391665;-0.45500
4394443;-0.47000
4397221;-0.48500
4399999;-0.47000
4402777;-0.45000
4405554;-0.44500
4408332;-0.46000
4411110;-0.46500
4413888;-0.45500
4416665;-0.44500
4419443;-0.44500
4422221;-0.42000
4424999;-0.42500
4427777;-0.43000
4430554;-0.42500
4433332;-0.39000
4436110;-0.39500
4438888;-0.38000
4441665;-0.37000
4444443;-0.36500
4447221;-0.36000
4449999;-0.34000
4452777;-0.33000
4455554;-0.32000
4458332;-0.32500
4461110;-0.33000
4463888;-0.33000
4466665;-0.31500
4469443;-0.30500
4472221;-0.30000
4474999;-0.31500
4477777;-0.31500
4480554;-0.31500
4483332;-0.30500
4486110;-0.30000
4488888;-0.29500
4491665;-0.29500
4494443;-0.31000
4497221;-0.32000
4499999;-0.31500
4502777;-0.31000
4505554;-0.31000
4508332;-0.32000
4511110;-0.32000
4513888;-0.33000
4516665;-0.32000
4519443;-0.32000
4522221;-0.32500
4524999;-0.33000
4527777;-0.33500
4530554;-0.34500
4533332;-0.33500
4536110;-0.33500
4538888;-0.32000
4541665;-0.33500
4544443;-0.35000
4547221;-0.35500
4549999;-0.35000
4552777;-0.36500
4555554;-0.35500
4558332;-0.36500
4561110;-0.36000
4563888;-0.36500
4566665;-0.36000
4569443;-0.36500
4572221;-0.37000
4574999;-0.36500
4577776;-0.37500
4580554;-0.38500
4583332;-0.37500
4586110;-0.37000
4588888;-0.36500
4591665;-0.36000
4594443;-0.37500
4597221;-0.37500
4599999;-0.37000
4602776;-0.36000
4605554;-0.37500
4608332;-0.37500
4611110;-0.39000
4613888;-0.40000
4616665;-0.37500
4619443;-0.37500
4622221;-0.37000
4624999;-0.38000
4627776;-0.39000
4630554;-0.40000
4633332;-0.39000
4636110;-0.38500
4638888;-0.37500
4641665;-0.38500
4644443;-0.40500
4647221;-0.40500
4649999;-0.39000
4652776;-0.37000
4655554;-0.36500
4658332;-0.37500
4661110;-0.39000
4663888;-0.38000
4666665;-0.37000
4669443;-0.37500
4672221;-0.37500
4674999;-0.38000
4677776;-0.38500
4680554;-0.39000
4683332;-0.38000
4686110;-0.38500
4688888;-0.38000
4691665;-0.39500
4694443;-0.38500
4697221;-0.39500
4699999;-0.38000
4702776;-0.35500
4705554;-0.36000
4708332;-0.36000
4711110;-0.38000
4713888;-0.38500
4716665;-0.37500
4719443;-0.36000
4722221;-0.35500
4724999;-0.37000
4727776;-0.37500
4730554;-0.37000
4733332;-0.35500
4736110;-0.32500
4738888;-0.30500
4741665;-0.31500
4744443;-0.31500
4747221;-0.31500
4749999;-0.30500
4752776;-0.29500
4755554;-0.27000
4758332;-0.26000
4761110;-0.26500
4763888;-0.26500
4766665;-0.25500
4769443;-0.26500
4772221;-0.27500
4774999;-0.29000
4777776;-0.30000
4780554;-0.30500
4783332;-0.29500
4786110;-0.27000
4788888;-0.28000
4791665;-0.29500
4794443;-0.31500
4797221;-0.30500
4799999;-0.27000
4802776;-0.26500
4805554;-0.29000
4808332;-0.32000
4811110;-0.34500
4813888;-0.36000
4816665;-0.38500
4819443;-0.38500
4822221;-0.38000
4824999;-0.39000
4827776;-0.40000
4830554;-0.40500
4833332;-0.39000
4836110;-0.39000
4838888;-0.38000
4841665;-0.40500
4844443;-0.40000
4847221;-0.40000
4849999;-0.41000
4852776;-0.40500
4855554;-0.40000
4858332;-0.40500
4861110;-0.41500
4863888;-0.42000
4866665;-0.41500
4869443;-0.41000
4872221;-0.40500
4874999;-0.41000
4877776;-0.43500
4880554;-0.43500
4883332;-0.42500
4886110;-0.41000
4888888;-0.41500
4891665;-0.44500
4894443;-0.49000
4897221;-0.54000
4899999;-0.54500
4902776;-0.58500
4905554;-0.63500
4908332;-0.63500
4911110;-0.59000
4913888;-0.45000
4916665;-0.27500
4919443;-0.07000
4922221;0.19000
4924999;0.50000
4927776;0.73000
4930554;0.86500
4933332;0.86500
4936110;0.65000
4938888;0.25000
4941665;-0.18500
4944443;-0.46000
4947221;-0.57500
4949999;-0.56500
4952776;-0.50000
4955554;-0.45500
4958332;-0.44500
4961110;-0.47000
4963887;-0.47500
4966665;-0.44500
4969443;-0.44000
4972221;-0.45500
4974999;-0.45500
4977776;-0.45500
4980554;-0.46000
4983332;-0.45000
4986110;-0.44500
4988887;-0.44000
4991665;-0.45500
4994443;-0.47500
4997221;-0.46500
4999999;-0.47500
5002776;-0.45500
5005554;-0.45500
5008332;-0.46000
5011110;-0.46500
5013887;-0.47000
5016665;-0.47000
5019443;-0.46500
5022221;-0.46000
5024999;-0.45500
5027776;-0.47000
5030554;-0.49000
5033332;-0.48000
5036110;-0.45500
5038887;-0.47000
5041665;-0.46000
5044443;-0.46000
5047221;-0.46500
5049999;-0.48500
5052776;-0.47500
5055554;-0.47500
5058332;-0.46500
5061110;-0.47500
5063887;-0.48000
5066665;-0.48000
5069443;-0.48500
5072221;-0.48000
5074999;-0.48500
5077776;-0.49000
5080554;-0.48500
5083332;-0.48000
5086110;-0.47000
5088887;-0.47000
5091665;-0.48000
5094443;-0.48500
5097221;-0.50000
5099999;-0.48500
5102776;-0.47000
5105554;-0.47500
5108332;-0.48000
5111110;-0.48500
5113887;-0.49500
5116665;-0.50000
5119443;-0.48000
5122221;-0.48000
5124999;-0.48500
5127776;-0.50000
5130554;-0.50500
5133332;-0.49500
5136110;-0.48500
5138887;-0.48500
5141665;-0.48500
5144443;-0.49000
5147221;-0.49000
5149999;-0.49500
5152776;-0.49500
5155554;-0.50000
5158332;-0.51000
5161110;-0.53000
5163887;-0.54000
5166665;-0.53000
5169443;-0.52500
5172221;-0.52000
5174999;-0.52000
5177776;-0.53000
5180554;-0.54000
5183332;-0.54500
5186110;-0.54000
5188887;-0.54500
5191665;-0.55000
5194443;-0.56000
5197221;-0.56500
5199999;-0.54500
5202776;-0.53500
5205554;-0.52000
5208332;-0.52000
5211110;-0.50500
5213887;-0.49500
5216665;-0.50000
5219443;-0.48500
5222221;-0.46000
5224999;-0.45000
5227776;-0.45500
5230554;-0.45000
5233332;-0.41500
5236110;-0.40500
5238887;-0.38500
5241665;-0.39500
5244443;-0.40000
5247221;-0.40500
5249999;-0.39500
5252776;-0.38500
5255554;-0.37000
5258332;-0.37500
5261110;-0.38000
5263887;-0.40000
5266665;-0.38500
5269443;-0.37500
5272221;-0.37500
5274999;-0.39000
5277776;-0.39500
5280554;-0.41000
5283332;-0.39500
5286110;-0.36500
5288887;-0.38000
5291665;-0.38500
5294443;-0.38500
5297221;-0.39500
5299999;-0.38500
5302776;-0.37500
5305554;-0.36500
5308332;-0.36000
5311110;-0.38000
5313887;-0.38500
5316665;-0.39000
5319443;-0.39000
5322221;-0.40500
5324999;-0.40000
5327776;-0.40000
5330554;-0.40000
5333332;-0.39000
5336110;-0.39000
5338887;-0.40000
5341665;-0.41500
5344443;-0.42500
5347221;-0.44000
5349999;-0.43000
5352776;-0.41500
5355554;-0.41000
5358332;-0.40000
5361110;-0.41500
5363887;-0.43000
5366665;-0.41000
5369443;-0.41000
5372221;-0.42500
5374998;-0.42500
5377776;-0.43500
5380554;-0.43500
5383332;-0.42000
5386110;-0.42500
5388887;-0.44000
5391665;-0.44000
5394443;-0.44000
5397221;-0.44500
5399998;-0.43500
5402776;-0.42500
5405554;-0.42000
5408332;-0.41500
5411110;-0.41500
5413887;-0.42500
5416665;-0.41500
5419443;-0.41500
5422221;-0.41500
5424998;-0.43500
5427776;-0.44000
5430554;-0.44500
5433332;-0.44500
5436110;-0.43500
5438887;-0.43000
5441665;-0.42500
5444443;-0.43000
5447221;-0.42000
5449998;-0.43000
5452776;-0.43000
5455554;-0.43500
5458332;-0.44000
5461110;-0.43000
5463887;-0.43500
5466665;-0.43000
5469443;-0.42000
5472221;-0.41500
5474998;-0.41500
5477776;-0.43000
5480554;-0.43500
5483332;-0.43000
5486110;-0.44000
5488887;-0.44500
5491665;-0.42500
5494443;-0.41500
5497221;-0.42000
5499998;-0.40500
5502776;-0.40500
5505554;-0.38500
5508332;-0.36500
5511110;-0.36000
5513887;-0.36500
5516665;-0.37500
5519443;-0.36500
5522221;-0.36000
5524998;-0.35500
5527776;-0.35500
5530554;-0.34000
5533332;-0.31500
5536110;-0.30500
5538887;-0.31000
5541665;-0.30500
5544443;-0.32500
5547221;-0.33000
5549998;-0.32500
5552776;-0.32000
5555554;-0.34000
5558332;-0.33500
5561110;-0.34500
5563887;-0.34000
5566665;-0.34000
5569443;-0.33500
5572221;-0.35000
5574998;-0.34500
5577776;-0.34500
5580554;-0.33500
5583332;-0.31500
5586110;-0.34500
5588887;-0.36500
5591665;-0.38000
5594443;-0.42500
5597221;-0.44500
5599998;-0.44500
5602776;-0.44000
5605554;-0.44000
5608332;-0.45000
5611110;-0.46500
5613887;-0.47000
5616665;-0.45000
5619443;-0.44000
5622221;-0.43500
5624998;-0.44000
5627776;-0.45000
5630554;-0.45500
5633332;-0.45000
5636110;-0.43500
5638887;-0.43500
5641665;-0.44500
5644443;-0.46000
5647221;-0.46500
5649998;-0.44500
5652776;-0.43500
5655554;-0.44500
5658332;-0.45000
5661110;-0.45500
5663887;-0.46000
5666665;-0.47000
5669443;-0.46000
5672221;-0.47500
5674998;-0.52500
5677776;-0.56500
5680554;-0.59500
5683332;-0.61000
5686110;-0.63500
5688887;-0.59000
5691665;-0.48500
5694443;-0.33500
5697221;-0.14000
5699998;0.11000
5702776;0.37500
5705554;0.66500
5708332;0.85500
5711110;0.94000
5713887;0.84000
5716665;0.51000
5719443;0.05500
5722221;-0.34000
5724998;-0.53500
5727776;-0.58000
5730554;-0.56000
5733332;-0.49500
5736110;-0.46500
5738887;-0.46000
5741665;-0.47500
5744443;-0.47500
5747221;-0.47500
5749998;-0.47000
5752776;-0.46000
5755554;-0.46000
5758332;-0.46500
5761109;-0.48500
5763887;-0.48000
5766665;-0.47500
5769443;-0.46500
5772221;-0.47000
5774998;-0.47500
5777776;-0.48500
5780554;-0.48000
5783332;-0.47000
5786109;-0.46500
5788887;-0.47000
5791665;-0.47500
5794443;-0.47500
5797221;-0.47500
5799998;-0.47500
5802776;-0.45500
5805554;-0.46500
5808332;-0.47000
5811109;-0.47500
5813887;-0.48500
5816665;-0.47500
5819443;-0.46000
5822221;-0.47500
5824998;-0.47500
5827776;-0.47500
5830554;-0.48000
5833332;-0.48000
5836109;-0.47000
5838887;-0.46500
5841665;-0.47500
5844443;-0.47500
5847221;-0.47000
5849998;-0.47500
5852776;-0.46000
5855554;-0.46000
5858332;-0.46000
5861109;-0.47000
5863887;-0.47500
5866665;-0.46500
5869443;-0.46000
5872221;-0.46000
5874998;-0.47000
5877776;-0.47500
5880554;-0.48000
5883332;-0.47500
5886109;-0.45000
5888887;-0.46000
5891665;-0.47500
5894443;-0.49000
5897221;-0.49000
5899998;-0.48000
5902776;-0.46500
5905554;-0.46500
5908332;-0.46500
5911109;-0.49000
5913887;-0.48500
5916665;-0.48000
5919443;-0.47000
5922221;-0.48000
5924998;-0.48500
5927776;-0.48500
5930554;-0.49500
5933332;-0.49000
5936109;-0.49500
5938887;-0.49500
5941665;-0.49500
5944443;-0.51000
5947221;-0.52000
5949998;-0.52000
5952776;-0.51000
5955554;-0.51500
5958332;-0.52500
5961109;-0.53500
5963887;-0.54500
5966665;-0.54000
5969443;-0.52000
5972221;-0.52500
5974998;-0.53000
5977776;-0.54500
5980554;-0.54000
5983332;-0.51500
5986109;-0.50000
5988887;-0.49500
5991665;-0.49000
5994443;-0.50500
5997221;-0.49000
5999998;-0.45500
6002776;-0.41500
6005554;-0.41000
6008332;-0.41000
6011109;-0.40000
6013887;-0.40000
6016665;-0.38000
6019443;-0.36500
6022221;-0.36500
6024998;-0.36000
6027776;-0.36500
6030554;-0.36500
6033332;-0.34500
6036109;-0.33000
6038887;-0.33500
6041665;-0.34500
6044443;-0.35500
6047221;-0.34500
6049998;-0.34000
6052776;-0.32500
6055554;-0.32000
6058332;-0.34500
6061109;-0.34000
6063887;-0.34000
6066665;-0.34000
6069443;-0.33000
6072221;-0.31500
6074998;-0.32500
6077776;-0.33500
6080554;-0.34500
6083332;-0.33000
6086109;-0.32500
6088887;-0.32500
6091665;-0.32500
6094443;-0.33500
6097221;-0.34000
6099998;-0.34000
6102776;-0.33000
6105554;-0.32500
6108332;-0.35000
6111109;-0.35500
6113887;-0.35500
6116665;-0.34500
6119443;-0.33000
6122221;-0.33500
6124998;-0.34000
6127776;-0.34000
6130554;-0.35000
6133332;-0.34000
6136109;-0.33500
6138887;-0.33000
6141665;-0.33500
6144443;-0.34500
6147221;-0.35000
6149998;-0.34000
6152776;-0.34000
6155554;-0.34000
6158332;-0.35000
6161109;-0.35500
6163887;-0.36000
6166665;-0.36000
6169443;-0.34500
6172220;-0.35000
6174998;-0.34500
6177776;-0.34500
6180554;-0.36000
6183332;-0.35500
6186109;-0.34500
6188887;-0.35500
6191665;-0.35500
6194443;-0.35500
6197220;-0.36000
6199998;-0.36000
6202776;-0.35500
6205554;-0.34500
6208332;-0.34500
6211109;-0.35500
6213887;-0.35500
6216665;-0.35000
6219443;-0.34000
6222220;-0.33500
6224998;-0.36000
6227776;-0.36500
6230554;-0.36000
6233332;-0.35500
6236109;-0.34500
6238887;-0.34500
6241665;-0.35500
6244443;-0.35500
6247220;-0.37000
6249998;-0.36000
6252776;-0.34500
6255554;-0.35000
6258332;-0.35500
6261109;-0.37500
6263887;-0.37500
6266665;-0.36000
6269443;-0.34500
6272220;-0.34500
6274998;-0.35500
6277776;-0.35000
6280554;-0.36500
6283332;-0.35500
6286109;-0.34000
6288887;-0.34500
6291665;-0.34000
6294443;-0.34500
6297220;-0.35000
6299998;-0.34000
6302776;-0.31500
6305554;-0.31500
6308332;-0.31500
6311109;-0.30000
6313887;-0.29500
6316665;-0.28500
6319443;-0.26500
6322220;-0.26000
6324998;-0.26500
6327776;-0.27000
6330554;-0.27000
6333332;-0.25500
6336109;-0.23000
6338887;-0.22500
6341665;-0.23000
6344443;-0.22500
6347220;-0.24500
6349998;-0.23500
6352776;-0.23500
6355554;-0.24500
6358332;-0.25000
6361109;-0.25000
6363887;-0.25000
6366665;-0.25500
6369443;-0.25500
6372220;-0.24500
6374998;-0.24000
6377776;-0.21500
6380554;-0.22500
6383332;-0.23500
6386109;-0.27000
6388887;-0.29500
6391665;-0.31000
6394443;-0.32500
6397220;-0.34500
6399998;-0.34000
6402776;-0.34500
6405554;-0.35500
6408332;-0.35500
6411109;-0.35500
6413887;-0.36500
6416665;-0.35500
6419443;-0.35000
6422220;-0.35000
6424998;-0.35500
6427776;-0.37000
6430554;-0.37500
6433332;-0.36000
6436109;-0.36500
6438887;-0.35500
6441665;-0.37000
6444443;-0.37000
6447220;-0.37500
6449998;-0.38000
6452776;-0.36500
6455554;-0.36500
6458332;-0.37000
6461109;-0.38000
6463887;-0.38500
6466665;-0.38000
6469443;-0.39500
6472220;-0.42500
6474998;-0.47000
6477776;-0.51000
6480554;-0.52500
6483332;-0.55500
6486109;-0.57500
6488887;-0.52500
6491665;-0.41500
6494443;-0.23000
6497220;-0.03000
6499998;0.21000
6502776;0.51000
6505554;0.78500
6508332;0.99500
6511109;1.13000
6513887;1.20000
6516665;1.19500
6519443;0.99500
6522220;0.54500
6524998;0.00500
6527776;-0.35500
6530554;-0.50000
6533332;-0.46000
6536109;-0.39500
6538887;-0.35500
6541665;-0.36500
6544443;-0.39000
6547220;-0.39500
6549998;-0.40000
6552776;-0.38500
6555554;-0.39000
6558331;-0.39500
6561109;-0.41500
6563887;-0.42000
6566665;-0.41500
6569443;-0.41500
6572220;-0.41000
6574998;-0.42000
6577776;-0.42000
6580554;-0.42500
6583331;-0.41000
6586109;-0.41000
6588887;-0.41500
6591665;-0.41500
6594443;-0.42500
6597220;-0.42500
6599998;-0.43000
6602776;-0.42000
6605554;-0.42000
6608331;-0.42000
6611109;-0.43000
6613887;-0.44000
6616665;-0.43000
6619443;-0.42000
6622220;-0.41500
6624998;-0.42000
6627776;-0.43000
6630554;-0.42500
6633331;-0.41000
6636109;-0.41500
6638887;-0.40500
6641665;-0.41000
6644443;-0.41000
6647220;-0.42000
6649998;-0.42000
6652776;-0.41000
6655554;-0.40500
6658331;-0.41500
6661109;-0.42000
6663887;-0.44000
6666665;-0.43000
6669443;-0.42000
6672220;-0.42000
6674998;-0.42500
6677776;-0.43000
6680554;-0.43500
6683331;-0.43500
6686109;-0.43500
6688887;-0.42500
6691665;-0.43000
6694443;-0.44500
6697220;-0.45000
6699998;-0.44000
6702776;-0.43000
6705554;-0.42500
6708331;-0.43000
6711109;-0.43500
6713887;-0.44500
6716665;-0.42500
6719443;-0.42500
6722220;-0.43000
6724998;-0.42500
6727776;-0.44500
6730554;-0.45000
6733331;-0.45000
6736109;-0.44000
6738887;-0.45000
6741665;-0.46000
6744443;-0.45500
6747220;-0.47000
6749998;-0.45500
6752776;-0.44500
6755554;-0.46000
6758331;-0.46000
6761109;-0.47500
6763887;-0.46500
6766665;-0.46000
6769443;-0.46500
6772220;-0.45500
6774998;-0.46000
6777776;-0.47000
6780554;-0.47500
6783331;-0.46000
6786109;-0.44500
6788887;-0.44000
6791665;-0.41500
6794443;-0.42000
6797220;-0.41000
6799998;-0.40000
6802776;-0.38500
6805554;-0.36500
6808331;-0.36500
6811109;-0.34500
6813887;-0.36500
6816665;-0.35500
6819443;-0.34000
6822220;-0.32500
6824998;-0.33000
6827776;-0.33500
6830554;-0.34500
6833331;-0.33000
6836109;-0.33000
6838887;-0.32500
6841665;-0.32000
6844443;-0.32500
6847220;-0.32500
6849998;-0.32000
6852776;-0.32000
6855554;-0.31500
6858331;-0.32000
6861109;-0.33000
6863887;-0.33500
6866665;-0.33500
6869443;-0.31000
6872220;-0.32000
6874998;-0.32500
6877776;-0.33000
6880554;-0.34000
6883331;-0.33000
6886109;-0.32500
6888887;-0.31500
6891665;-0.32000
6894443;-0.33000
6897220;-0.34500
6899998;-0.33500
6902776;-0.33000
6905554;-0.33500
6908331;-0.34000
6911109;-0.35000
6913887;-0.36000
6916665;-0.35500
6919443;-0.34000
6922220;-0.34500
6924998;-0.34500
6927776;-0.35500
6930554;-0.36000
6933331;-0.35500
6936109;-0.34500
6938887;-0.34500
6941665;-0.36000
6944442;-0.36500
6947220;-0.37500
6949998;-0.37000
6952776;-0.36000
6955554;-0.36000
6958331;-0.36000
6961109;-0.37000
6963887;-0.38500
6966665;-0.37500
6969442;-0.36500
6972220;-0.36000
6974998;-0.37000
6977776;-0.39500
6980554;-0.40000
6983331;-0.39000
6986109;-0.37500
6988887;-0.37500
6991665;-0.37500
6994442;-0.38000
6997220;-0.38500
6999998;-0.37000
7002776;-0.38500
7005554;-0.37000
7008331;-0.38000
7011109;-0.38000
7013887;-0.38500
7016665;-0.38500
7019442;-0.37000
7022220;-0.38500
7024998;-0.38500
7027776;-0.38500
7030554;-0.39500
7033331;-0.39000
7036109;-0.38500
7038887;-0.38000
7041665;-0.37500
7044442;-0.38500
7047220;-0.39500
7049998;-0.39000
7052776;-0.37500
7055554;-0.37000
7058331;-0.38000
7061109;-0.38000
7063887;-0.37500
7066665;-0.38000
7069442;-0.36500
7072220;-0.35500
7074998;-0.37000
7077776;-0.37000
7080554;-0.38500
7083331;-0.36000
7086109;-0.37000
7088887;-0.36500
7091665;-0.36500
7094442;-0.36000
7097220;-0.37000
7099998;-0.35500
7102776;-0.35500
7105554;-0.36000
7108331;-0.35000
7111109;-0.34000
7113887;-0.34000
7116665;-0.31000
7119442;-0.30000
7122220;-0.29500
7124998;-0.29500
7127776;-0.29500
7130554;-0.30500
7133331;-0.29000
7136109;-0.27000
7138887;-0.27000
7141665;-0.26000
7144442;-0.25500
7147220;-0.26000
7149998;-0.26000
7152776;-0.25000
7155554;-0.26000
7158331;-0.26500
7161109;-0.28000
7163887;-0.29000
7166665;-0.29000
7169442;-0.26500
7172220;-0.27500
7174998;-0.28500
7177776;-0.29500
7180554;-0.28500
7183331;-0.26000
7186109;-0.24000
7188887;-0.25000
7191665;-0.28500
7194442;-0.31000
7197220;-0.32500
7199998;-0.32500
7202776;-0.34000
7205554;-0.35500
7208331;-0.35500
7211109;-0.37500
7213887;-0.40500
7216665;-0.38000
7219442;-0.39000
7222220;-0.37500
7224998;-0.37500
7227776;-0.39500
7230554;-0.39500
7233331;-0.39000
7236109;-0.39500
7238887;-0.39500
7241665;-0.39500
7244442;-0.40500
7247220;-0.41000
7249998;-0.41000
7252776;-0.39500
7255554;-0.39500
7258331;-0.39500
7261109;-0.40500
7263887;-0.42000
7266665;-0.40000
7269442;-0.40500
7272220;-0.37500
7274998;-0.39500
7277776;-0.41000
7280554;-0.41000
7283331;-0.41500
7286109;-0.42000
7288887;-0.44000
7291665;-0.49500
7294442;-0.54000
7297220;-0.56000
7299998;-0.59000
7302776;-0.62000
7305554;-0.61500
7308331;-0.55000
7311109;-0.41500
7313887;-0.24500
7316665;-0.05000
7319442;0.18500
7322220;0.47000
7324998;0.75500
7327776;0.95000
7330554;1.01500
7333331;0.93500
7336109;0.63500
7338887;0.17500
7341665;-0.27500
7344442;-0.53000
7347220;-0.55000
7349998;-0.48500
7352776;-0.42500
7355553;-0.41000
7358331;-0.42500
7361109;-0.44000
7363887;-0.45000
7366665;-0.44500
7369442;-0.43500
7372220;-0.43000
7374998;-0.44000
7377776;-0.45000
7380553;-0.45500
7383331;-0.46500
7386109;-0.45500
7388887;-0.45000
7391665;-0.44500
7394442;-0.45500
7397220;-0.47000
7399998;-0.45500
7402776;-0.45000
7405553;-0.45000
7408331;-0.45000
7411109;-0.46000
7413887;-0.45500
7416665;-0.45500
7419442;-0.45500
7422220;-0.44500
7424998;-0.44500
7427776;-0.45500
7430553;-0.45500
7433331;-0.45500
7436109;-0.45000
7438887;-0.44000
7441665;-0.45500
7444442;-0.45000
7447220;-0.46000
7449998;-0.46500
7452776;-0.44500
7455553;-0.44000
7458331;-0.45000
7461109;-0.45000
7463887;-0.46500
7466665;-0.46500
7469442;-0.45500
7472220;-0.45500
7474998;-0.44500
7477776;-0.44500
7480553;-0.45500
7483331;-0.46000
7486109;-0.43500
7488887;-0.44000
7491665;-0.44000
7494442;-0.45000
7497220;-0.46000
7499998;-0.45000
7502776;-0.44000
7505553;-0.43000
7508331;-0.44000
7511109;-0.45000
7513887;-0.45500
7516665;-0.44500
7519442;-0.43500
7522220;-0.44000
7524998;-0.44000
7527776;-0.44000
7530553;-0.45500
7533331;-0.45000
7536109;-0.45500
7538887;-0.44000
7541665;-0.44500
7544442;-0.45000
7547220;-0.45500
7549998;-0.45000
7552776;-0.44000
7555553;-0.44500
7558331;-0.44500
7561109;-0.44500
7563887;-0.46000
7566665;-0.45500
7569442;-0.46500
7572220;-0.44000
7574998;-0.45500
7577776;-0.48000
7580553;-0.48500
7583331;-0.47500
7586109;-0.46000
7588887;-0.45500
7591665;-0.46500
7594442;-0.47500
7597220;-0.46500
7599998;-0.47000
7602776;-0.46000
7605553;-0.46500
7608331;-0.45500
7611109;-0.47000
7613887;-0.47000
7616665;-0.46500
7619442;-0.44000
7622220;-0.43500
7624998;-0.43000
7627776;-0.43000
7630553;-0.43000
7633331;-0.42000
7636109;-0.40000
7638887;-0.38500
7641665;-0.37500
7644442;-0.37000
7647220;-0.37500
7649998;-0.36000
7652776;-0.35000
7655553;-0.33500
7658331;-0.33500
7661109;-0.34000
7663887;-0.34500
7666665;-0.34000
7669442;-0.32500
7672220;-0.31000
7674998;-0.32500
7677776;-0.33500
7680553;-0.34000
7683331;-0.32000
7686109;-0.32000
7688887;-0.31500
7691665;-0.31500
7694442;-0.33000
7697220;-0.33000
7699998;-0.33000
7702776;-0.33000
7705553;-0.32000
7708331;-0.32500
7711109;-0.32500
7713887;-0.33500
7716665;-0.33000
7719442;-0.32000
7722220;-0.31500
7724998;-0.32500
7727776;-0.32500
7730553;-0.34000
7733331;-0.33500
7736109;-0.31500
7738887;-0.32500
7741664;-0.32500
7744442;-0.34000
7747220;-0.34500
7749998;-0.34000
7752776;-0.33500
7755553;-0.33000
7758331;-0.33500
7761109;-0.34000
7763887;-0.36000
7766664;-0.34500
7769442;-0.34500
7772220;-0.34000
7774998;-0.33000
7777776;-0.34500
7780553;-0.36000
7783331;-0.35000
7786109;-0.35500
7788887;-0.34500
7791664;-0.34500
7794442;-0.35500
7797220;-0.36000
7799998;-0.36500
7802776;-0.35000
7805553;-0.34500
7808331;-0.34500
7811109;-0.34500
7813887;-0.37500
7816664;-0.37000
7819442;-0.36000
7822220;-0.35500
7824998;-0.36500
7827776;-0.37500
7830553;-0.38000
7833331;-0.37500
7836109;-0.36500
7838887;-0.37000
7841664;-0.37000
7844442;-0.38000
7847220;-0.38500
7849998;-0.38000
7852776;-0.36000
7855553;-0.36000
7858331;-0.36500
7861109;-0.37000
7863887;-0.38500
7866664;-0.37500
7869442;-0.36000
7872220;-0.36000
7874998;-0.36000
7877776;-0.36500
7880553;-0.37500
7883331;-0.36500
7886109;-0.36500
7888887;-0.36500
7891664;-0.35500
7894442;-0.36500
7897220;-0.36500
7899998;-0.36500
7902776;-0.35000
7905553;-0.34500
7908331;-0.37000
7911109;-0.36000
7913887;-0.36000
7916664;-0.35500
7919442;-0.35000
7922220;-0.34500
7924998;-0.34500
7927776;-0.35000
7930553;-0.35500
7933331;-0.36000
7936109;-0.35500
7938887;-0.33500
7941664;-0.34000
7944442;-0.34500
7947220;-0.35000
7949998;-0.34500
7952776;-0.35000
7955553;-0.33500
7958331;-0.33000
7961109;-0.33000
7963887;-0.32000
7966664;-0.30000
7969442;-0.28500
7972220;-0.27000
7974998;-0.28000
7977776;-0.28500
7980553;-0.28000
7983331;-0.27000
7986109;-0.26000
7988887;-0.24500
7991664;-0.23500
7994442;-0.24000
7997220;-0.23500
7999998;-0.23500
8002776;-0.23000
8005553;-0.22500
8008331;-0.22500
8011109;-0.24000
8013887;-0.25500
8016664;-0.25000
8019442;-0.25000
8022220;-0.24500
8024998;-0.25000
8027776;-0.26000
8030553;-0.28500
8033331;-0.26500
8036109;-0.25500
8038887;-0.23000
8041664;-0.21000
8044442;-0.23000
8047220;-0.25500
8049998;-0.27500
8052776;-0.28500
8055553;-0.30000
8058331;-0.31500
8061109;-0.33500
8063887;-0.35500
8066664;-0.35500
8069442;-0.35000
8072220;-0.35000
8074998;-0.35500
8077776;-0.36000
8080553;-0.36500
8083331;-0.37000
8086109;-0.37000
8088887;-0.35500
8091664;-0.36000
8094442;-0.37500
8097220;-0.38500
8099998;-0.37500
8102776;-0.36500
8105553;-0.37500
8108331;-0.37000
8111109;-0.38000
8113887;-0.38500
8116664;-0.37000
8119442;-0.37500
8122220;-0.36500
8124998;-0.36000
8127776;-0.37500
8130553;-0.39000
8133331;-0.38500
8136109;-0.38000
8138887;-0.37500
8141664;-0.40000
8144442;-0.44000
8147220;-0.48500
8149998;-0.50500
8152775;-0.54000
8155553;-0.58000
8158331;-0.60500
8161109;-0.58000
8163887;-0.49000
8166664;-0.32500
8169442;-0.17500
8172220;0.01500
8174998;0.26500
8177775;0.53000
8180553;0.74500
8183331;0.88500
8186109;0.92500
8188887;0.80000
8191664;0.49500
8194442;0.09000
8197220;-0.26000
8199998;-0.47000
8202775;-0.52500
8205553;-0.50000
8208331;-0.46000
8211109;-0.42500
8213887;-0.41500
8216664;-0.42000
8219442;-0.40500
8222220;-0.41000
8224998;-0.42000
8227775;-0.42500
8230553;-0.43000
8233331;-0.41500
8236109;-0.41000
8238887;-0.40000
8241664;-0.40000
8244442;-0.42000
8247220;-0.42000
8249998;-0.41500
8252775;-0.41500
8255553;-0.41000
8258331;-0.41000
8261109;-0.42000
8263887;-0.43000
8266664;-0.42000
8269442;-0.40500
8272220;-0.40500
8274998;-0.40000
8277775;-0.41500
8280553;-0.43000
8283331;-0.42500
8286109;-0.43500
8288887;-0.42500
8291664;-0.43000
8294442;-0.43500
8297220;-0.42500
8299998;-0.42500
8302775;-0.41000
8305553;-0.40500
8308331;-0.41000
8311109;-0.41500
8313887;-0.42500
8316664;-0.42000
8319442;-0.41500
8322220;-0.40500
8324998;-0.40500
8327775;-0.42000
8330553;-0.42500
8333331;-0.43000
8336109;-0.42000
8338887;-0.42000
8341664;-0.42500
8344442;-0.43000
8347220;-0.43500
8349998;-0.43500
8352775;-0.42000
8355553;-0.41000
8358331;-0.41000
8361109;-0.42000
8363887;-0.43000
8366664;-0.42500
8369442;-0.42000
8372220;-0.41000
8374998;-0.41000
8377775;-0.42000
8380553;-0.42500
8383331;-0.43000
8386109;-0.44000
8388887;-0.41500
8391664;-0.41000
8394442;-0.41500
8397220;-0.41500
8399998;-0.42000
8402775;-0.41500
8405553;-0.41000
8408331;-0.43000
8411109;-0.42500
8413887;-0.43500
8416664;-0.43000
8419442;-0.43500
8422220;-0.42500
8424998;-0.43000
8427775;-0.43500
8430553;-0.45000
8433331;-0.45000
8436109;-0.44500
8438887;-0.44000
8441664;-0.45000
8444442;-0.46500
8447220;-0.46500
8449998;-0.48000
8452775;-0.46000
8455553;-0.45500
8458331;-0.47000
8461109;-0.47500
8463887;-0.48500
8466664;-0.48000
8469442;-0.46000
8472220;-0.45500
8474998;-0.45500
8477775;-0.46000
8480553;-0.45500
8483331;-0.44000
8486109;-0.41500
8488887;-0.40000
8491664;-0.39500
8494442;-0.40500
8497220;-0.39500
8499998;-0.37000
8502775;-0.35500
8505553;-0.33500
8508331;-0.34000
8511109;-0.33500
8513887;-0.35500
8516664;-0.35500
8519442;-0.34500
8522220;-0.33500
8524998;-0.35000
8527775;-0.35000
8530553;-0.34000
8533331;-0.34000
8536109;-0.32500
8538886;-0.32500
8541664;-0.33000
8544442;-0.32000
8547220;-0.33500
8549998;-0.33500
8552775;-0.33000
8555553;-0.33000
8558331;-0.34000
8561109;-0.35000
8563886;-0.36000
8566664;-0.35000
8569442;-0.33500
8572220;-0.33500
8574998;-0.33000
8577775;-0.33500
8580553;-0.34500
8583331;-0.32500
8586109;-0.32500
8588886;-0.33000
8591664;-0.33500
8594442;-0.34500
8597220;-0.34500
8599998;-0.34500
8602775;-0.34500
8605553;-0.36000
8608331;-0.36000
8611109;-0.36500
8613886;-0.37000
8616664;-0.35500
8619442;-0.35500
8622220;-0.35000
8624998;-0.36000
8627775;-0.37000
8630553;-0.39000
8633331;-0.37000
8636109;-0.37000
8638886;-0.35500
8641664;-0.35500
8644442;-0.37000
8647220;-0.38000
8649998;-0.37500
8652775;-0.37000
8655553;-0.38000
8658331;-0.38000
8661109;-0.38000
8663886;-0.38000
8666664;-0.38000
8669442;-0.37000
8672220;-0.37000
8674998;-0.38500
8677775;-0.38500
8680553;-0.40000
8683331;-0.37500
8686109;-0.37500
8688886;-0.37000
8691664;-0.38500
8694442;-0.38000
8697220;-0.39000
8699998;-0.37000
8702775;-0.36000
8705553;-0.37000
8708331;-0.37500
8711109;-0.38500
8713886;-0.39500
8716664;-0.38000
8719442;-0.36000
8722220;-0.37500
8724998;-0.38500
8727775;-0.37000
8730553;-0.38000
8733331;-0.37000
8736109;-0.38000
8738886;-0.38500
8741664;-0.38000
8744442;-0.38000
8747220;-0.38500
8749998;-0.38000
8752775;-0.37500
8755553;-0.35500
8758331;-0.37000
8761109;-0.37500
8763886;-0.39500
8766664;-0.38500
8769442;-0.37500
8772220;-0.36500
8774998;-0.35500
8777775;-0.37000
8780553;-0.37000
8783331;-0.36500
8786109;-0.35500
8788886;-0.32500
8791664;-0.33500
8794442;-0.33500
8797220;-0.32000
8799998;-0.33000
8802775;-0.31500
8805553;-0.30500
8808331;-0.31000
8811109;-0.30500
8813886;-0.28500
8816664;-0.27000
8819442;-0.25500
8822220;-0.25500
8824998;-0.27500
8827775;-0.28500
8830553;-0.28500
8833331;-0.29500
8836109;-0.28500
8838886;-0.28000
8841664;-0.28000
8844442;-0.29000
8847220;-0.31500
8849998;-0.33000
8852775;-0.34000
8855553;-0.32000
8858331;-0.29000
8861109;-0.26000
8863886;-0.25000
8866664;-0.24500
8869442;-0.24500
8872220;-0.28500
8874998;-0.31000
8877775;-0.34500
8880553;-0.38000
8883331;-0.38500
8886109;-0.38500
8888886;-0.38500
8891664;-0.39000
8894442;-0.40000
8897220;-0.41000
8899998;-0.41000
8902775;-0.40500
8905553;-0.39500
8908331;-0.40500
8911109;-0.42000
8913886;-0.42000
8916664;-0.40500
8919442;-0.40000
8922220;-0.38500
8924998;-0.41000
8927775;-0.40000
8930553;-0.41000
8933331;-0.41000
8936109;-0.41000
8938886;-0.41500
8941664;-0.40500
8944442;-0.42500
8947220;-0.44000
8949997;-0.43500
8952775;-0.42000
8955553;-0.42500
8958331;-0.46000
8961109;-0.48500
8963886;-0.52500
8966664;-0.54000
8969442;-0.56000
8972220;-0.59000
8974997;-0.63000
8977775;-0.61000
8980553;-0.54500
8983331;-0.42500
8986109;-0.32000
8988886;-0.24500
8991664;-0.16000
8994442;-0.03500
8997220;0.10500
8999997;0.32000
9002775;0.55500
9005553;0.75500
9008331;0.89000
9011109;0.96500
9013886;0.91500
9016664;0.70500
9019442;0.32000
9022220;-0.07000
9024997;-0.38000
9027775;-0.52500
9030553;-0.56000
9033331;-0.52500
9036109;-0.47500
9038886;-0.44500
9041664;-0.44500
9044442;-0.46000
9047220;-0.47000
9049997;-0.46500
9052775;-0.44000
9055553;-0.43500
9058331;-0.45000
9061109;-0.46000
9063886;-0.46000
9066664;-0.47000
9069442;-0.45500
9072220;-0.45500
9074997;-0.45500
9077775;-0.46500
9080553;-0.47500
9083331;-0.46000
9086109;-0.45500
9088886;-0.44000
9091664;-0.45000
9094442;-0.45000
9097220;-0.47000
9099997;-0.45500
9102775;-0.45500
9105553;-0.45500
9108331;-0.46000
9111109;-0.48000
9113886;-0.47500
9116664;-0.47500
9119442;-0.46000
9122220;-0.46000
9124997;-0.46000
9127775;-0.47000
9130553;-0.47500
9133331;-0.47000
9136109;-0.45000
9138886;-0.45500
9141664;-0.45500
9144442;-0.45500
9147220;-0.46500
9149997;-0.45500
9152775;-0.46500
9155553;-0.47000
9158331;-0.48000
9161109;-0.48500
9163886;-0.47000
9166664;-0.46000
9169442;-0.46500
9172220;-0.46000
9174997;-0.46000
9177775;-0.47000
9180553;-0.48000
9183331;-0.46500
9186109;-0.46500
9188886;-0.46000
9191664;-0.46500
9194442;-0.48000
9197220;-0.48000
9199997;-0.47500
9202775;-0.46500
9205553;-0.46000
9208331;-0.46500
9211109;-0.47500
9213886;-0.48500
9216664;-0.49000
9219442;-0.47500
9222220;-0.46500
9224997;-0.47500
9227775;-0.48000
9230553;-0.49000
9233331;-0.48000
9236109;-0.47500
9238886;-0.48500
9241664;-0.47500
9244442;-0.48500
9247220;-0.51000
9249997;-0.51500
9252775;-0.50500
9255553;-0.50000
9258331;-0.51000
9261109;-0.53000
9263886;-0.54000
9266664;-0.54500
9269442;-0.54000
9272220;-0.52500
9274997;-0.53000
9277775;-0.53000
9280553;-0.55000
9283331;-0.55500
9286109;-0.53500
9288886;-0.53000
9291664;-0.52500
9294442;-0.53000
9297220;-0.53500
9299997;-0.52000
9302775;-0.50500
9305553;-0.47000
9308331;-0.47000
9311109;-0.46000
9313886;-0.45500
9316664;-0.43000
9319442;-0.41500
9322220;-0.40000
9324997;-0.39500
9327775;-0.39500
9330553;-0.39000
9333331;-0.37500
9336108;-0.36500
9338886;-0.35500
9341664;-0.35000
9344442;-0.37000
9347220;-0.36500
9349997;-0.36500
9352775;-0.35000
9355553;-0.34000
9358331;-0.34000
9361108;-0.35000
9363886;-0.36000
9366664;-0.35500
9369442;-0.34500
9372220;-0.33000
9374997;-0.33000
9377775;-0.34000
9380553;-0.35000
9383331;-0.34500
9386108;-0.34000
9388886;-0.32500
9391664;-0.33000
9394442;-0.34000
9397220;-0.35000
9399997;-0.35500
9402775;-0.35000
9405553;-0.33500
9408331;-0.33500
9411108;-0.34500
9413886;-0.36500
9416664;-0.35000
9419442;-0.34000
9422220;-0.34000
9424997;-0.34000
9427775;-0.35000
9430553;-0.36000
9433331;-0.37000
9436108;-0.35500
9438886;-0.34500
9441664;-0.34500
9444442;-0.36000
9447220;-0.39000
9449997;-0.37000
9452775;-0.37000
9455553;-0.35500
9458331;-0.35500
9461108;-0.36500
9463886;-0.37000
9466664;-0.37000
9469442;-0.37000
9472220;-0.36500
9474997;-0.36500
9477775;-0.37000
9480553;-0.37500
9483331;-0.38000
9486108;-0.36000
9488886;-0.35500
9491664;-0.36000
9494442;-0.37000
9497220;-0.38000
9499997;-0.38500
9502775;-0.37000
9505553;-0.36500
9508331;-0.37000
9511108;-0.37000
9513886;-0.38000
9516664;-0.37000
9519442;-0.36500
9522220;-0.36000
9524997;-0.37000
9527775;-0.37500
9530553;-0.38000
9533331;-0.37000
9536108;-0.36500
9538886;-0.35500
9541664;-0.35500
9544442;-0.36000
9547220;-0.37000
9549997;-0.36000
9552775;-0.35500
9555553;-0.35000
9558331;-0.36000
9561108;-0.36500
9563886;-0.36500
9566664;-0.36000
9569442;-0.35000
9572220;-0.36000
9574997;-0.35500
9577775;-0.36000
9580553;-0.37000
9583331;-0.37000
9586108;-0.36000
9588886;-0.35000
9591664;-0.36000
9594442;-0.36000
9597220;-0.37000
9599997;-0.37000
9602775;-0.36000
9605553;-0.35000
9608331;-0.34000
9611108;-0.34500
9613886;-0.35000
9616664;-0.34500
9619442;-0.31000
9622220;-0.29000
9624997;-0.28500
9627775;-0.28500
9630553;-0.29000
9633331;-0.29000
9636108;-0.29000
9638886;-0.27000
9641664;-0.26000
9644442;-0.25500
9647220;-0.25500
9649997;-0.25000
9652775;-0.23500
9655553;-0.24000
9658331;-0.25000
9661108;-0.26500
9663886;-0.27000
9666664;-0.27500
9669442;-0.26500
9672220;-0.26000
9674997;-0.26500
9677775;-0.29000
9680553;-0.29000
9683331;-0.28000
9686108;-0.26000
9688886;-0.22500
9691664;-0.22500
9694442;-0.26500
9697220;-0.30500
9699997;-0.31000
9702775;-0.31000
9705553;-0.31500
9708331;-0.33000
9711108;-0.34500
9713886;-0.35500
9716664;-0.36500
9719442;-0.36500
9722220;-0.36500
9724997;-0.37500
9727775;-0.37000
9730553;-0.38500
9733331;-0.39000
9736108;-0.38000
9738886;-0.37500
9741664;-0.37500
9744442;-0.38500
9747219;-0.40000
9749997;-0.40000
9752775;-0.38500
9755553;-0.38500
9758331;-0.37500
9761108;-0.38500
9763886;-0.40000
9766664;-0.39000
9769442;-0.38000
9772219;-0.37500
9774997;-0.38000
9777775;-0.40500
9780553;-0.41000
9783331;-0.43500
9786108;-0.47000
9788886;-0.50500
9791664;-0.52500
9794442;-0.55500
9797219;-0.60500
9799997;-0.62500
9802775;-0.56500
9805553;-0.44000
9808331;-0.24500
9811108;-0.06000
9813886;0.14500
9816664;0.43000
9819442;0.72500
9822219;0.97000
9824997;1.11500
9827775;1.13000
9830553;0.93000
9833331;0.52500
9836108;0.05000
9838886;-0.32000
9841664;-0.49500
9844442;-0.52500
9847219;-0.48000
9849997;-0.43500
9852775;-0.39000
9855553;-0.38000
9858331;-0.38500
9861108;-0.40000
9863886;-0.42000
9866664;-0.43000
9869442;-0.42000
9872219;-0.42000
9874997;-0.41500
9877775;-0.43500
9880553;-0.44000
9883331;-0.44000
9886108;-0.43500
9888886;-0.43000
9891664;-0.43000
9894442;-0.44000
9897219;-0.44000
9899997;-0.44500
9902775;-0.43500
9905553;-0.44500
9908331;-0.43500
9911108;-0.44500
9913886;-0.44500
9916664;-0.43500
9919442;-0.43000
9922219;-0.43000
9924997;-0.43000
9927775;-0.45000
9930553;-0.45500
9933331;-0.45000
9936108;-0.43500
9938886;-0.42500
9941664;-0.44000
9944442;-0.44000
9947219;-0.44000
9949997;-0.44500
9952775;-0.42500
9955553;-0.42500
9958331;-0.42500
9961108;-0.43500
9963886;-0.44000
9966664;-0.45000
9969442;-0.42000
9972219;-0.42000
9974997;-0.42500
9977775;-0.43000
9980553;-0.43500
9983331;-0.44500
9986108;-0.43000
9988886;-0.42500
9991664;-0.42500
9994442;-0.43000
9997219;-0.44000
9999997;-0.43500
10002775;-0.42500
10005553;-0.42000
10008331;-0.41500
10011108;-0.42500
10013886;-0.44500
10016664;-0.43500
10019442;-0.43000
10022219;-0.41000
10024997;-0.43000
10027775;-0.42500
10030553;-0.44000
10033331;-0.44500
10036108;-0.43500
10038886;-0.43000
10041664;-0.43000
10044442;-0.44000
10047219;-0.44500
10049997;-0.44500
10052775;-0.43500
10055553;-0.44000
10058331;-0.44000
10061108;-0.45000
10063886;-0.46000
10066664;-0.46500
10069442;-0.46000
10072219;-0.45000
10074997;-0.46500
10077775;-0.47000
10080553;-0.47000
10083331;-0.46500
10086108;-0.46500
10088886;-0.45500
10091664;-0.45500
10094442;-0.46500
10097219;-0.47500
10099997;-0.47500
10102775;-0.47000
10105553;-0.45500
10108331;-0.45500
10111108;-0.45500
10113886;-0.45500
10116664;-0.44500
10119442;-0.42500
10122219;-0.41500
10124997;-0.41000
10127775;-0.40500
10130553;-0.41000
10133330;-0.38500
10136108;-0.37500
10138886;-0.37500
10141664;-0.37500
10144442;-0.36000
10147219;-0.37000
10149997;-0.36000
10152775;-0.34500
10155553;-0.32500
10158330;-0.33500
10161108;-0.32500
10163886;-0.33000
10166664;-0.32000
10169442;-0.31000
10172219;-0.30000
10174997;-0.30000
10177775;-0.30000
10180553;-0.31500
10183330;-0.32500
10186108;-0.31500
10188886;-0.31000
10191664;-0.31000
10194442;-0.32500
10197219;-0.32000
10199997;-0.31000
10202775;-0.30000
10205553;-0.29500
10208330;-0.30500
10211108;-0.31000
10213886;-0.32500
10216664;-0.31000
10219442;-0.31500
10222219;-0.30500
10224997;-0.30500
10227775;-0.30500
10230553;-0.32000
10233330;-0.32500
10236108;-0.31500
10238886;-0.31500
10241664;-0.32000
10244442;-0.32500
10247219;-0.34000
10249997;-0.33500
10252775;-0.33000
10255553;-0.32500
10258330;-0.32000
10261108;-0.33000
10263886;-0.35000
10266664;-0.34000
10269442;-0.34000
10272219;-0.32500
10274997;-0.32000
10277775;-0.32500
10280553;-0.35000
10283330;-0.35000
10286108;-0.34500
10288886;-0.33500
10291664;-0.34000
10294442;-0.36000
10297219;-0.36000
10299997;-0.36000
10302775;-0.36000
10305553;-0.35500
10308330;-0.35500
10311108;-0.35500
10313886;-0.37000
10316664;-0.36000
10319442;-0.35000
10322219;-0.35000
10324997;-0.35000
10327775;-0.35500
10330553;-0.38500
10333330;-0.36500
10336108;-0.36000
10338886;-0.35500
10341664;-0.35500
10344442;-0.36500
10347219;-0.37000
10349997;-0.37000
10352775;-0.36500
10355553;-0.36000
10358330;-0.36000
10361108;-0.35500
10363886;-0.36000
10366664;-0.36000
10369442;-0.34500
10372219;-0.35000
10374997;-0.34000
10377775;-0.35000
10380553;-0.36000
10383330;-0.35000
10386108;-0.34500
10388886;-0.34000
10391664;-0.32500
10394442;-0.35000
10397219;-0.35500
10399997;-0.34500
10402775;-0.34500
10405553;-0.33000
10408330;-0.33500
10411108;-0.34000
10413886;-0.34500
10416664;-0.34000
10419442;-0.33500
10422219;-0.33000
10424997;-0.32500
10427775;-0.33000
10430553;-0.34000
10433330;-0.33500
10436108;-0.31000
10438886;-0.29500
10441664;-0.28000
10444442;-0.28500
10447219;-0.28500
10449997;-0.27000
10452775;-0.26500
10455553;-0.24500
10458330;-0.23500
10461108;-0.24500
10463886;-0.24500
10466664;-0.22500
10469442;-0.22000
10472219;-0.20000
10474997;-0.21500
10477775;-0.22000
10480553;-0.24000
10483330;-0.24000
10486108;-0.25000
10488886;-0.24000
10491664;-0.25500
10494442;-0.26500
10497219;-0.27000
10499997;-0.26500
10502775;-0.25500
10505553;-0.22500
10508330;-0.20000
10511108;-0.19500
10513886;-0.23500
10516664;-0.26500
10519441;-0.28000
10522219;-0.28500
10524997;-0.29500
10527775;-0.32500
10530553;-0.33500
10533330;-0.33500
10536108;-0.33500
10538886;-0.34000
10541664;-0.34500
10544441;-0.34500
10547219;-0.35500
10549997;-0.35000
10552775;-0.35500
10555553;-0.35000
10558330;-0.35000
10561108;-0.36500
10563886;-0.36500
10566664;-0.37000
10569441;-0.36500
10572219;-0.36000
10574997;-0.36000
10577775;-0.36000
10580553;-0.37500
10583330;-0.36500
10586108;-0.36500
10588886;-0.37000
10591664;-0.35000
10594441;-0.37500
10597219;-0.37500
10599997;-0.37000
10602775;-0.36500
10605553;-0.38500
10608330;-0.43000
10611108;-0.48500
10613886;-0.50500
10616664;-0.52000
10619441;-0.54000
10622219;-0.58000
10624997;-0.59500
10627775;-0.54500
10630553;-0.42500
10633330;-0.25500
10636108;-0.07000
10638886;0.13000
10641664;0.40000
10644441;0.69000
10647219;0.91000
10649997;1.04500
10652775;1.06000
10655553;0.87500
10658330;0.49500
10661108;0.01000
10663886;-0.35500
10666664;-0.49500
10669441;-0.47000
10672219;-0.41000
10674997;-0.36500
10677775;-0.37500
10680553;-0.38500
10683330;-0.38500
10686108;-0.37500
10688886;-0.36500
10691664;-0.37500
10694441;-0.38500
10697219;-0.40500
10699997;-0.39500
10702775;-0.39000
10705553;-0.39000
10708330;-0.39000
10711108;-0.39000
10713886;-0.40500
10716664;-0.40000
10719441;-0.38500
10722219;-0.39500
10724997;-0.39000
10727775;-0.39000
10730553;-0.39500
10733330;-0.40000
10736108;-0.39500
10738886;-0.38000
10741664;-0.39000
10744441;-0.39000
10747219;-0.41500
10749997;-0.39500
10752775;-0.39000
10755553;-0.39000
10758330;-0.38500
10761108;-0.40000
10763886;-0.41000
10766664;-0.41000
10769441;-0.39500
10772219;-0.39500
10774997;-0.38500
10777775;-0.39000
10780553;-0.39500
10783330;-0.39000
10786108;-0.38000
10788886;-0.38500
10791664;-0.38000
10794441;-0.40000
10797219;-0.41000
10799997;-0.39000
10802775;-0.38000
10805553;-0.38500
10808330;-0.38000
10811108;-0.37500
10813886;-0.38000
10816664;-0.39500
10819441;-0.38000
10822219;-0.38000
10824997;-0.37500
10827775;-0.38500
10830553;-0.40000
10833330;-0.39500
10836108;-0.38500
10838886;-0.37500
10841664;-0.37500
10844441;-0.38500
10847219;-0.39500
10849997;-0.38500
10852775;-0.38500
10855553;-0.37000
10858330;-0.38000
10861108;-0.38500
10863886;-0.39500
10866664;-0.39500
10869441;-0.39000
10872219;-0.37500
10874997;-0.38000
10877775;-0.39000
10880553;-0.40500
10883330;-0.40500
10886108;-0.41000
10888886;-0.40000
10891664;-0.40000
10894441;-0.40500
10897219;-0.42000
10899997;-0.41000
10902775;-0.40500
10905553;-0.39500
10908330;-0.39000
10911108;-0.40000
10913886;-0.41000
10916664;-0.40000
10919441;-0.40500
10922219;-0.40000
10924997;-0.39500
10927775;-0.38500
10930552;-0.39500
10933330;-0.39000
10936108;-0.38500
10938886;-0.38000
10941664;-0.36500
10944441;-0.37000
10947219;-0.38500
10949997;-0.37000
10952775;-0.35500
10955552;-0.34000
10958330;-0.33000
10961108;-0.33000
10963886;-0.33500
10966664;-0.33000
10969441;-0.29500
10972219;-0.29000
10974997;-0.28500
10977775;-0.30500
10980552;-0.31000
10983330;-0.30000
10986108;-0.27500
10988886;-0.27000
10991664;-0.26500
10994441;-0.28000
10997219;-0.28500
10999997;-0.27500
11002775;-0.27500
11005552;-0.26500
11008330;-0.27000
11011108;-0.28500
11013886;-0.30000
11016664;-0.30000
11019441;-0.28500
11022219;-0.27500
11024997;-0.28500
11027775;-0.28500
11030552;-0.31000
11033330;-0.30000
11036108;-0.29000
11038886;-0.28500
11041664;-0.29500
11044441;-0.29000
11047219;-0.30500
11049997;-0.31000
11052775;-0.30000
11055552;-0.30000
11058330;-0.29500
11061108;-0.29500
11063886;-0.31500
11066664;-0.31000
11069441;-0.30500
11072219;-0.30500
11074997;-0.29500
11077775;-0.31000
11080552;-0.31500
11083330;-0.32000
11086108;-0.32000
11088886;-0.30500
11091664;-0.30500
11094441;-0.31500
11097219;-0.33000
11099997;-0.32000
11102775;-0.32000
11105552;-0.31500
11108330;-0.33000
11111108;-0.33500
11113886;-0.34000
11116664;-0.33500
11119441;-0.33000
11122219;-0.32500
11124997;-0.33000
11127775;-0.33500
11130552;-0.35000
11133330;-0.34500
11136108;-0.34000
11138886;-0.34000
11141664;-0.34500
11144441;-0.35000
11147219;-0.35500
11149997;-0.35500
11152775;-0.34000
11155552;-0.33500
11158330;-0.32000
11161108;-0.32500
11163886;-0.33500
11166664;-0.33500
11169441;-0.34000
11172219;-0.32500
11174997;-0.33000
11177775;-0.33500
11180552;-0.34000
11183330;-0.35000
11186108;-0.33500
11188886;-0.33000
11191664;-0.33500
11194441;-0.33500
11197219;-0.35500
11199997;-0.35000
11202775;-0.33000
11205552;-0.33500
11208330;-0.33500
11211108;-0.34000
11213886;-0.34500
11216664;-0.33500
11219441;-0.32500
11222219;-0.32000
11224997;-0.31000
11227775;-0.32000
11230552;-0.32500
11233330;-0.31000
11236108;-0.28000
11238886;-0.26000
11241664;-0.25500
11244441;-0.26000
11247219;-0.26500
11249997;-0.25500
11252775;-0.24500
11255552;-0.23500
11258330;-0.23500
11261108;-0.22500
11263886;-0.24000
11266664;-0.21500
11269441;-0.19500
11272219;-0.20500
11274997;-0.21000
11277775;-0.22000
11280552;-0.24500
11283330;-0.24500
11286108;-0.23000
11288886;-0.22500
11291664;-0.22000
11294441;-0.24500
11297219;-0.25500
11299997;-0.24000
11302775;-0.19500
11305552;-0.18000
11308330;-0.21000
11311108;-0.25500
11313886;-0.28500
11316663;-0.30000
11319441;-0.30000
11322219;-0.29000
11324997;-0.32000
11327775;-0.32500
11330552;-0.34000
11333330;-0.34500
11336108;-0.35500
11338886;-0.33500
11341663;-0.33000
11344441;-0.33500
11347219;-0.36000
11349997;-0.36000
11352775;-0.36500
11355552;-0.35500
11358330;-0.35500
11361108;-0.36000
11363886;-0.37000
11366663;-0.36000
11369441;-0.35000
11372219;-0.34000
11374997;-0.35000
11377775;-0.35500
11380552;-0.35500
11383330;-0.34000
11386108;-0.34000
11388886;-0.33500
11391663;-0.34500
11394441;-0.35500
11397219;-0.37000
11399997;-0.36500
11402775;-0.39500
11405552;-0.41500
11408330;-0.46500
11411108;-0.49500
11413886;-0.55500
11416663;-0.59500
11419441;-0.60500
11422219;-0.53000
11424997;-0.38500
11427775;-0.23000
11430552;-0.06500
11433330;0.17500
11436108;0.48500
11438886;0.75000
11441663;0.92500
11444441;0.96500
11447219;0.82000
11449997;0.45000
11452775;0.01000
11455552;-0.32500
11458330;-0.48500
11461108;-0.50000
11463886;-0.45000
11466663;-0.40500
11469441;-0.39500
11472219;-0.40500
11474997;-0.41500
11477775;-0.41000
11480552;-0.41500
11483330;-0.41000
11486108;-0.41500
11488886;-0.40000
11491663;-0.40500
11494441;-0.40500
11497219;-0.42000
11499997;-0.40500
11502775;-0.40000
11505552;-0.39000
11508330;-0.40000
11511108;-0.41000
11513886;-0.41500
11516663;-0.41500
11519441;-0.41500
11522219;-0.41000
11524997;-0.41500
11527775;-0.41500
11530552;-0.40500
11533330;-0.41500
11536108;-0.42000
11538886;-0.41500
11541663;-0.41000
11544441;-0.41000
11547219;-0.42500
11549997;-0.41500
11552775;-0.40500
11555552;-0.40500
11558330;-0.40000
11561108;-0.40500
11563886;-0.41000
11566663;-0.41500
11569441;-0.40000
11572219;-0.39000
11574997;-0.39000
11577775;-0.40500
11580552;-0.42000
11583330;-0.41500
11586108;-0.40500
11588886;-0.39000
11591663;-0.41000
11594441;-0.42500
11597219;-0.42500
11599997;-0.42500
11602775;-0.40500
11605552;-0.40000
11608330;-0.39500
11611108;-0.40000
11613886;-0.42000
11616663;-0.42000
11619441;-0.42000
11622219;-0.41000
11624997;-0.41500
11627775;-0.42000
11630552;-0.42500
11633330;-0.41500
11636108;-0.41000
11638886;-0.41000
11641663;-0.42500
11644441;-0.41500
11647219;-0.43000
11649997;-0.43000
11652775;-0.41500
11655552;-0.42500
11658330;-0.42500
11661108;-0.42000
11663886;-0.44500
11666663;-0.43500
11669441;-0.44000
11672219;-0.43000
11674997;-0.43000
11677775;-0.44500
11680552;-0.45500
11683330;-0.45000
11686108;-0.44000
11688886;-0.43500
11691663;-0.43000
11694441;-0.45500
11697219;-0.45000
11699997;-0.45000
11702775;-0.44000
11705552;-0.43000
11708330;-0.43500
11711108;-0.45500
11713886;-0.47000
11716663;-0.46000
11719441;-0.44000
11722219;-0.42500
11724997;-0.42500
11727774;-0.43000
11730552;-0.43000
11733330;-0.43000
11736108;-0.39500
11738886;-0.38000
11741663;-0.37000
11744441;-0.36500
11747219;-0.37000
11749997;-0.35500
11752774;-0.34500
11755552;-0.33000
11758330;-0.32500
11761108;-0.31000
11763886;-0.34000
11766663;-0.33000
11769441;-0.32000
11772219;-0.30500
11774997;-0.30000
11777774;-0.29500
11780552;-0.31500
11783330;-0.31500
11786108;-0.31000
11788886;-0.30500
11791663;-0.30000
11794441;-0.31000
11797219;-0.32500
11799997;-0.33000
11802774;-0.31500
11805552;-0.31000
11808330;-0.33500
11811108;-0.33000
11813886;-0.34500
11816663;-0.34000
11819441;-0.33500
11822219;-0.32000
11824997;-0.32000
11827774;-0.33000
11830552;-0.33500
11833330;-0.33500
11836108;-0.32500
11838886;-0.32500
11841663;-0.34500
11844441;-0.35000
11847219;-0.35000
11849997;-0.34000
11852774;-0.35500
11855552;-0.35000
11858330;-0.35000
11861108;-0.35000
11863886;-0.36000
11866663;-0.35500
11869441;-0.36000
11872219;-0.35000
11874997;-0.35500
11877774;-0.35500
11880552;-0.37000
11883330;-0.36500
11886108;-0.36500
11888886;-0.37000
11891663;-0.37000
11894441;-0.37500
11897219;-0.38000
11899997;-0.38000
11902774;-0.38500
11905552;-0.37500
11908330;-0.37500
11911108;-0.38000
11913886;-0.39500
11916663;-0.38500
11919441;-0.37000
11922219;-0.37500
11924997;-0.37000
11927774;-0.39000
11930552;-0.39000
11933330;-0.38500
11936108;-0.37500
11938886;-0.38000
11941663;-0.36000
11944441;-0.37500
11947219;-0.37500
11949997;-0.37000
11952774;-0.36500
11955552;-0.35500
11958330;-0.35000
11961108;-0.36500
11963886;-0.38000
11966663;-0.37500
11969441;-0.36500
11972219;-0.35500
11974997;-0.36000
11977774;-0.36000
11980552;-0.36500
11983330;-0.37000
11986108;-0.36500
11988886;-0.35500
11991663;-0.37000
11994441;-0.37500
11997219;-0.39000
11999997;-0.39500
12002774;-0.39000
12005552;-0.36000
12008330;-0.34500
12011108;-0.33500
12013886;-0.32500
12016663;-0.33000
12019441;-0.33000
12022219;-0.31500
12024997;-0.31000
12027774;-0.30500
12030552;-0.31000
12033330;-0.29000
12036108;-0.28000
12038886;-0.26500
12041663;-0.25500
12044441;-0.25500
12047219;-0.28000
12049997;-0.27000
12052774;-0.27500
12055552;-0.28500
12058330;-0.28500
12061108;-0.27500
12063886;-0.28500
12066663;-0.28500
12069441;-0.29500
12072219;-0.30000
12074997;-0.28500
12077774;-0.27000
12080552;-0.27000
12083330;-0.29500
12086108;-0.31500
12088886;-0.32500
12091663;-0.34000
12094441;-0.36000
12097219;-0.39000
12099997;-0.41500
12102774;-0.41000
12105552;-0.40000
12108330;-0.39000
12111108;-0.39500
12113885;-0.41500
12116663;-0.40500
12119441;-0.40500
12122219;-0.38000
12124997;-0.39000
12127774;-0.41000
12130552;-0.41500
12133330;-0.42500
12136108;-0.41000
12138885;-0.40500
12141663;-0.39500
12144441;-0.40000
12147219;-0.40000
12149997;-0.40000
12152774;-0.39000
12155552;-0.38500
12158330;-0.39500
12161108;-0.40000
12163885;-0.41500
12166663;-0.42500
12169441;-0.43000
12172219;-0.45500
12174997;-0.49500
12177774;-0.52500
12180552;-0.54500
12183330;-0.58500
12186108;-0.63000
12188885;-0.61500
12191663;-0.51500
12194441;-0.36000
12197219;-0.17500
12199997;0.05500
12202774;0.35000
12205552;0.65000
12208330;0.86000
12211108;0.95000
12213885;0.83000
12216663;0.48000
12219441;0.02000
12222219;-0.33000
12224997;-0.50000
12227774;-0.54000
12230552;-0.51000
12233330;-0.46500
12236108;-0.43500
12238885;-0.45000
12241663;-0.45000
12244441;-0.46000
12247219;-0.45500
12249997;-0.44500
12252774;-0.43500
12255552;-0.43000
12258330;-0.44500
12261108;-0.45000
12263885;-0.47000
12266663;-0.46000
12269441;-0.44000
12272219;-0.42500
12274997;-0.42000
12277774;-0.43500
12280552;-0.45500
12283330;-0.45500
12286108;-0.44000
12288885;-0.43000
12291663;-0.43500
12294441;-0.43500
12297219;-0.44500
12299997;-0.44000
12302774;-0.43500
12305552;-0.43500
12308330;-0.43500
12311108;-0.44500
12313885;-0.45500
12316663;-0.45500
12319441;-0.44500
12322219;-0.44000
12324997;-0.44500
12327774;-0.44500
12330552;-0.45000
12333330;-0.45500
12336108;-0.45500
12338885;-0.45000
12341663;-0.44500
12344441;-0.46500
12347219;-0.48000
12349997;-0.48000
12352774;-0.46000
12355552;-0.45000
12358330;-0.45000
12361108;-0.45000
12363885;-0.45500
12366663;-0.45500
12369441;-0.45500
12372219;-0.45000
12374997;-0.44500
12377774;-0.46500
12380552;-0.46500
12383330;-0.45500
12386108;-0.44500
12388885;-0.43000
12391663;-0.44000
12394441;-0.45500
12397219;-0.45500
12399997;-0.46500
12402774;-0.45000
12405552;-0.44000
12408330;-0.44000
12411108;-0.46000
12413885;-0.47000
12416663;-0.47000
12419441;-0.46000
12422219;-0.46500
12424997;-0.47000
12427774;-0.49000
12430552;-0.49000
12433330;-0.51000
12436108;-0.50000
12438885;-0.48500
12441663;-0.49000
12444441;-0.50000
12447219;-0.51500
12449997;-0.52000
12452774;-0.52000
12455552;-0.51500
12458330;-0.51500
12461108;-0.52000
12463885;-0.52000
12466663;-0.53000
12469441;-0.52000
12472219;-0.50500
12474997;-0.50000
12477774;-0.50000
12480552;-0.50500
12483330;-0.49000
12486108;-0.48000
12488885;-0.46000
12491663;-0.44000
12494441;-0.44500
12497219;-0.44000
12499996;-0.42500
12502774;-0.41000
12505552;-0.37000
12508330;-0.36500
12511108;-0.36500
12513885;-0.36000
12516663;-0.36500
12519441;-0.35500
12522219;-0.33500
12524996;-0.34000
12527774;-0.33000
12530552;-0.34500
12533330;-0.33500
12536108;-0.32500
12538885;-0.31500
12541663;-0.32500
12544441;-0.32000
12547219;-0.33000
12549996;-0.33500
12552774;-0.32000
12555552;-0.31000
12558330;-0.32000
12561108;-0.32500
12563885;-0.34000
12566663;-0.33500
12569441;-0.33000
12572219;-0.32000
12574996;-0.33500
12577774;-0.33500
12580552;-0.33000
12583330;-0.34000
12586108;-0.34000
12588885;-0.32000
12591663;-0.33000
12594441;-0.34000
12597219;-0.35500
12599996;-0.35000
12602774;-0.34000
12605552;-0.32000
12608330;-0.33000
12611108;-0.34000
12613885;-0.35000
12616663;-0.34500
12619441;-0.33500
12622219;-0.33500
12624996;-0.33500
12627774;-0.34000
12630552;-0.35000
12633330;-0.34000
12636108;-0.34000
12638885;-0.34000
12641663;-0.35000
12644441;-0.36000
12647219;-0.36500
12649996;-0.36500
12652774;-0.36500
12655552;-0.34500
12658330;-0.35000
12661108;-0.36500
12663885;-0.37000
12666663;-0.37000
12669441;-0.36000
12672219;-0.35000
12674996;-0.35000
12677774;-0.36000
12680552;-0.36500
12683330;-0.36000
12686108;-0.34500
12688885;-0.35000
12691663;-0.35000
12694441;-0.36000
12697219;-0.36000
12699996;-0.36500
12702774;-0.35500
12705552;-0.34500
12708330;-0.36500
12711108;-0.35000
12713885;-0.37000
12716663;-0.37000
12719441;-0.36000
12722219;-0.35500
12724996;-0.35500
12727774;-0.35500
12730552;-0.36000
12733330;-0.36000
12736108;-0.36000
12738885;-0.35500
12741663;-0.35000
12744441;-0.34000
12747219;-0.34500
12749996;-0.36500
12752774;-0.36000
12755552;-0.33000
12758330;-0.33500
12761108;-0.34500
12763885;-0.35500
12766663;-0.35500
12769441;-0.33500
12772219;-0.33500
12774996;-0.34000
12777774;-0.35500
12780552;-0.34500
12783330;-0.34000
12786108;-0.32500
12788885;-0.32000
12791663;-0.30500
12794441;-0.30500
12797219;-0.30500
12799996;-0.29000
12802774;-0.28000
12805552;-0.27000
12808330;-0.25500
12811108;-0.26000
12813885;-0.26000
12816663;-0.25000
12819441;-0.23000
12822219;-0.23000
12824996;-0.22500
12827774;-0.23500
12830552;-0.25000
12833330;-0.24500
12836108;-0.24500
12838885;-0.24000
12841663;-0.24500
12844441;-0.25000
12847219;-0.26000
12849996;-0.28000
12852774;-0.27500
12855552;-0.23500
12858330;-0.22000
12861108;-0.22500
12863885;-0.25000
12866663;-0.27000
12869441;-0.29000
12872219;-0.30000
12874996;-0.31500
12877774;-0.33500
12880552;-0.35500
12883330;-0.36000
12886108;-0.36500
12888885;-0.37000
12891663;-0.35000
12894441;-0.36500
12897219;-0.36000
12899996;-0.36500
12902774;-0.37000
12905552;-0.35500
12908330;-0.35500
12911107;-0.36000
12913885;-0.37000
12916663;-0.38500
12919441;-0.37500
12922219;-0.37000
12924996;-0.36500
12927774;-0.39000
12930552;-0.38000
12933330;-0.38500
12936107;-0.36500
12938885;-0.37000
12941663;-0.37000
12944441;-0.38500
12947219;-0.38500
12949996;-0.39500
12952774;-0.39500
12955552;-0.41000
12958330;-0.45500
12961107;-0.50500
12963885;-0.53500
12966663;-0.56500
12969441;-0.58000
12972219;-0.57500
12974996;-0.50000
12977774;-0.35500
12980552;-0.18500
12983330;0.00500
12986107;0.24500
12988885;0.54000
12991663;0.83500
12994441;1.03000
12997219;1.13500
12999996;1.06500
13002774;0.81000
13005552;0.34500
13008330;-0.14000
13011107;-0.44000
13013885;-0.52000
13016663;-0.47500
13019441;-0.40500
13022219;-0.37000
13024996;-0.37500
13027774;-0.37500
13030552;-0.40500
13033330;-0.40000
13036107;-0.38500
13038885;-0.38500
13041663;-0.39000
13044441;-0.40500
13047219;-0.41500
13049996;-0.41000
13052774;-0.41000
13055552;-0.40000
13058330;-0.40500
13061107;-0.42000
13063885;-0.41000
13066663;-0.43500
13069441;-0.42000
13072219;-0.42000
13074996;-0.40500
13077774;-0.41500
13080552;-0.42000
13083330;-0.42500
13086107;-0.41500
13088885;-0.40000
13091663;-0.41000
13094441;-0.42000
13097219;-0.42500
13099996;-0.41500
13102774;-0.41000
13105552;-0.39500
13108330;-0.40500
13111107;-0.42000
13113885;-0.42000
13116663;-0.40500
13119441;-0.41000
13122219;-0.40000
13124996;-0.39500
13127774;-0.41500
13130552;-0.41500
13133330;-0.41500
13136107;-0.41000
13138885;-0.41000
13141663;-0.40000
13144441;-0.40500
13147219;-0.42000
13149996;-0.41000
13152774;-0.40000
13155552;-0.39500
13158330;-0.39000
13161107;-0.40500
13163885;-0.41500
13166663;-0.40500
13169441;-0.39500
13172219;-0.38500
13174996;-0.39500
13177774;-0.40500
13180552;-0.41500
13183330;-0.40500
13186107;-0.40000
13188885;-0.38500
13191663;-0.39000
13194441;-0.40000
13197219;-0.40500
13199996;-0.41000
13202774;-0.41000
13205552;-0.39500
13208330;-0.40500
13211107;-0.41500
13213885;-0.41500
13216663;-0.42500
13219441;-0.42000
13222219;-0.40000
13224996;-0.42000
13227774;-0.42000
13230552;-0.43500
13233330;-0.43500
13236107;-0.42000
13238885;-0.41000
13241663;-0.41500
13244441;-0.42000
13247219;-0.43500
13249996;-0.44000
13252774;-0.43000
13255552;-0.42000
13258330;-0.42500
13261107;-0.43500
13263885;-0.44500
13266663;-0.44000
13269441;-0.43000
13272219;-0.41000
13274996;-0.41000
13277774;-0.41500
13280552;-0.41500
13283330;-0.41500
13286107;-0.41000
13288885;-0.39500
13291663;-0.38500
13294441;-0.39000
13297218;-0.37500
13299996;-0.37000
13302774;-0.35500
13305552;-0.33500
13308330;-0.32000
13311107;-0.32500
13313885;-0.33000
13316663;-0.31500
13319441;-0.29500
13322218;-0.28000
13324996;-0.28000
13327774;-0.28500
13330552;-0.30000
13333330;-0.28000
13336107;-0.26500
13338885;-0.26500
13341663;-0.26500
13344441;-0.26000
13347218;-0.27000
13349996;-0.28000
13352774;-0.27000
13355552;-0.26500
13358330;-0.28000
13361107;-0.27500
13363885;-0.27000
13366663;-0.29000
13369441;-0.27000
13372218;-0.27000
13374996;-0.27000
13377774;-0.28500
13380552;-0.28000
13383330;-0.29500
13386107;-0.29000
13388885;-0.27500
13391663;-0.28000
13394441;-0.28000
13397218;-0.28500
13399996;-0.29500
13402774;-0.28000
13405552;-0.27500
13408330;-0.27500
13411107;-0.28500
13413885;-0.29000
13416663;-0.28500
13419441;-0.28500
13422218;-0.28000
13424996;-0.29500
13427774;-0.30000
13430552;-0.31500
13433330;-0.30500
13436107;-0.30000
13438885;-0.29500
13441663;-0.30000
13444441;-0.30500
13447218;-0.31500
13449996;-0.32500
13452774;-0.31500
13455552;-0.30500
13458330;-0.32000
13461107;-0.32500
13463885;-0.33000
13466663;-0.32500
13469441;-0.32000
13472218;-0.31500
13474996;-0.32000
13477774;-0.31500
13480552;-0.33000
13483330;-0.32500
13486107;-0.31500
13488885;-0.30500
13491663;-0.32000
13494441;-0.32000
13497218;-0.31500
13499996;-0.32500
13502774;-0.31500
13505552;-0.30500
13508330;-0.32000
13511107;-0.32000
13513885;-0.33500
13516663;-0.32500
13519441;-0.32500
13522218;-0.31000
13524996;-0.32000
13527774;-0.33000
13530552;-0.33500
13533330;-0.33500
13536107;-0.32000
13538885;-0.32000
13541663;-0.31000
13544441;-0.31000
13547218;-0.32000
13549996;-0.32500
13552774;-0.32000
13555552;-0.30000
13558330;-0.30500
13561107;-0.31500
13563885;-0.32500
13566663;-0.32000
13569441;-0.31500
13572218;-0.30000
13574996;-0.30000
13577774;-0.30000
13580552;-0.30000
13583330;-0.30500
13586107;-0.29000
13588885;-0.28500
13591663;-0.28500
13594441;-0.28000
13597218;-0.26500
13599996;-0.25000
13602774;-0.25000
13605552;-0.22500
13608330;-0.22500
13611107;-0.23000
13613885;-0.23000
13616663;-0.22500
13619441;-0.20000
13622218;-0.17500
13624996;-0.18000
13627774;-0.19000
13630552;-0.19500
13633330;-0.19500
13636107;-0.18500
13638885;-0.19500
13641663;-0.20500
13644441;-0.22000
13647218;-0.23000
13649996;-0.23500
13652774;-0.21500
13655552;-0.20000
13658330;-0.20000
13661107;-0.21000
13663885;-0.22500
13666663;-0.24500
13669441;-0.22500
13672218;-0.20000
13674996;-0.18000
13677774;-0.17500
13680552;-0.21000
13683330;-0.25500
13686107;-0.24500
13688885;-0.25500
13691663;-0.28000
13694441;-0.28500
13697218;-0.31000
13699996;-0.32500
13702774;-0.32000
13705552;-0.32000
13708329;-0.32000
13711107;-0.32500
13713885;-0.32500
13716663;-0.32500
13719441;-0.32000
13722218;-0.32500
13724996;-0.33000
13727774;-0.33500
13730552;-0.35000
13733329;-0.35000
13736107;-0.34000
13738885;-0.33000
13741663;-0.33000
13744441;-0.34000
13747218;-0.34500
13749996;-0.35500
13752774;-0.34000
13755552;-0.33500
13758329;-0.34500
13761107;-0.37000
13763885;-0.39500
13766663;-0.45000
13769441;-0.48500
13772218;-0.49500
13774996;-0.52500
13777774;-0.57500
13780552;-0.60500
13783329;-0.58500
13786107;-0.47500
13788885;-0.33500
13791663;-0.16000
13794441;0.01500
13797218;0.22000
13799996;0.49500
13802774;0.80500
13805552;1.03000
13808329;1.13000
13811107;1.06500
13813885;0.80000
13816663;0.34000
13819441;-0.10500
13822218;-0.39500
13824996;-0.46500
13827774;-0.43000
13830552;-0.37000
13833329;-0.34500
13836107;-0.34000
13838885;-0.35000
13841663;-0.35000
13844441;-0.36000
13847218;-0.37000
13849996;-0.37500
13852774;-0.36000
13855552;-0.36500
13858329;-0.37000
13861107;-0.38000
13863885;-0.38500
13866663;-0.38500
13869441;-0.38500
13872218;-0.37500
13874996;-0.37500
13877774;-0.38000
13880552;-0.38000
13883329;-0.38500
13886107;-0.37500
13888885;-0.37500
13891663;-0.37000
13894441;-0.38000
13897218;-0.39000
13899996;-0.38500
13902774;-0.37500
13905552;-0.36500
13908329;-0.38000
13911107;-0.38000
13913885;-0.39000
13916663;-0.38500
13919441;-0.38500
13922218;-0.37000
13924996;-0.39500
13927774;-0.37500
13930552;-0.39000
13933329;-0.39000
13936107;-0.37500
13938885;-0.37000
13941663;-0.37000
13944441;-0.37500
13947218;-0.38000
13949996;-0.38500
13952774;-0.38000
13955552;-0.36000
13958329;-0.38000
13961107;-0.38000
13963885;-0.38500
13966663;-0.38500
13969441;-0.37500
13972218;-0.36500
13974996;-0.37000
13977774;-0.38000
13980552;-0.39000
13983329;-0.39000
13986107;-0.37500
13988885;-0.37000
13991663;-0.37000
13994441;-0.37000
13997218;-0.39000
13999996;-0.39000
14002774;-0.38000
14005552;-0.36500
14008329;-0.36000
14011107;-0.37500
14013885;-0.38500
14016663;-0.38000
14019441;-0.36500
14022218;-0.36000
14024996;-0.38000
14027774;-0.37500
14030552;-0.38500
14033329;-0.39000
14036107;-0.39500
14038885;-0.38000
14041663;-0.39000
14044441;-0.40000
14047218;-0.40000
14049996;-0.40000
14052774;-0.40000
14055552;-0.39500
14058329;-0.39500
14061107;-0.40500
14063885;-0.40500
14066663;-0.41000
14069441;-0.39000
14072218;-0.38000
14074996;-0.40000
14077774;-0.40500
14080552;-0.40500
14083329;-0.40000
14086107;-0.39500
14088885;-0.38000
14091663;-0.38500
14094440;-0.38500
14097218;-0.37000
14099996;-0.38000
14102774;-0.37500
14105552;-0.35000
14108329;-0.34500
14111107;-0.34500
14113885;-0.34000
14116663;-0.33500
14119440;-0.32000
14122218;-0.31000
14124996;-0.30000
14127774;-0.31000
14130552;-0.31500
14133329;-0.30000
14136107;-0.29000
14138885;-0.27500
14141663;-0.27500
14144440;-0.26500
14147218;-0.27500
14149996;-0.27500
14152774;-0.26500
14155552;-0.26000
14158329;-0.26500
14161107;-0.26000
14163885;-0.26000
14166663;-0.26000
14169440;-0.26000
14172218;-0.25000
14174996;-0.25000
14177774;-0.26500
14180552;-0.28000
14183329;-0.28000
14186107;-0.28000
14188885;-0.26000
14191663;-0.27000
14194440;-0.26000
14197218;-0.26500
14199996;-0.27500
14202774;-0.26500
14205552;-0.26000
14208329;-0.26000
14211107;-0.26500
14213885;-0.28000
14216663;-0.28500
14219440;-0.28500
14222218;-0.27000
14224996;-0.27500
14227774;-0.29000
14230552;-0.28500
14233329;-0.29500
14236107;-0.28500
14238885;-0.28000
14241663;-0.28000
14244440;-0.28500
14247218;-0.30000
14249996;-0.30000
14252774;-0.28000
14255552;-0.28000
14258329;-0.29000
14261107;-0.29500
14263885;-0.29500
14266663;-0.30500
14269440;-0.29500
14272218;-0.28500
14274996;-0.29000
14277774;-0.29500
14280552;-0.31000
14283329;-0.32000
14286107;-0.30500
14288885;-0.29000
14291663;-0.29500
14294440;-0.29500
14297218;-0.31000
14299996;-0.32500
14302774;-0.31000
14305552;-0.30500
14308329;-0.30000
14311107;-0.31500
14313885;-0.31500
14316663;-0.33000
14319440;-0.30500
14322218;-0.31000
14324996;-0.32000
14327774;-0.32000
14330552;-0.32000
14333329;-0.33000
14336107;-0.31500
14338885;-0.29500
14341663;-0.30000
14344440;-0.31000
14347218;-0.31000
14349996;-0.33000
14352774;-0.32000
14355552;-0.31000
14358329;-0.31000
14361107;-0.30500
14363885;-0.31500
14366663;-0.32000
14369440;-0.31000
14372218;-0.29500
14374996;-0.30000
14377774;-0.30000
14380552;-0.31500
14383329;-0.32000
14386107;-0.29500
14388885;-0.29500
14391663;-0.30500
14394440;-0.31500
14397218;-0.31500
14399996;-0.32000
14402774;-0.31000
14405552;-0.30000
14408329;-0.30000
14411107;-0.29500
14413885;-0.30500
14416663;-0.29000
14419440;-0.28000
14422218;-0.24500
14424996;-0.24000
14427774;-0.23500
14430552;-0.24000
14433329;-0.24000
14436107;-0.23500
14438885;-0.21500
14441663;-0.20500
14444440;-0.20500
14447218;-0.20500
14449996;-0.20500
14452774;-0.19500
14455552;-0.18000
14458329;-0.18500
14461107;-0.19000
14463885;-0.20500
14466663;-0.21500
14469440;-0.21000
14472218;-0.21000
14474996;-0.20500
14477774;-0.22000
14480552;-0.22000
14483329;-0.21500
14486107;-0.20500
14488885;-0.20000
14491663;-0.21500
14494440;-0.23000
14497218;-0.22500
14499996;-0.21500
14502774;-0.16500
14505551;-0.16000
14508329;-0.21500
14511107;-0.24000
14513885;-0.25500
14516663;-0.27000
14519440;-0.27500
14522218;-0.29000
14524996;-0.30500
14527774;-0.31000
14530551;-0.31500
14533329;-0.33000
14536107;-0.31500
14538885;-0.31000
14541663;-0.30500
14544440;-0.32500
14547218;-0.33500
14549996;-0.33000
14552774;-0.32000
14555551;-0.31500
14558329;-0.32000
14561107;-0.33500
14563885;-0.34500
14566663;-0.34000
14569440;-0.32500
14572218;-0.32500
14574996;-0.33000
14577774;-0.34000
14580551;-0.35000
14583329;-0.34000
14586107;-0.34000
14588885;-0.32000
14591663;-0.32000
14594440;-0.32000
14597218;-0.32500
14599996;-0.35500
14602774;-0.37500
14605551;-0.39500
14608329;-0.43000
14611107;-0.47500
14613885;-0.49000
14616663;-0.55000
14619440;-0.57500
14622218;-0.54500
14624996;-0.44000
14627774;-0.28000
14630551;-0.10000
14633329;0.10500
14636107;0.39000
14638885;0.68500
14641663;0.91500
14644440;1.04000
14647218;1.03500
14649996;0.84000
14652774;0.46000
14655551;0.02500
14658329;-0.30500
14661107;-0.46500
14663885;-0.47000
14666663;-0.41500
14669440;-0.36500
14672218;-0.34500
14674996;-0.37000
14677774;-0.37500
14680551;-0.38000
14683329;-0.37500
14686107;-0.36000
14688885;-0.34500
14691663;-0.35000
14694440;-0.36500
14697218;-0.37000
14699996;-0.37500
14702774;-0.37500
14705551;-0.38000
14708329;-0.39000
14711107;-0.38000
14713885;-0.39000
14716663;-0.38500
14719440;-0.37000
14722218;-0.35500
14724996;-0.35500
14727774;-0.36000
14730551;-0.37500
14733329;-0.38500
14736107;-0.38000
14738885;-0.37500
14741663;-0.38000
14744440;-0.38500
14747218;-0.38500
14749996;-0.39000
14752774;-0.36500
14755551;-0.36500
14758329;-0.36500
14761107;-0.37500
14763885;-0.39500
14766663;-0.39000
14769440;-0.37500
14772218;-0.37000
14774996;-0.37000
14777774;-0.38500
14780551;-0.38000
14783329;-0.39000
14786107;-0.38000
14788885;-0.38000
14791663;-0.37000
14794440;-0.38000
14797218;-0.38500
14799996;-0.39000
14802774;-0.38000
14805551;-0.36500
14808329;-0.37500
14811107;-0.37500
14813885;-0.37000
14816663;-0.38000
14819440;-0.36000
14822218;-0.36500
14824996;-0.36500
14827774;-0.37500
14830551;-0.39000
14833329;-0.39500
14836107;-0.36500
14838885;-0.36000
14841663;-0.36500
14844440;-0.36000
14847218;-0.37000
14849996;-0.37000
14852774;-0.35500
14855551;-0.34500
14858329;-0.36500
14861107;-0.38000
14863885;-0.39000
14866663;-0.38500
14869440;-0.38000
14872218;-0.37000
14874996;-0.37500
14877774;-0.38500
14880551;-0.39000
14883329;-0.39000
14886107;-0.38500
14888885;-0.37500
14891662;-0.39000
14894440;-0.39000
14897218;-0.40500
14899996;-0.40000
14902774;-0.39000
14905551;-0.38000
14908329;-0.38500
14911107;-0.38500
14913885;-0.40000
14916662;-0.40000
14919440;-0.39000
14922218;-0.39000
14924996;-0.38500
14927774;-0.41000
14930551;-0.41500
14933329;-0.41000
14936107;-0.40000
14938885;-0.40000
14941662;-0.41000
14944440;-0.40500
14947218;-0.41000
14949996;-0.39000
14952774;-0.37000
14955551;-0.36000
14958329;-0.35500
14961107;-0.37000
14963885;-0.35500
14966662;-0.35500
14969440;-0.33500
14972218;-0.32000
14974996;-0.30500
14977774;-0.31500
14980551;-0.32000
14983329;-0.32000
14986107;-0.31500
14988885;-0.29500
14991662;-0.29500
14994440;-0.29500
14997218;-0.31000
14999996;-0.30000
15002774;-0.30500
15005551;-0.28500
15008329;-0.30000
15011107;-0.29500
15013885;-0.29500
15016662;-0.29500
15019440;-0.29500
15022218;-0.28500
15024996;-0.29000
15027774;-0.30000
15030551;-0.30000
15033329;-0.30000
15036107;-0.29000
15038885;-0.29000
15041662;-0.29500
15044440;-0.31000
15047218;-0.30500
15049996;-0.31500
15052774;-0.30000
15055551;-0.29000
15058329;-0.31000
15061107;-0.31000
15063885;-0.31500
15066662;-0.31500
15069440;-0.31000
15072218;-0.31000
15074996;-0.30500
15077774;-0.31000
15080551;-0.32000
15083329;-0.33000
15086107;-0.32500
15088885;-0.32000
15091662;-0.31000
15094440;-0.32000
15097218;-0.32000
15099996;-0.32000
15102774;-0.31000
15105551;-0.30500
15108329;-0.30500
15111107;-0.34000
15113885;-0.34500
15116662;-0.35500
15119440;-0.34500
15122218;-0.32000
15124996;-0.34000
15127774;-0.34500
15130551;-0.36500
15133329;-0.37000
15136107;-0.34500
15138885;-0.35500
15141662;-0.36000
15144440;-0.37500
15147218;-0.37000
15149996;-0.36000
15152774;-0.34500
15155551;-0.34500
15158329;-0.34500
15161107;-0.35000
15163885;-0.35000
15166662;-0.35000
15169440;-0.34500
15172218;-0.33500
15174996;-0.35000
15177774;-0.35000
15180551;-0.37000
15183329;-0.37500
15186107;-0.36000
15188885;-0.34500
15191662;-0.34500
15194440;-0.35000
15197218;-0.37000
15199996;-0.38000
15202774;-0.37500
15205551;-0.35500
15208329;-0.35000
15211107;-0.34000
15213885;-0.34500
15216662;-0.34500
15219440;-0.34500
15222218;-0.35500
15224996;-0.34000
15227774;-0.35000
15230551;-0.36000
15233329;-0.36500
15236107;-0.35000
15238885;-0.33500
15241662;-0.34000
15244440;-0.35500
15247218;-0.35500
15249996;-0.33500
15252774;-0.31000
15255551;-0.28000
15258329;-0.28500
15261107;-0.29000
15263885;-0.29000
15266662;-0.30000
15269440;-0.29000
15272218;-0.27000
15274996;-0.26000
15277774;-0.26000
15280551;-0.27000
15283329;-0.26000
15286107;-0.25000
15288885;-0.24000
15291662;-0.25500
15294440;-0.26000
15297218;-0.26500
15299996;-0.27500
15302773;-0.27500
15305551;-0.26000
15308329;-0.27000
15311107;-0.28500
15313885;-0.29000
15316662;-0.30000
15319440;-0.29500
15322218;-0.27000
15324996;-0.24500
15327773;-0.23500
15330551;-0.23000
15333329;-0.24000
15336107;-0.24500
15338885;-0.25500
15341662;-0.28000
15344440;-0.30500
15347218;-0.33000
15349996;-0.35500
15352773;-0.37500
15355551;-0.39000
15358329;-0.38500
15361107;-0.38500
15363885;-0.39500
15366662;-0.41500
15369440;-0.40500
15372218;-0.38500
15374996;-0.39000
15377773;-0.37000
15380551;-0.38500
15383329;-0.39000
15386107;-0.39000
15388885;-0.37500
15391662;-0.38500
15394440;-0.39500
15397218;-0.40000
15399996;-0.39500
15402773;-0.38000
15405551;-0.38000
15408329;-0.38500
15411107;-0.40500
15413885;-0.41000
15416662;-0.42000
15419440;-0.40000
15422218;-0.38000
15424996;-0.37500
15427773;-0.40000
15430551;-0.42000
15433329;-0.45500
15436107;-0.49000
15438885;-0.51500
15441662;-0.54500
15444440;-0.59000
15447218;-0.61500
15449996;-0.55500
15452773;-0.44000
15455551;-0.27000
15458329;-0.10000
15461107;0.12000
15463885;0.40500
15466662;0.66500
15469440;0.87000
15472218;0.97000
