time_ms;ecg_value
0;-0.16000
2778;-0.15000
5556;-0.13000
8333;-0.10000
11111;-0.11000
13889;-0.14000
16667;-0.16000
19444;-0.17000
22222;-0.17500
25000;-0.17500
27778;-0.20000
30556;-0.21500
33333;-0.22500
36111;-0.22500
38889;-0.21500
41667;-0.22000
44444;-0.23000
47222;-0.25000
50000;-0.25000
52778;-0.25000
55556;-0.25000
58333;-0.24500
61111;-0.25500
63889;-0.25500
66667;-0.25500
69444;-0.25000
72222;-0.24500
75000;-0.25500
77778;-0.26500
80556;-0.27500
83333;-0.26000
86111;-0.26000
88889;-0.25500
91667;-0.25000
94444;-0.27000
97222;-0.27500
100000;-0.26500
102778;-0.26500
105556;-0.26000
108333;-0.27000
111111;-0.29000
113889;-0.30000
116667;-0.31000
119444;-0.34500
122222;-0.36500
125000;-0.39000
127778;-0.43000
130556;-0.47500
133333;-0.49500
136111;-0.45000
138889;-0.35000
141667;-0.22500
144444;-0.09500
147222;0.06000
150000;0.29000
152778;0.55500
155556;0.78000
158333;0.91500
161111;0.92500
163889;0.81000
166667;0.52500
169444;0.19000
172222;-0.13500
175000;-0.32500
177778;-0.41000
180556;-0.39000
183333;-0.33500
186111;-0.30000
188889;-0.29500
191667;-0.29500
194444;-0.30000
197222;-0.30500
200000;-0.30000
202778;-0.29000
205555;-0.29500
208333;-0.29500
211111;-0.29500
213889;-0.31000
216667;-0.30000
219444;-0.28500
222222;-0.28500
225000;-0.30000
227778;-0.30000
230555;-0.30500
233333;-0.30000
236111;-0.29500
238889;-0.29000
241667;-0.28500
244444;-0.29500
247222;-0.29500
250000;-0.30000
252778;-0.29500
255555;-0.29000
258333;-0.30500
261111;-0.31000
263889;-0.32000
266667;-0.31500
269444;-0.29000
272222;-0.29500
275000;-0.30000
277778;-0.30000
280555;-0.31000
283333;-0.30000
286111;-0.29000
288889;-0.28000
291667;-0.29000
294444;-0.30000
297222;-0.31000
300000;-0.30000
302778;-0.29000
305555;-0.29000
308333;-0.28000
311111;-0.29000
313889;-0.32000
316667;-0.30500
319444;-0.30000
322222;-0.29500
325000;-0.30500
327778;-0.31000
330555;-0.31000
333333;-0.30500
336111;-0.31000
338889;-0.29000
341667;-0.29500
344444;-0.29000
347222;-0.30000
350000;-0.29500
352778;-0.29000
355555;-0.28500
358333;-0.29500
361111;-0.30000
363889;-0.30000
366667;-0.29000
369444;-0.28500
372222;-0.28000
375000;-0.28500
377778;-0.29500
380555;-0.29500
383333;-0.29500
386111;-0.28500
388889;-0.28000
391667;-0.28500
394444;-0.28500
397222;-0.30000
400000;-0.28000
402778;-0.29500
405555;-0.28500
408333;-0.29000
411111;-0.29000
413889;-0.30500
416667;-0.30500
419444;-0.29500
422222;-0.29500
425000;-0.30000
427778;-0.30000
430555;-0.31000
433333;-0.30500
436111;-0.29000
438889;-0.29500
441667;-0.30000
444444;-0.30000
447222;-0.31000
450000;-0.32000
452778;-0.30000
455555;-0.31000
458333;-0.29500
461111;-0.30500
463889;-0.30000
466667;-0.29500
469444;-0.27000
472222;-0.26000
475000;-0.26000
477778;-0.25500
480555;-0.26500
483333;-0.25000
486111;-0.23000
488889;-0.22500
491667;-0.22000
494444;-0.23500
497222;-0.24500
500000;-0.23500
502778;-0.22000
505555;-0.21500
508333;-0.21000
511111;-0.21000
513889;-0.23000
516667;-0.21500
519444;-0.21000
522222;-0.22500
525000;-0.22500
527778;-0.24000
530555;-0.24500
533333;-0.22500
536111;-0.23000
538889;-0.21500
541667;-0.22500
544444;-0.22000
547222;-0.23500
550000;-0.23000
552778;-0.24000
555555;-0.22500
558333;-0.22500
561111;-0.23500
563889;-0.24500
566667;-0.23500
569444;-0.23000
572222;-0.23500
575000;-0.23500
577778;-0.25000
580555;-0.27000
583333;-0.25000
586111;-0.24000
588889;-0.24500
591667;-0.25000
594444;-0.25500
597222;-0.26500
600000;-0.25500
602778;-0.25500
605555;-0.25500
608333;-0.24500
611111;-0.25000
613889;-0.27000
616666;-0.26500
619444;-0.27500
622222;-0.25500
625000;-0.26500
627778;-0.26500
630555;-0.28000
633333;-0.28500
636111;-0.28000
638889;-0.27500
641666;-0.28000
644444;-0.28500
647222;-0.28500
650000;-0.27000
652778;-0.27000
655555;-0.26500
658333;-0.27000
661111;-0.27500
663889;-0.28500
666666;-0.28500
669444;-0.28500
672222;-0.29000
675000;-0.29000
677778;-0.29000
680555;-0.30500
683333;-0.29500
686111;-0.28500
688889;-0.27500
691666;-0.27500
694444;-0.28000
697222;-0.29000
700000;-0.29500
702778;-0.28500
705555;-0.27000
708333;-0.28000
711111;-0.29500
713889;-0.29000
716666;-0.29500
719444;-0.29000
722222;-0.28500
725000;-0.28500
727778;-0.28000
730555;-0.30000
733333;-0.28500
736111;-0.27500
738889;-0.27000
741666;-0.27500
744444;-0.28500
747222;-0.28000
750000;-0.28500
752778;-0.27000
755555;-0.26000
758333;-0.26500
761111;-0.27500
763889;-0.27500
766666;-0.25500
769444;-0.23000
772222;-0.22500
775000;-0.22000
777778;-0.22500
780555;-0.23500
783333;-0.22000
786111;-0.21000
788889;-0.19500
791666;-0.19000
794444;-0.19000
797222;-0.20500
800000;-0.19500
802778;-0.18000
805555;-0.18500
808333;-0.18500
811111;-0.20000
813889;-0.21000
816666;-0.20000
819444;-0.18500
822222;-0.20000
825000;-0.21000
827778;-0.21000
830555;-0.20500
833333;-0.19000
836111;-0.18500
838889;-0.21500
841666;-0.24500
844444;-0.26500
847222;-0.28500
850000;-0.30500
852778;-0.29500
855555;-0.29000
858333;-0.29000
861111;-0.30000
863889;-0.31000
866666;-0.30000
869444;-0.30000
872222;-0.29500
875000;-0.30000
877778;-0.31000
880555;-0.32000
883333;-0.31000
886111;-0.30000
888889;-0.30500
891666;-0.29500
894444;-0.32000
897222;-0.33000
900000;-0.34500
902778;-0.34500
905555;-0.31500
908333;-0.32500
911111;-0.34000
913889;-0.33500
916666;-0.33500
919444;-0.33500
922222;-0.32000
925000;-0.32000
927778;-0.34000
930555;-0.39500
933333;-0.42500
936111;-0.43500
938889;-0.46000
941666;-0.51500
944444;-0.54500
947222;-0.52500
950000;-0.40500
952778;-0.27000
955555;-0.12500
958333;0.07000
961111;0.33000
963889;0.57500
966666;0.76500
969444;0.85000
972222;0.76000
975000;0.46000
977778;0.08500
980555;-0.22000
983333;-0.39000
986111;-0.46500
988889;-0.44500
991666;-0.40500
994444;-0.40000
997222;-0.39500
1000000;-0.40000
1002777;-0.38000
1005555;-0.37000
1008333;-0.37500
1011111;-0.38000
1013889;-0.37500
1016666;-0.36000
1019444;-0.36000
1022222;-0.34500
1025000;-0.37000
1027777;-0.37000
1030555;-0.36500
1033333;-0.36500
1036111;-0.35500
1038889;-0.34500
1041666;-0.35500
1044444;-0.35000
1047222;-0.37000
1050000;-0.36500
1052777;-0.36000
1055555;-0.36500
1058333;-0.37000
1061111;-0.38500
1063889;-0.38500
1066666;-0.38500
1069444;-0.38000
1072222;-0.37500
1075000;-0.36500
1077777;-0.37500
1080555;-0.38000
1083333;-0.37500
1086111;-0.38000
1088889;-0.38500
1091666;-0.38000
1094444;-0.37500
1097222;-0.37500
1100000;-0.36000
1102777;-0.35500
1105555;-0.35500
1108333;-0.37000
1111111;-0.38500
1113889;-0.38500
1116666;-0.38500
1119444;-0.37000
1122222;-0.35500
1125000;-0.36000
1127777;-0.36000
1130555;-0.37500
1133333;-0.36500
1136111;-0.36000
1138889;-0.35500
1141666;-0.35500
1144444;-0.36000
1147222;-0.37000
1150000;-0.36500
1152777;-0.37000
1155555;-0.36000
1158333;-0.36500
1161111;-0.37500
1163889;-0.36500
1166666;-0.37500
1169444;-0.37000
1172222;-0.37000
1175000;-0.37500
1177777;-0.38500
1180555;-0.39000
1183333;-0.38000
1186111;-0.37000
1188889;-0.37000
1191666;-0.38500
1194444;-0.39500
1197222;-0.40000
1200000;-0.39500
1202777;-0.40000
1205555;-0.38500
1208333;-0.39000
1211111;-0.40500
1213889;-0.42000
1216666;-0.42500
1219444;-0.43000
1222222;-0.42000
1225000;-0.42500
1227777;-0.43000
1230555;-0.44500
1233333;-0.42500
1236111;-0.40000
1238889;-0.40500
1241666;-0.40500
1244444;-0.42000
1247222;-0.43500
1250000;-0.41500
1252777;-0.38500
1255555;-0.38000
1258333;-0.37500
1261111;-0.37000
1263889;-0.36000
1266666;-0.33500
1269444;-0.32000
1272222;-0.31000
1275000;-0.30500
1277777;-0.31000
1280555;-0.31500
1283333;-0.30500
1286111;-0.29500
1288889;-0.29500
1291666;-0.29000
1294444;-0.29000
1297222;-0.29500
1300000;-0.29000
1302777;-0.28500
1305555;-0.28000
1308333;-0.28500
1311111;-0.31000
1313889;-0.30500
1316666;-0.29500
1319444;-0.29500
1322222;-0.29500
1325000;-0.29000
1327777;-0.28000
1330555;-0.29500
1333333;-0.28000
1336111;-0.28000
1338889;-0.27000
1341666;-0.29000
1344444;-0.30500
1347222;-0.28500
1350000;-0.28500
1352777;-0.28000
1355555;-0.29000
1358333;-0.28500
1361111;-0.30000
1363889;-0.29500
1366666;-0.29500
1369444;-0.29500
1372222;-0.29500
1375000;-0.30000
1377777;-0.32000
1380555;-0.31500
1383333;-0.31000
1386111;-0.30000
1388888;-0.28500
1391666;-0.29000
1394444;-0.31500
1397222;-0.32000
1400000;-0.30500
1402777;-0.29500
1405555;-0.29000
1408333;-0.30500
1411111;-0.32500
1413888;-0.33000
1416666;-0.32500
1419444;-0.30500
1422222;-0.31000
1425000;-0.31000
1427777;-0.32000
1430555;-0.32500
1433333;-0.33500
1436111;-0.32000
1438888;-0.31500
1441666;-0.31000
1444444;-0.32500
1447222;-0.33000
1450000;-0.32500
1452777;-0.32000
1455555;-0.31500
1458333;-0.31500
1461111;-0.32000
1463888;-0.33000
1466666;-0.32500
1469444;-0.31500
1472222;-0.31500
1475000;-0.31000
1477777;-0.33000
1480555;-0.32500
1483333;-0.32000
1486111;-0.31500
1488888;-0.31500
1491666;-0.32500
1494444;-0.32000
1497222;-0.32500
1500000;-0.32500
1502777;-0.30000
1505555;-0.30500
1508333;-0.31500
1511111;-0.32500
1513888;-0.32000
1516666;-0.31000
1519444;-0.30500
1522222;-0.29500
1525000;-0.30000
1527777;-0.31500
1530555;-0.31500
1533333;-0.31500
1536111;-0.30500
1538888;-0.30500
1541666;-0.30000
1544444;-0.30000
1547222;-0.30500
1550000;-0.27500
1552777;-0.26000
1555555;-0.25000
1558333;-0.25000
1561111;-0.26000
1563888;-0.27000
1566666;-0.25500
1569444;-0.23000
1572222;-0.22000
1575000;-0.21000
1577777;-0.22500
1580555;-0.24000
1583333;-0.22500
1586111;-0.21500
1588888;-0.21500
1591666;-0.23000
1594444;-0.24000
1597222;-0.23000
1600000;-0.23500
1602777;-0.22500
1605555;-0.22500
1608333;-0.23500
1611111;-0.26000
1613888;-0.26000
1616666;-0.24500
1619444;-0.22000
1622222;-0.22000
1625000;-0.24000
1627777;-0.28000
1630555;-0.29500
1633333;-0.30500
1636111;-0.31000
1638888;-0.32000
1641666;-0.32000
1644444;-0.34500
1647222;-0.34500
1650000;-0.34000
1652777;-0.32000
1655555;-0.32500
1658333;-0.33000
1661111;-0.33000
1663888;-0.34000
1666666;-0.34500
1669444;-0.34000
1672222;-0.33500
1675000;-0.34500
1677777;-0.34000
1680555;-0.35000
1683333;-0.34500
1686111;-0.33500
1688888;-0.33000
1691666;-0.34500
1694444;-0.34500
1697222;-0.35500
1700000;-0.35500
1702777;-0.34500
1705555;-0.34500
1708333;-0.35000
1711111;-0.37500
1713888;-0.41000
1716666;-0.45000
1719444;-0.47000
1722222;-0.48000
1725000;-0.52000
1727777;-0.55500
1730555;-0.53000
1733333;-0.41000
1736111;-0.26500
1738888;-0.09000
1741666;0.12000
1744444;0.37000
1747222;0.62500
1750000;0.83000
1752777;0.91000
1755555;0.81000
1758333;0.50500
1761111;0.07000
1763888;-0.28000
1766666;-0.45000
1769444;-0.47000
1772222;-0.43500
1775000;-0.39000
1777777;-0.37500
1780555;-0.38000
1783333;-0.37500
1786111;-0.37500
1788888;-0.37000
1791666;-0.36500
1794444;-0.37500
1797222;-0.38500
1799999;-0.39000
1802777;-0.37500
1805555;-0.37500
1808333;-0.37000
1811111;-0.38500
1813888;-0.39000
1816666;-0.37500
1819444;-0.38000
1822222;-0.36500
1824999;-0.37500
1827777;-0.38500
1830555;-0.39500
1833333;-0.38500
1836111;-0.36500
1838888;-0.35000
1841666;-0.36500
1844444;-0.35500
1847222;-0.37000
1849999;-0.36500
1852777;-0.36000
1855555;-0.36000
1858333;-0.36000
1861111;-0.37000
1863888;-0.38000
1866666;-0.37500
1869444;-0.37500
1872222;-0.37500
1874999;-0.36000
1877777;-0.37500
1880555;-0.38500
1883333;-0.37500
1886111;-0.36500
1888888;-0.37000
1891666;-0.36000
1894444;-0.37000
1897222;-0.37500
1899999;-0.38000
1902777;-0.38000
1905555;-0.37000
1908333;-0.37000
1911111;-0.37000
1913888;-0.38000
1916666;-0.38000
1919444;-0.37500
1922222;-0.37000
1924999;-0.37000
1927777;-0.37500
1930555;-0.38500
1933333;-0.37500
1936111;-0.37000
1938888;-0.36000
1941666;-0.36500
1944444;-0.37000
1947222;-0.39000
1949999;-0.38000
1952777;-0.37000
1955555;-0.37000
1958333;-0.38500
1961111;-0.38500
1963888;-0.40500
1966666;-0.39000
1969444;-0.38500
1972222;-0.38500
1974999;-0.38500
1977777;-0.40000
1980555;-0.41000
1983333;-0.41000
1986111;-0.40000
1988888;-0.41000
1991666;-0.40000
1994444;-0.41500
1997222;-0.42000
1999999;-0.41500
2002777;-0.40500
2005555;-0.40000
2008333;-0.40500
2011111;-0.41000
2013888;-0.42500
2016666;-0.40500
2019444;-0.40000
2022222;-0.38500
2024999;-0.38000
2027777;-0.38500
2030555;-0.37000
2033333;-0.35000
2036111;-0.33500
2038888;-0.32000
2041666;-0.31500
2044444;-0.31000
2047222;-0.32500
2049999;-0.30500
2052777;-0.28500
2055555;-0.29000
2058333;-0.27000
2061111;-0.27000
2063888;-0.28000
2066666;-0.26500
2069444;-0.25500
2072222;-0.24500
2074999;-0.25500
2077777;-0.26500
2080555;-0.27000
2083333;-0.26500
2086111;-0.25000
2088888;-0.25000
2091666;-0.25000
2094444;-0.26000
2097222;-0.27000
2099999;-0.26500
2102777;-0.26000
2105555;-0.26000
2108333;-0.27000
2111111;-0.28000
2113888;-0.28000
2116666;-0.27500
2119444;-0.26500
2122222;-0.26000
2124999;-0.26500
2127777;-0.27500
2130555;-0.27000
2133333;-0.26500
2136111;-0.26000
2138888;-0.26500
2141666;-0.26000
2144444;-0.27500
2147222;-0.28000
2149999;-0.27500
2152777;-0.26000
2155555;-0.26500
2158333;-0.27000
2161111;-0.28000
2163888;-0.29000
2166666;-0.28500
2169444;-0.28000
2172222;-0.27500
2174999;-0.28000
2177777;-0.28500
2180555;-0.30500
2183333;-0.30000
2186110;-0.29500
2188888;-0.28000
2191666;-0.29000
2194444;-0.30000
2197222;-0.30500
2199999;-0.29500
2202777;-0.29000
2205555;-0.29500
2208333;-0.29500
2211110;-0.29000
2213888;-0.31500
2216666;-0.30000
2219444;-0.29000
2222222;-0.29000
2224999;-0.29500
2227777;-0.30000
2230555;-0.31000
2233333;-0.30000
2236110;-0.29500
2238888;-0.29500
2241666;-0.29000
2244444;-0.30000
2247222;-0.29500
2249999;-0.28500
2252777;-0.29500
2255555;-0.28500
2258333;-0.28500
2261110;-0.30000
2263888;-0.30000
2266666;-0.29500
2269444;-0.28500
2272222;-0.28500
2274999;-0.28500
2277777;-0.28500
2280555;-0.30000
2283333;-0.29000
2286110;-0.28500
2288888;-0.27500
2291666;-0.29500
2294444;-0.29000
2297222;-0.30500
2299999;-0.29000
2302777;-0.28500
2305555;-0.29000
2308333;-0.28000
2311110;-0.30500
2313888;-0.31000
2316666;-0.27500
2319444;-0.25000
2322222;-0.23500
2324999;-0.22500
2327777;-0.22500
2330555;-0.23500
2333333;-0.22500
2336110;-0.21500
2338888;-0.19500
2341666;-0.19500
2344444;-0.20500
2347222;-0.19500
2349999;-0.19000
2352777;-0.18500
2355555;-0.19000
2358333;-0.18500
2361110;-0.21000
2363888;-0.22000
2366666;-0.21000
2369444;-0.21500
2372222;-0.21000
2374999;-0.21500
2377777;-0.22000
2380555;-0.23000
2383333;-0.21000
2386110;-0.18000
2388888;-0.15500
2391666;-0.14500
2394444;-0.17000
2397222;-0.20000
2399999;-0.23000
2402777;-0.23000
2405555;-0.24500
2408333;-0.23500
2411110;-0.26000
2413888;-0.27500
2416666;-0.28000
2419444;-0.28000
2422222;-0.27000
2424999;-0.28500
2427777;-0.29000
2430555;-0.31500
2433333;-0.30500
2436110;-0.30500
2438888;-0.31000
2441666;-0.30000
2444444;-0.31000
2447222;-0.32000
2449999;-0.31500
2452777;-0.32500
2455555;-0.31000
2458333;-0.32000
2461110;-0.33000
2463888;-0.34000
2466666;-0.32500
2469444;-0.32500
2472222;-0.32000
2474999;-0.32500
2477777;-0.33000
2480555;-0.34000
2483333;-0.34000
2486110;-0.37000
2488888;-0.41000
2491666;-0.43500
2494444;-0.46500
2497222;-0.49000
2499999;-0.53000
2502777;-0.50000
2505555;-0.42000
2508333;-0.26500
2511110;-0.10500
2513888;0.10500
2516666;0.37500
2519444;0.68000
2522222;0.90000
2524999;0.99000
2527777;0.90000
2530555;0.57000
2533333;0.11000
2536110;-0.26000
2538888;-0.43500
2541666;-0.44000
2544444;-0.39000
2547222;-0.35000
2549999;-0.34000
2552777;-0.35000
2555555;-0.34000
2558333;-0.34500
2561110;-0.34000
2563888;-0.35500
2566666;-0.36000
2569444;-0.35000
2572222;-0.35000
2574999;-0.34500
2577777;-0.36500
2580555;-0.37000
2583333;-0.36500
2586110;-0.37000
2588888;-0.36000
2591666;-0.36500
2594444;-0.36500
2597221;-0.37500
2599999;-0.36500
2602777;-0.34000
2605555;-0.35500
2608333;-0.35500
2611110;-0.36000
2613888;-0.37500
2616666;-0.36000
2619444;-0.35500
2622221;-0.34000
2624999;-0.35000
2627777;-0.36000
2630555;-0.36500
2633333;-0.36500
2636110;-0.35500
2638888;-0.34000
2641666;-0.34500
2644444;-0.35000
2647221;-0.36500
2649999;-0.36000
2652777;-0.34500
2655555;-0.34500
2658333;-0.34500
2661110;-0.35000
2663888;-0.36500
2666666;-0.35000
2669444;-0.35500
2672221;-0.34000
2674999;-0.35500
2677777;-0.35500
2680555;-0.36500
2683333;-0.36000
2686110;-0.35500
2688888;-0.34500
2691666;-0.35500
2694444;-0.36500
2697221;-0.37000
2699999;-0.37000
2702777;-0.37000
2705555;-0.34500
2708333;-0.34500
2711110;-0.37000
2713888;-0.37000
2716666;-0.36000
2719444;-0.34000
2722221;-0.33500
2724999;-0.34500
2727777;-0.34000
2730555;-0.35500
2733333;-0.34500
2736110;-0.35500
2738888;-0.35000
2741666;-0.35500
2744444;-0.36000
2747221;-0.36500
2749999;-0.35500
2752777;-0.35000
2755555;-0.34000
2758333;-0.34000
2761110;-0.35000
2763888;-0.36000
2766666;-0.35000
2769444;-0.35000
2772221;-0.35500
2774999;-0.36500
2777777;-0.36000
2780555;-0.37000
2783333;-0.36500
2786110;-0.35500
2788888;-0.35500
2791666;-0.33500
2794444;-0.35000
2797221;-0.35000
2799999;-0.34000
2802777;-0.33500
2805555;-0.31500
2808333;-0.31000
2811110;-0.31000
2813888;-0.30000
2816666;-0.29000
2819444;-0.28000
2822221;-0.26500
2824999;-0.26500
2827777;-0.26500
2830555;-0.27000
2833333;-0.25500
2836110;-0.25000
2838888;-0.24500
2841666;-0.25000
2844444;-0.25000
2847221;-0.25500
2849999;-0.25000
2852777;-0.25000
2855555;-0.24000
2858333;-0.25000
2861110;-0.26000
2863888;-0.25500
2866666;-0.26500
2869444;-0.25000
2872221;-0.23000
2874999;-0.23500
2877777;-0.24500
2880555;-0.26000
2883333;-0.26500
2886110;-0.25000
2888888;-0.24500
2891666;-0.25000
2894444;-0.26000
2897221;-0.26500
2899999;-0.26500
2902777;-0.27000
2905555;-0.26000
2908333;-0.27000
2911110;-0.27500
2913888;-0.29000
2916666;-0.27500
2919444;-0.26500
2922221;-0.26000
2924999;-0.25500
2927777;-0.27000
2930555;-0.28500
2933333;-0.29000
2936110;-0.27000
2938888;-0.27000
2941666;-0.28000
2944444;-0.27500
2947221;-0.29000
2949999;-0.29000
2952777;-0.28000
2955555;-0.28000
2958333;-0.28000
2961110;-0.28500
2963888;-0.31000
2966666;-0.30000
2969444;-0.29500
2972221;-0.28000
2974999;-0.28500
2977777;-0.30500
2980555;-0.31500
2983332;-0.30500
2986110;-0.30500
2988888;-0.29500
2991666;-0.28500
2994444;-0.30500
2997221;-0.32000
2999999;-0.32000
3002777;-0.30000
3005555;-0.30000
3008332;-0.30000
3011110;-0.30500
3013888;-0.31500
3016666;-0.31000
3019444;-0.29500
3022221;-0.27500
3024999;-0.29000
3027777;-0.29500
3030555;-0.31000
3033332;-0.30000
3036110;-0.29500
3038888;-0.29000
3041666;-0.29000
3044444;-0.29500
3047221;-0.31000
3049999;-0.28500
3052777;-0.29000
3055555;-0.29000
3058332;-0.28500
3061110;-0.29500
3063888;-0.30500
3066666;-0.31000
3069444;-0.30000
3072221;-0.28000
3074999;-0.28500
3077777;-0.29500
3080555;-0.30000
3083332;-0.29000
3086110;-0.30000
3088888;-0.27500
3091666;-0.27000
3094444;-0.26500
3097221;-0.26000
3099999;-0.26000
3102777;-0.23500
3105555;-0.20500
3108332;-0.20500
3111110;-0.21500
3113888;-0.23500
3116666;-0.21500
3119444;-0.19500
3122221;-0.18500
3124999;-0.17500
3127777;-0.18000
3130555;-0.18000
3133332;-0.19000
3136110;-0.17500
3138888;-0.17500
3141666;-0.19000
3144444;-0.19500
3147221;-0.21000
3149999;-0.19500
3152777;-0.19000
3155555;-0.19000
3158332;-0.19500
3161110;-0.21000
3163888;-0.21500
3166666;-0.19500
3169444;-0.17000
3172221;-0.17500
3174999;-0.20500
3177777;-0.23000
3180555;-0.24500
3183332;-0.24500
3186110;-0.24500
3188888;-0.26000
3191666;-0.26500
3194444;-0.28500
3197221;-0.29500
3199999;-0.29500
3202777;-0.29500
3205555;-0.30500
3208332;-0.30500
3211110;-0.31500
3213888;-0.31500
3216666;-0.32000
3219444;-0.31500
3222221;-0.30500
3224999;-0.30500
3227777;-0.31500
3230555;-0.32000
3233332;-0.31500
3236110;-0.31500
3238888;-0.29500
3241666;-0.31500
3244444;-0.31000
3247221;-0.32500
3249999;-0.32500
3252777;-0.31500
3255555;-0.30500
3258332;-0.30500
3261110;-0.31500
3263888;-0.33000
3266666;-0.33000
3269444;-0.34000
3272221;-0.36500
3274999;-0.42500
3277777;-0.45000
3280555;-0.47000
3283332;-0.51000
3286110;-0.53500
3288888;-0.49000
3291666;-0.40000
3294444;-0.27000
3297221;-0.11500
3299999;0.09500
3302777;0.37000
3305555;0.64500
3308332;0.83000
3311110;0.87500
3313888;0.76000
3316666;0.46500
3319444;0.07500
3322221;-0.25000
3324999;-0.41500
3327777;-0.44000
3330555;-0.41000
3333332;-0.36500
3336110;-0.34000
3338888;-0.34000
3341666;-0.35000
3344444;-0.34500
3347221;-0.36500
3349999;-0.35500
3352777;-0.36000
3355555;-0.34000
3358332;-0.33000
3361110;-0.34500
3363888;-0.36000
3366666;-0.36000
3369444;-0.34500
3372221;-0.34500
3374999;-0.36000
3377777;-0.35500
3380555;-0.37000
3383332;-0.35500
3386110;-0.35000
3388888;-0.33500
3391666;-0.33500
3394443;-0.34500
3397221;-0.35500
3399999;-0.34000
3402777;-0.34000
3405555;-0.32500
3408332;-0.33500
3411110;-0.35500
3413888;-0.36000
3416666;-0.36000
3419443;-0.34500
3422221;-0.34500
3424999;-0.33500
3427777;-0.34500
3430555;-0.36000
3433332;-0.34500
3436110;-0.33500
3438888;-0.33500
3441666;-0.33000
3444443;-0.35000
3447221;-0.36500
3449999;-0.35000
3452777;-0.34500
3455555;-0.32500
3458332;-0.33500
3461110;-0.34500
3463888;-0.36500
3466666;-0.35500
3469443;-0.35500
3472221;-0.35000
3474999;-0.34500
3477777;-0.34500
3480555;-0.34500
3483332;-0.33500
3486110;-0.33000
3488888;-0.32000
3491666;-0.33000
3494443;-0.32500
3497221;-0.34000
3499999;-0.33000
3502777;-0.33000
3505555;-0.32000
3508332;-0.32500
3511110;-0.34500
3513888;-0.34500
3516666;-0.34500
3519443;-0.34500
3522221;-0.32500
3524999;-0.34000
3527777;-0.33500
3530555;-0.34500
3533332;-0.33500
3536110;-0.33500
3538888;-0.34000
3541666;-0.32500
3544443;-0.34000
3547221;-0.35000
3549999;-0.35500
3552777;-0.34500
3555555;-0.33500
3558332;-0.33500
3561110;-0.34500
3563888;-0.35500
3566666;-0.35500
3569443;-0.35000
3572221;-0.33500
3574999;-0.34500
3577777;-0.35000
3580555;-0.37000
3583332;-0.36000
3586110;-0.35000
3588888;-0.33500
3591666;-0.33000
3594443;-0.34000
3597221;-0.34500
3599999;-0.33000
3602777;-0.32000
3605555;-0.31000
3608332;-0.30000
3611110;-0.30500
3613888;-0.29500
3616666;-0.28500
3619443;-0.27500
3622221;-0.27500
3624999;-0.26000
3627777;-0.26500
3630555;-0.28000
3633332;-0.27000
3636110;-0.26000
3638888;-0.25000
3641666;-0.25500
3644443;-0.25500
3647221;-0.26000
3649999;-0.26000
3652777;-0.25000
3655555;-0.24000
3658332;-0.25500
3661110;-0.25500
3663888;-0.27000
3666666;-0.26000
3669443;-0.25500
3672221;-0.25500
3674999;-0.24500
3677777;-0.25000
3680555;-0.26500
3683332;-0.26500
3686110;-0.24500
3688888;-0.25500
3691666;-0.25500
3694443;-0.25500
3697221;-0.26500
3699999;-0.26500
3702777;-0.26000
3705555;-0.26000
3708332;-0.25500
3711110;-0.27000
3713888;-0.28000
3716666;-0.28500
3719443;-0.27000
3722221;-0.25500
3724999;-0.26000
3727777;-0.27500
3730555;-0.29500
3733332;-0.29500
3736110;-0.28000
3738888;-0.28500
3741666;-0.27000
3744443;-0.29000
3747221;-0.29000
3749999;-0.28500
3752777;-0.29000
3755555;-0.28500
3758332;-0.29000
3761110;-0.30500
3763888;-0.31000
3766666;-0.29000
3769443;-0.29000
3772221;-0.29500
3774999;-0.30000
3777777;-0.31500
3780554;-0.32000
3783332;-0.31500
3786110;-0.30500
3788888;-0.29500
3791666;-0.29000
3794443;-0.30000
3797221;-0.30500
3799999;-0.31000
3802777;-0.29000
3805554;-0.29000
3808332;-0.29500
3811110;-0.31000
3813888;-0.32000
3816666;-0.32000
3819443;-0.31500
3822221;-0.31000
3824999;-0.29500
3827777;-0.29500
3830554;-0.31000
3833332;-0.31000
3836110;-0.30000
3838888;-0.29500
3841666;-0.28500
3844443;-0.29000
3847221;-0.31000
3849999;-0.30500
3852777;-0.30000
3855554;-0.28000
3858332;-0.30000
3861110;-0.31000
3863888;-0.32000
3866666;-0.31500
3869443;-0.30500
3872221;-0.30000
3874999;-0.31000
3877777;-0.30000
3880554;-0.30500
3883332;-0.29000
3886110;-0.28500
3888888;-0.26000
3891666;-0.25500
3894443;-0.25000
3897221;-0.25500
3899999;-0.24500
3902777;-0.24000
3905554;-0.23000
3908332;-0.22000
3911110;-0.22500
3913888;-0.22000
3916666;-0.21000
3919443;-0.20000
3922221;-0.19000
3924999;-0.19500
3927777;-0.20500
3930554;-0.23000
3933332;-0.21000
3936110;-0.20000
3938888;-0.20500
3941666;-0.21500
3944443;-0.21500
3947221;-0.22500
3949999;-0.22500
3952777;-0.22500
3955554;-0.21000
3958332;-0.21000
3961110;-0.20000
3963888;-0.20000
3966666;-0.22000
3969443;-0.22000
3972221;-0.23000
3974999;-0.24000
3977777;-0.25500
3980554;-0.27000
3983332;-0.28000
3986110;-0.28000
3988888;-0.28500
3991666;-0.30000
3994443;-0.31000
3997221;-0.32000
3999999;-0.31000
4002777;-0.31500
4005554;-0.32000
4008332;-0.31000
4011110;-0.32000
4013888;-0.33000
4016666;-0.33000
4019443;-0.32500
4022221;-0.31500
4024999;-0.32000
4027777;-0.32000
4030554;-0.33500
4033332;-0.34500
4036110;-0.33500
4038888;-0.32000
4041666;-0.33500
4044443;-0.33500
4047221;-0.35000
4049999;-0.34000
4052777;-0.33000
4055554;-0.32500
4058332;-0.34000
4061110;-0.33000
4063888;-0.35500
4066666;-0.34500
4069443;-0.34500
4072221;-0.36500
4074999;-0.39000
4077777;-0.42500
4080554;-0.44500
4083332;-0.48500
4086110;-0.53000
4088888;-0.54500
4091666;-0.51000
4094443;-0.43000
4097221;-0.31000
4099999;-0.18000
4102777;-0.01500
4105554;0.21000
4108332;0.46000
4111110;0.68500
4113888;0.82500
4116666;0.88500
4119443;0.78500
4122221;0.51500
4124999;0.17000
4127777;-0.15500
4130554;-0.35000
4133332;-0.43500
4136110;-0.45500
4138888;-0.42500
4141666;-0.39000
4144443;-0.38000
4147221;-0.36500
4149999;-0.37000
4152777;-0.37000
4155554;-0.35000
4158332;-0.35500
4161110;-0.37000
4163888;-0.37500
4166666;-0.38500
4169443;-0.36500
4172221;-0.36500
4174999;-0.36500
4177777;-0.37500
4180554;-0.36500
4183332;-0.37000
4186110;-0.36000
4188888;-0.36000
4191665;-0.37000
4194443;-0.37500
4197221;-0.38000
4199999;-0.36500
4202777;-0.37000
4205554;-0.34500
4208332;-0.35000
4211110;-0.35500
4213888;-0.37000
4216665;-0.37000
4219443;-0.36500
4222221;-0.36000
4224999;-0.36000
4227777;-0.35500
4230554;-0.36000
4233332;-0.36500
4236110;-0.35500
4238888;-0.36500
4241665;-0.37000
4244443;-0.37500
4247221;-0.37000
4249999;-0.37000
4252777;-0.35500
4255554;-0.34500
4258332;-0.36000
4261110;-0.36500
4263888;-0.37500
4266665;-0.37000
4269443;-0.37000
4272221;-0.37000
4274999;-0.37500
4277777;-0.37500
4280554;-0.38000
4283332;-0.37500
4286110;-0.37000
4288888;-0.36000
4291665;-0.36500
4294443;-0.37500
4297221;-0.38000
4299999;-0.36500
4302777;-0.35500
4305554;-0.35500
4308332;-0.36000
4311110;-0.36500
4313888;-0.37500
4316665;-0.36500
4319443;-0.36500
4322221;-0.35000
4324999;-0.34500
4327777;-0.35000
4330554;-0.37000
4333332;-0.37000
4336110;-0.36000
4338888;-0.34500
4341665;-0.34000
4344443;-0.35000
4347221;-0.37000
4349999;-0.36000
4352777;-0.35500
4355554;-0.35500
4358332;-0.36000
4361110;-0.37000
4363888;-0.39000
4366665;-0.38500
4369443;-0.38000
4372221;-0.37500
4374999;-0.38500
4377777;-0.41000
4380554;-0.41500
4383332;-0.40500
4386110;-0.40000
4388888;-0.40000
4391665;-0.39500
4394443;-0.40000
4397221;-0.42000
4399999;-0.42000
4402777;-0.41500
4405554;-0.42000
4408332;-0.42000
4411110;-0.43000
4413888;-0.43500
4416665;-0.41500
4419443;-0.40500
4422221;-0.39000
4424999;-0.37500
4427777;-0.38500
4430554;-0.37500
4433332;-0.36500
4436110;-0.34500
4438888;-0.33500
4441665;-0.32500
4444443;-0.32500
4447221;-0.32000
4449999;-0.30500
4452777;-0.29000
4455554;-0.28000
4458332;-0.28500
4461110;-0.28500
4463888;-0.28000
4466665;-0.28500
4469443;-0.27000
4472221;-0.26000
4474999;-0.26500
4477777;-0.27000
4480554;-0.28000
4483332;-0.28000
4486110;-0.26500
4488888;-0.26500
4491665;-0.26500
4494443;-0.25500
4497221;-0.27500
4499999;-0.27000
4502777;-0.26500
4505554;-0.25500
4508332;-0.26500
4511110;-0.27000
4513888;-0.28000
4516665;-0.28500
4519443;-0.27000
4522221;-0.26000
4524999;-0.26500
4527777;-0.27500
4530554;-0.28500
4533332;-0.27500
4536110;-0.27000
4538888;-0.27000
4541665;-0.26500
4544443;-0.27500
4547221;-0.29500
4549999;-0.29000
4552777;-0.28000
4555554;-0.27000
4558332;-0.27500
4561110;-0.28000
4563888;-0.30000
4566665;-0.29000
4569443;-0.28000
4572221;-0.28500
4574999;-0.28500
4577776;-0.28500
4580554;-0.29500
4583332;-0.30000
4586110;-0.29500
4588888;-0.29000
4591665;-0.29000
4594443;-0.30000
4597221;-0.30500
4599999;-0.30500
4602776;-0.29500
4605554;-0.30500
4608332;-0.29500
4611110;-0.30500
4613888;-0.31000
4616665;-0.32000
4619443;-0.30000
4622221;-0.29500
4624999;-0.30000
4627776;-0.30500
4630554;-0.31000
4633332;-0.31000
4636110;-0.30000
4638888;-0.30000
4641665;-0.29500
4644443;-0.30000
4647221;-0.31000
4649999;-0.30500
4652776;-0.30000
4655554;-0.30000
4658332;-0.29500
4661110;-0.30500
4663888;-0.31500
4666665;-0.31000
4669443;-0.30500
4672221;-0.30000
4674999;-0.28500
4677776;-0.29500
4680554;-0.31500
4683332;-0.30000
4686110;-0.30500
4688888;-0.29500
4691665;-0.29500
4694443;-0.30500
4697221;-0.31000
4699999;-0.30000
4702776;-0.29500
4705554;-0.28000
4708332;-0.29000
4711110;-0.29000
4713888;-0.30500
4716665;-0.29500
4719443;-0.30000
4722221;-0.28500
4724999;-0.27500
4727776;-0.27500
4730554;-0.27000
4733332;-0.26500
4736110;-0.23500
4738888;-0.22500
4741665;-0.23000
4744443;-0.23500
4747221;-0.24500
4749999;-0.24000
4752776;-0.23000
4755554;-0.20500
4758332;-0.21500
4761110;-0.20000
4763888;-0.20000
4766665;-0.18500
4769443;-0.19000
4772221;-0.18500
4774999;-0.19500
4777776;-0.20000
4780554;-0.21500
4783332;-0.22000
4786110;-0.21500
4788888;-0.19500
4791665;-0.19500
4794443;-0.21500
4797221;-0.22000
4799999;-0.22500
4802776;-0.19500
4805554;-0.17000
4808332;-0.17500
4811110;-0.20000
4813888;-0.23500
4816665;-0.25000
4819443;-0.25000
4822221;-0.26000
4824999;-0.27000
4827776;-0.29500
4830554;-0.30500
4833332;-0.30000
4836110;-0.29000
4838888;-0.28500
4841665;-0.29000
4844443;-0.31000
4847221;-0.33000
4849999;-0.32000
4852776;-0.32000
4855554;-0.31500
4858332;-0.31000
4861110;-0.33000
4863888;-0.32500
4866665;-0.31500
4869443;-0.32000
4872221;-0.30500
4874999;-0.31500
4877776;-0.32500
4880554;-0.34500
4883332;-0.33500
4886110;-0.33000
4888888;-0.31000
4891665;-0.32000
4894443;-0.33500
4897221;-0.33500
4899999;-0.34000
4902776;-0.33000
4905554;-0.32000
4908332;-0.32000
4911110;-0.33500
4913888;-0.37000
4916665;-0.40500
4919443;-0.44000
4922221;-0.43500
4924999;-0.47000
4927776;-0.52000
4930554;-0.54500
4933332;-0.50000
4936110;-0.38500
4938888;-0.23500
4941665;-0.09000
4944443;0.08500
4947221;0.31500
4949999;0.58500
4952776;0.79000
4955554;0.90500
4958332;0.92500
4961110;0.77000
4963887;0.44000
4966665;0.04500
4969443;-0.26500
4972221;-0.41000
4974999;-0.47000
4977776;-0.44500
4980554;-0.41500
4983332;-0.37500
4986110;-0.35500
4988887;-0.35500
4991665;-0.35500
4994443;-0.36000
4997221;-0.36500
4999999;-0.36500
5002776;-0.36000
5005554;-0.35000
5008332;-0.34500
5011110;-0.36000
5013887;-0.38000
5016665;-0.38000
5019443;-0.37500
5022221;-0.36000
5024999;-0.37000
5027776;-0.37000
5030554;-0.38500
5033332;-0.37000
5036110;-0.36500
5038887;-0.37000
5041665;-0.35500
5044443;-0.37000
5047221;-0.38000
5049999;-0.37000
5052776;-0.36000
5055554;-0.35000
5058332;-0.35000
5061110;-0.36500
5063887;-0.37000
5066665;-0.37000
5069443;-0.35500
5072221;-0.36000
5074999;-0.35500
5077776;-0.37000
5080554;-0.37500
5083332;-0.36500
5086110;-0.36000
5088887;-0.36000
5091665;-0.35000
5094443;-0.36500
5097221;-0.37500
5099999;-0.36500
5102776;-0.35500
5105554;-0.36000
5108332;-0.35500
5111110;-0.36500
5113887;-0.37000
5116665;-0.36500
5119443;-0.35500
5122221;-0.34500
5124999;-0.34000
5127776;-0.35500
5130554;-0.36000
5133332;-0.37500
5136110;-0.36500
5138887;-0.34500
5141665;-0.36000
5144443;-0.36500
5147221;-0.36500
5149999;-0.36500
5152776;-0.36000
5155554;-0.35500
5158332;-0.35500
5161110;-0.34500
5163887;-0.36500
5166665;-0.35000
5169443;-0.35500
5172221;-0.34500
5174999;-0.34000
5177776;-0.35000
5180554;-0.36000
5183332;-0.36000
5186110;-0.35000
5188887;-0.34500
5191665;-0.35000
5194443;-0.35500
5197221;-0.36500
5199999;-0.37000
5202776;-0.36500
5205554;-0.36000
5208332;-0.36000
5211110;-0.38000
5213887;-0.39000
5216665;-0.40500
5219443;-0.38500
5222221;-0.37500
5224999;-0.37500
5227776;-0.38500
5230554;-0.39000
5233332;-0.39000
5236110;-0.38500
5238887;-0.37000
5241665;-0.38000
5244443;-0.38500
5247221;-0.38500
5249999;-0.38000
5252776;-0.37000
5255554;-0.36500
5258332;-0.36500
5261110;-0.36500
5263887;-0.35000
5266665;-0.34500
5269443;-0.33000
5272221;-0.31000
5274999;-0.30000
5277776;-0.30000
5280554;-0.30500
5283332;-0.29000
5286110;-0.27500
5288887;-0.26000
5291665;-0.25500
5294443;-0.26000
5297221;-0.28000
5299999;-0.26000
5302776;-0.24500
5305554;-0.23500
5308332;-0.23000
5311110;-0.23500
5313887;-0.24500
5316665;-0.24000
5319443;-0.22500
5322221;-0.23000
5324999;-0.22500
5327776;-0.23000
5330554;-0.24000
5333332;-0.24000
5336110;-0.23000
5338887;-0.22500
5341665;-0.23000
5344443;-0.24000
5347221;-0.24500
5349999;-0.23500
5352776;-0.23000
5355554;-0.22500
5358332;-0.23000
5361110;-0.23500
5363887;-0.25500
5366665;-0.26000
5369443;-0.24500
5372221;-0.24000
5374998;-0.23500
5377776;-0.24000
5380554;-0.25000
5383332;-0.24000
5386110;-0.23500
5388887;-0.23000
5391665;-0.23500
5394443;-0.25500
5397221;-0.26000
5399998;-0.26000
5402776;-0.25000
5405554;-0.24000
5408332;-0.24500
5411110;-0.25000
5413887;-0.26500
5416665;-0.26500
5419443;-0.25000
5422221;-0.24000
5424998;-0.26000
5427776;-0.26500
5430554;-0.28000
5433332;-0.27000
5436110;-0.27000
5438887;-0.25500
5441665;-0.26500
5444443;-0.26500
5447221;-0.29000
5449998;-0.28000
5452776;-0.27000
5455554;-0.26500
5458332;-0.26500
5461110;-0.27000
5463887;-0.27500
5466665;-0.27000
5469443;-0.26500
5472221;-0.27500
5474998;-0.28000
5477776;-0.28500
5480554;-0.28500
5483332;-0.29500
5486110;-0.28000
5488887;-0.27500
5491665;-0.26000
5494443;-0.27500
5497221;-0.29000
5499998;-0.29000
5502776;-0.28000
5505554;-0.27000
5508332;-0.26500
5511110;-0.27500
5513887;-0.29000
5516665;-0.28500
5519443;-0.27500
5522221;-0.27000
5524998;-0.28000
5527776;-0.27500
5530554;-0.27500
5533332;-0.27500
5536110;-0.27000
5538887;-0.25500
5541665;-0.25500
5544443;-0.25500
5547221;-0.27500
5549998;-0.28500
5552776;-0.26500
5555554;-0.25000
5558332;-0.26000
5561110;-0.26000
5563887;-0.26500
5566665;-0.23500
5569443;-0.22000
5572221;-0.20000
5574998;-0.20500
5577776;-0.20000
5580554;-0.21500
5583332;-0.20000
5586110;-0.20000
5588887;-0.18500
5591665;-0.17000
5594443;-0.16500
5597221;-0.15500
5599998;-0.16500
5602776;-0.15500
5605554;-0.15000
5608332;-0.16000
5611110;-0.16000
5613887;-0.17500
5616665;-0.18000
5619443;-0.18000
5622221;-0.17500
5624998;-0.17500
5627776;-0.18000
5630554;-0.19500
5633332;-0.19000
5636110;-0.19000
5638887;-0.18000
5641665;-0.16500
5644443;-0.14500
5647221;-0.16000
5649998;-0.17500
5652776;-0.19000
5655554;-0.21500
5658332;-0.23000
5661110;-0.24500
5663887;-0.26500
5666665;-0.27500
5669443;-0.28000
5672221;-0.27000
5674998;-0.28000
5677776;-0.29500
5680554;-0.29000
5683332;-0.29500
5686110;-0.29500
5688887;-0.29000
5691665;-0.29000
5694443;-0.29500
5697221;-0.31000
5699998;-0.30500
5702776;-0.29500
5705554;-0.29000
5708332;-0.30000
5711110;-0.30500
5713887;-0.31000
5716665;-0.30500
5719443;-0.29000
5722221;-0.28500
5724998;-0.30000
5727776;-0.31000
5730554;-0.32000
5733332;-0.32500
5736110;-0.34000
5738887;-0.36500
5741665;-0.40500
5744443;-0.44000
5747221;-0.46000
5749998;-0.49500
5752776;-0.52000
5755554;-0.48500
5758332;-0.40500
5761109;-0.28500
5763887;-0.15000
5766665;0.01000
5769443;0.20500
5772221;0.49000
5774998;0.74500
5777776;0.92500
5780554;0.99000
5783332;0.95000
5786109;0.73500
5788887;0.36500
5791665;-0.03500
5794443;-0.32000
5797221;-0.43500
5799998;-0.45500
5802776;-0.44000
5805554;-0.41500
5808332;-0.40000
5811109;-0.37500
5813887;-0.34500
5816665;-0.34000
5819443;-0.32500
5822221;-0.32500
5824998;-0.35000
5827776;-0.34500
5830554;-0.34500
5833332;-0.33500
5836109;-0.33000
5838887;-0.32500
5841665;-0.33000
5844443;-0.34000
5847221;-0.35000
5849998;-0.35000
5852776;-0.33500
5855554;-0.33500
5858332;-0.33500
5861109;-0.35000
5863887;-0.36000
5866665;-0.34500
5869443;-0.34500
5872221;-0.35000
5874998;-0.33500
5877776;-0.33500
5880554;-0.35000
5883332;-0.33500
5886109;-0.33000
5888887;-0.32000
5891665;-0.32500
5894443;-0.33500
5897221;-0.33500
5899998;-0.33500
5902776;-0.33500
5905554;-0.33000
5908332;-0.33500
5911109;-0.33000
5913887;-0.34500
5916665;-0.34000
5919443;-0.33000
5922221;-0.32000
5924998;-0.33000
5927776;-0.32500
5930554;-0.34500
5933332;-0.34000
5936109;-0.33000
5938887;-0.32500
5941665;-0.32500
5944443;-0.32500
5947221;-0.34000
5949998;-0.33000
5952776;-0.32000
5955554;-0.32000
5958332;-0.32500
5961109;-0.33500
5963887;-0.34000
5966665;-0.33000
5969443;-0.32000
5972221;-0.31000
5974998;-0.31500
5977776;-0.32000
5980554;-0.33000
5983332;-0.32000
5986109;-0.32000
5988887;-0.32000
5991665;-0.31000
5994443;-0.32500
5997221;-0.32000
5999998;-0.33000
6002776;-0.31500
6005554;-0.31000
6008332;-0.31000
6011109;-0.33000
6013887;-0.34500
6016665;-0.34500
6019443;-0.33000
6022221;-0.33000
6024998;-0.32500
6027776;-0.33000
6030554;-0.33500
6033332;-0.32500
6036109;-0.33000
6038887;-0.31500
6041665;-0.32500
6044443;-0.32500
6047221;-0.35000
6049998;-0.34500
6052776;-0.33500
6055554;-0.31500
6058332;-0.33000
6061109;-0.32500
6063887;-0.34500
6066665;-0.34500
6069443;-0.33500
6072221;-0.33000
6074998;-0.33000
6077776;-0.33500
6080554;-0.34000
6083332;-0.34500
6086109;-0.31500
6088887;-0.29500
6091665;-0.29500
6094443;-0.29000
6097221;-0.29000
6099998;-0.27500
6102776;-0.26500
6105554;-0.26500
6108332;-0.24500
6111109;-0.25000
6113887;-0.26000
6116665;-0.25000
6119443;-0.24000
6122221;-0.22500
6124998;-0.23000
6127776;-0.23000
6130554;-0.24000
6133332;-0.23500
6136109;-0.22500
6138887;-0.22000
6141665;-0.22000
6144443;-0.22500
6147221;-0.24500
6149998;-0.24000
6152776;-0.23000
6155554;-0.23000
6158332;-0.22000
6161109;-0.23000
6163887;-0.24000
6166665;-0.23500
6169443;-0.22500
6172220;-0.23000
6174998;-0.22000
6177776;-0.23500
6180554;-0.24500
6183332;-0.24000
6186109;-0.23500
6188887;-0.23500
6191665;-0.24000
6194443;-0.25000
6197220;-0.25000
6199998;-0.25000
6202776;-0.24500
6205554;-0.24500
6208332;-0.24500
6211109;-0.25500
6213887;-0.26500
6216665;-0.26500
6219443;-0.24500
6222220;-0.24000
6224998;-0.25000
6227776;-0.25500
6230554;-0.27000
6233332;-0.26500
6236109;-0.26500
6238887;-0.25500
6241665;-0.27000
6244443;-0.27000
6247220;-0.28500
6249998;-0.27500
6252776;-0.26500
6255554;-0.26000
6258332;-0.26500
6261109;-0.27500
6263887;-0.28000
6266665;-0.29000
6269443;-0.28000
6272220;-0.27000
6274998;-0.28000
6277776;-0.28000
6280554;-0.29000
6283332;-0.29500
6286109;-0.27000
6288887;-0.26500
6291665;-0.27500
6294443;-0.27000
6297220;-0.28000
6299998;-0.28000
6302776;-0.27500
6305554;-0.27500
6308332;-0.29000
6311109;-0.29000
6313887;-0.30500
6316665;-0.29000
6319443;-0.28000
6322220;-0.27000
6324998;-0.27000
6327776;-0.28000
6330554;-0.27500
6333332;-0.28000
6336109;-0.27500
6338887;-0.26000
6341665;-0.26500
6344443;-0.28500
6347220;-0.28000
6349998;-0.28000
6352776;-0.26000
6355554;-0.26000
6358332;-0.26500
6361109;-0.26500
6363887;-0.26500
6366665;-0.28000
6369443;-0.26500
6372220;-0.26000
6374998;-0.27000
6377776;-0.27000
6380554;-0.26500
6383332;-0.23500
6386109;-0.21500
6388887;-0.19500
6391665;-0.20000
6394443;-0.20500
6397220;-0.21000
6399998;-0.19000
6402776;-0.17500
6405554;-0.17000
6408332;-0.16500
6411109;-0.17000
6413887;-0.17000
6416665;-0.15500
6419443;-0.15500
6422220;-0.15500
6424998;-0.17500
6427776;-0.17500
6430554;-0.18000
6433332;-0.18500
6436109;-0.17000
6438887;-0.17500
6441665;-0.16500
6444443;-0.17500
6447220;-0.19500
6449998;-0.20500
6452776;-0.19000
6455554;-0.15000
6458332;-0.14000
6461109;-0.16000
6463887;-0.19500
6466665;-0.22000
6469443;-0.22500
6472220;-0.24000
6474998;-0.26000
6477776;-0.27500
6480554;-0.28500
6483332;-0.28500
6486109;-0.28000
6488887;-0.27500
6491665;-0.27000
6494443;-0.27500
6497220;-0.28500
6499998;-0.29000
6502776;-0.28500
6505554;-0.29000
6508332;-0.29000
6511109;-0.31000
6513887;-0.31000
6516665;-0.30500
6519443;-0.29500
6522220;-0.28500
6524998;-0.28000
6527776;-0.29500
6530554;-0.31000
6533332;-0.32000
6536109;-0.30500
6538887;-0.29000
6541665;-0.29500
6544443;-0.31500
6547220;-0.32000
6549998;-0.33500
6552776;-0.36500
6555554;-0.37000
6558331;-0.41000
6561109;-0.43500
6563887;-0.46000
6566665;-0.50500
6569443;-0.51500
6572220;-0.46000
6574998;-0.35500
6577776;-0.21500
6580554;-0.04500
6583331;0.20000
6586109;0.49000
6588887;0.73000
6591665;0.87500
6594443;0.88000
6597220;0.70000
6599998;0.33500
6602776;-0.04500
6605554;-0.30000
6608331;-0.40000
6611109;-0.42000
6613887;-0.39500
6616665;-0.36000
6619443;-0.33500
6622220;-0.32500
6624998;-0.32500
6627776;-0.31500
6630554;-0.33000
6633331;-0.33500
6636109;-0.33000
6638887;-0.33000
6641665;-0.32500
6644443;-0.33500
6647220;-0.35000
6649998;-0.34000
6652776;-0.34000
6655554;-0.33000
6658331;-0.32500
6661109;-0.34500
6663887;-0.35000
6666665;-0.34500
6669443;-0.33500
6672220;-0.32500
6674998;-0.33500
6677776;-0.34500
6680554;-0.36000
6683331;-0.34500
6686109;-0.34500
6688887;-0.33000
6691665;-0.33500
6694443;-0.34000
6697220;-0.35500
6699998;-0.34000
6702776;-0.34500
6705554;-0.33000
6708331;-0.33000
6711109;-0.34000
6713887;-0.35000
6716665;-0.35500
6719443;-0.35000
6722220;-0.33500
6724998;-0.34500
6727776;-0.35000
6730554;-0.36000
6733331;-0.35500
6736109;-0.34000
6738887;-0.34500
6741665;-0.34500
6744443;-0.34500
6747220;-0.36000
6749998;-0.35000
6752776;-0.34500
6755554;-0.33000
6758331;-0.33000
6761109;-0.34500
6763887;-0.34500
6766665;-0.34500
6769443;-0.34500
6772220;-0.32500
6774998;-0.33000
6777776;-0.34000
6780554;-0.36000
6783331;-0.35000
6786109;-0.34500
6788887;-0.33000
6791665;-0.33000
6794443;-0.33500
6797220;-0.34500
6799998;-0.35000
6802776;-0.34000
6805554;-0.33500
6808331;-0.34500
6811109;-0.36000
6813887;-0.37000
6816665;-0.36000
6819443;-0.36000
6822220;-0.33000
6824998;-0.34500
6827776;-0.36500
6830554;-0.37000
6833331;-0.36000
6836109;-0.37000
6838887;-0.36500
6841665;-0.36500
6844443;-0.38000
6847220;-0.38000
6849998;-0.38000
6852776;-0.36500
6855554;-0.36500
6858331;-0.36500
6861109;-0.36500
6863887;-0.37500
6866665;-0.38500
6869443;-0.38500
6872220;-0.36500
6874998;-0.36500
6877776;-0.37000
6880554;-0.37000
6883331;-0.36000
6886109;-0.34000
6888887;-0.32000
6891665;-0.31000
6894443;-0.30500
6897220;-0.31000
6899998;-0.29500
6902776;-0.30000
6905554;-0.29500
6908331;-0.27500
6911109;-0.27500
6913887;-0.28500
6916665;-0.29000
6919443;-0.27000
6922220;-0.26000
6924998;-0.26000
6927776;-0.27500
6930554;-0.28000
6933331;-0.28500
6936109;-0.26500
6938887;-0.27500
6941665;-0.27000
6944442;-0.27000
6947220;-0.28500
6949998;-0.29000
6952776;-0.27500
6955554;-0.26000
6958331;-0.26500
6961109;-0.26500
6963887;-0.28500
6966665;-0.28000
6969442;-0.27500
6972220;-0.27500
6974998;-0.27500
6977776;-0.28500
6980554;-0.30500
6983331;-0.29500
6986109;-0.28000
6988887;-0.28500
6991665;-0.27500
6994442;-0.28500
6997220;-0.30500
6999998;-0.30000
7002776;-0.30000
7005554;-0.29000
7008331;-0.29000
7011109;-0.29000
7013887;-0.31000
7016665;-0.31500
7019442;-0.29500
7022220;-0.29000
7024998;-0.29000
7027776;-0.30500
7030554;-0.32000
7033331;-0.31500
7036109;-0.30500
7038887;-0.30500
7041665;-0.31500
7044442;-0.32000
7047220;-0.33000
7049998;-0.32000
7052776;-0.32000
7055554;-0.31000
7058331;-0.32000
7061109;-0.32000
7063887;-0.34000
7066665;-0.34000
7069442;-0.33500
7072220;-0.32500
7074998;-0.31500
7077776;-0.33000
7080554;-0.34500
7083331;-0.35000
7086109;-0.34000
7088887;-0.32500
7091665;-0.32000
7094442;-0.33500
7097220;-0.34000
7099998;-0.33000
7102776;-0.32500
7105554;-0.31500
7108331;-0.32000
7111109;-0.32000
7113887;-0.34000
7116665;-0.34000
7119442;-0.33000
7122220;-0.34000
7124998;-0.33500
7127776;-0.35000
7130554;-0.36000
7133331;-0.34500
7136109;-0.34000
7138887;-0.33000
7141665;-0.32500
7144442;-0.33000
7147220;-0.34000
7149998;-0.34500
7152776;-0.33500
7155554;-0.32500
7158331;-0.32000
7161109;-0.34000
7163887;-0.32500
7166665;-0.30500
7169442;-0.29000
7172220;-0.27000
7174998;-0.27500
7177776;-0.28000
7180554;-0.28500
7183331;-0.28000
7186109;-0.25500
7188887;-0.23500
7191665;-0.24500
7194442;-0.23500
7197220;-0.24500
7199998;-0.24000
7202776;-0.24000
7205554;-0.24000
7208331;-0.24500
7211109;-0.25000
7213887;-0.26000
7216665;-0.25000
7219442;-0.25000
7222220;-0.25000
7224998;-0.27000
7227776;-0.27000
7230554;-0.26500
7233331;-0.24000
7236109;-0.23500
7238887;-0.24000
7241665;-0.26500
7244442;-0.30000
7247220;-0.32500
7249998;-0.33000
7252776;-0.34500
7255554;-0.33500
7258331;-0.33500
7261109;-0.36500
7263887;-0.38000
7266665;-0.36000
7269442;-0.35500
7272220;-0.34500
7274998;-0.35500
7277776;-0.36000
7280554;-0.37500
7283331;-0.36000
7286109;-0.36000
7288887;-0.35000
7291665;-0.35500
7294442;-0.36500
7297220;-0.37500
7299998;-0.37000
7302776;-0.36000
7305554;-0.35000
7308331;-0.36000
7311109;-0.38500
7313887;-0.40000
7316665;-0.38000
7319442;-0.36500
7322220;-0.35500
7324998;-0.35000
7327776;-0.38000
7330554;-0.41500
7333331;-0.45000
7336109;-0.47500
7338887;-0.47500
7341665;-0.50500
7344442;-0.56000
7347220;-0.58000
7349998;-0.51000
7352776;-0.38000
7355553;-0.23500
7358331;-0.06000
7361109;0.16500
7363887;0.42000
7366665;0.67500
7369442;0.83500
7372220;0.85500
7374998;0.68000
7377776;0.31500
7380553;-0.07000
7383331;-0.33500
7386109;-0.46500
7388887;-0.49500
7391665;-0.47500
7394442;-0.43500
7397220;-0.41000
7399998;-0.40500
7402776;-0.40500
7405553;-0.40000
7408331;-0.41500
7411109;-0.40500
7413887;-0.41500
7416665;-0.40500
7419442;-0.40000
7422220;-0.39500
7424998;-0.39500
7427776;-0.41500
7430553;-0.42500
7433331;-0.42500
7436109;-0.42500
7438887;-0.41000
7441665;-0.40500
7444442;-0.42000
7447220;-0.42000
7449998;-0.42000
7452776;-0.41500
7455553;-0.40000
7458331;-0.41500
7461109;-0.42000
7463887;-0.41500
7466665;-0.42000
7469442;-0.41500
7472220;-0.40500
7474998;-0.41500
7477776;-0.42500
7480553;-0.43500
7483331;-0.42500
7486109;-0.43000
7488887;-0.41500
7491665;-0.42000
7494442;-0.43000
7497220;-0.43000
7499998;-0.42500
7502776;-0.42500
7505553;-0.41500
7508331;-0.42000
7511109;-0.43000
7513887;-0.43500
7516665;-0.42500
7519442;-0.41500
7522220;-0.41000
7524998;-0.41000
7527776;-0.41500
7530553;-0.42500
7533331;-0.42000
7536109;-0.42000
7538887;-0.42000
7541665;-0.41500
7544442;-0.42000
7547220;-0.42000
7549998;-0.41500
7552776;-0.41000
7555553;-0.41000
7558331;-0.41500
7561109;-0.41000
7563887;-0.42000
7566665;-0.42000
7569442;-0.40500
7572220;-0.40000
7574998;-0.39500
7577776;-0.41000
7580553;-0.41500
7583331;-0.43000
7586109;-0.41500
7588887;-0.42500
7591665;-0.43000
7594442;-0.44500
7597220;-0.45500
7599998;-0.45000
7602776;-0.43500
7605553;-0.43500
7608331;-0.44500
7611109;-0.45500
7613887;-0.47000
7616665;-0.47000
7619442;-0.46500
7622220;-0.46500
7624998;-0.46500
7627776;-0.46500
7630553;-0.48000
7633331;-0.47500
7636109;-0.47000
7638887;-0.46000
7641665;-0.46000
7644442;-0.46500
7647220;-0.48000
7649998;-0.48500
7652776;-0.46000
7655553;-0.45000
7658331;-0.44500
7661109;-0.44000
7663887;-0.44500
7666665;-0.43500
7669442;-0.43500
7672220;-0.41000
7674998;-0.40000
7677776;-0.38500
7680553;-0.39000
7683331;-0.37500
7686109;-0.36000
7688887;-0.35500
7691665;-0.33500
7694442;-0.32500
7697220;-0.33500
7699998;-0.33000
7702776;-0.32000
7705553;-0.31500
7708331;-0.30500
7711109;-0.31500
7713887;-0.33000
7716665;-0.32000
7719442;-0.31500
7722220;-0.31000
7724998;-0.29500
7727776;-0.31500
7730553;-0.32500
7733331;-0.30500
7736109;-0.31500
7738887;-0.30500
7741664;-0.31000
7744442;-0.29500
7747220;-0.32000
7749998;-0.32000
7752776;-0.31000
7755553;-0.29500
7758331;-0.29500
7761109;-0.30500
7763887;-0.32500
7766664;-0.32000
7769442;-0.31000
7772220;-0.30500
7774998;-0.32000
7777776;-0.31500
7780553;-0.33500
7783331;-0.32500
7786109;-0.33500
7788887;-0.33000
7791664;-0.32000
7794442;-0.32000
7797220;-0.33500
7799998;-0.33500
7802776;-0.35000
7805553;-0.34500
7808331;-0.33000
7811109;-0.33500
7813887;-0.34500
7816664;-0.33500
7819442;-0.33500
7822220;-0.33500
7824998;-0.33500
7827776;-0.33000
7830553;-0.35500
7833331;-0.35500
7836109;-0.34000
7838887;-0.33500
7841664;-0.34000
7844442;-0.35000
7847220;-0.35500
7849998;-0.35500
7852776;-0.35000
7855553;-0.34000
7858331;-0.34000
7861109;-0.35000
7863887;-0.36000
7866664;-0.35000
7869442;-0.34500
7872220;-0.34000
7874998;-0.35000
7877776;-0.36000
7880553;-0.36500
7883331;-0.35500
7886109;-0.34500
7888887;-0.33000
7891664;-0.33000
7894442;-0.34000
7897220;-0.36000
7899998;-0.35500
7902776;-0.34000
7905553;-0.33500
7908331;-0.34000
7911109;-0.34500
7913887;-0.35000
7916664;-0.36000
7919442;-0.34500
7922220;-0.33500
7924998;-0.32500
7927776;-0.33000
7930553;-0.35000
7933331;-0.35000
7936109;-0.34000
7938887;-0.34000
7941664;-0.33500
7944442;-0.34000
7947220;-0.35500
7949998;-0.34500
7952776;-0.33500
7955553;-0.33500
7958331;-0.31500
7961109;-0.31500
7963887;-0.31000
7966664;-0.29500
7969442;-0.28000
7972220;-0.27500
7974998;-0.27000
7977776;-0.27500
7980553;-0.27000
7983331;-0.27000
7986109;-0.24500
7988887;-0.22500
7991664;-0.22500
7994442;-0.23000
7997220;-0.24000
7999998;-0.24500
8002776;-0.23500
8005553;-0.24000
8008331;-0.24000
8011109;-0.25000
8013887;-0.26000
8016664;-0.26500
8019442;-0.25500
8022220;-0.25500
8024998;-0.26500
8027776;-0.27000
8030553;-0.26500
8033331;-0.25000
8036109;-0.22500
8038887;-0.20000
8041664;-0.22000
8044442;-0.25500
8047220;-0.28500
8049998;-0.30500
8052776;-0.30000
8055553;-0.31000
8058331;-0.33000
8061109;-0.34500
8063887;-0.35000
8066664;-0.36500
8069442;-0.35500
8072220;-0.35000
8074998;-0.35000
8077776;-0.36000
8080553;-0.37000
8083331;-0.37500
8086109;-0.35500
8088887;-0.35000
8091664;-0.35000
8094442;-0.36500
8097220;-0.37000
8099998;-0.36500
8102776;-0.36000
8105553;-0.35000
8108331;-0.35500
8111109;-0.36500
8113887;-0.38000
8116664;-0.36500
8119442;-0.36500
8122220;-0.36500
8124998;-0.37500
8127776;-0.42500
8130553;-0.47500
8133331;-0.49500
8136109;-0.53000
8138887;-0.56000
8141664;-0.57500
8144442;-0.51500
8147220;-0.40000
8149998;-0.23500
8152775;-0.06500
8155553;0.13500
8158331;0.39500
8161109;0.66000
8163887;0.84500
8166664;0.96000
8169442;1.06500
8172220;1.12000
8174998;1.07500
8177775;0.85500
8180553;0.45000
8183331;0.00500
8186109;-0.34500
8188887;-0.49000
8191664;-0.49000
8194442;-0.43500
8197220;-0.39000
8199998;-0.38500
8202775;-0.40000
8205553;-0.40000
8208331;-0.38500
8211109;-0.39000
8213887;-0.41000
8216664;-0.40000
8219442;-0.40000
8222220;-0.39500
8224998;-0.39000
8227775;-0.40000
8230553;-0.41000
8233331;-0.40500
8236109;-0.40500
8238887;-0.40000
8241664;-0.40500
8244442;-0.41000
8247220;-0.42500
8249998;-0.42000
8252775;-0.41500
8255553;-0.40000
8258331;-0.39500
8261109;-0.40000
8263887;-0.41500
8266664;-0.40500
8269442;-0.40000
8272220;-0.38000
8274998;-0.40000
8277775;-0.39000
8280553;-0.41000
8283331;-0.40500
8286109;-0.40500
8288887;-0.39500
8291664;-0.39500
8294442;-0.39500
8297220;-0.42000
8299998;-0.41500
8302775;-0.40500
8305553;-0.38500
8308331;-0.38500
8311109;-0.39500
8313887;-0.40000
8316664;-0.41500
8319442;-0.40500
8322220;-0.39000
8324998;-0.39000
8327775;-0.40500
8330553;-0.42000
8333331;-0.41500
8336109;-0.40500
8338887;-0.39000
8341664;-0.40500
8344442;-0.40000
8347220;-0.41000
8349998;-0.40500
8352775;-0.40000
8355553;-0.39000
8358331;-0.39000
8361109;-0.40000
8363887;-0.40000
8366664;-0.41000
8369442;-0.40500
8372220;-0.40000
8374998;-0.40000
8377775;-0.40500
8380553;-0.41500
8383331;-0.41000
8386109;-0.40000
8388887;-0.39500
8391664;-0.39500
8394442;-0.41000
8397220;-0.42000
8399998;-0.41500
8402775;-0.41500
8405553;-0.41000
8408331;-0.41000
8411109;-0.41500
8413887;-0.42500
8416664;-0.42000
8419442;-0.42000
8422220;-0.41000
8424998;-0.41000
8427775;-0.41000
8430553;-0.42500
8433331;-0.42000
8436109;-0.42000
8438887;-0.41000
8441664;-0.40500
8444442;-0.41000
8447220;-0.41000
8449998;-0.40500
8452775;-0.40000
8455553;-0.38500
8458331;-0.38000
8461109;-0.37000
8463887;-0.36000
8466664;-0.35000
8469442;-0.34000
8472220;-0.32000
8474998;-0.31000
8477775;-0.32000
8480553;-0.31500
8483331;-0.32000
8486109;-0.30000
8488887;-0.30000
8491664;-0.29500
8494442;-0.30000
8497220;-0.31500
8499998;-0.30500
8502775;-0.28500
8505553;-0.29000
8508331;-0.29000
8511109;-0.30000
8513887;-0.31500
8516664;-0.31000
8519442;-0.29500
8522220;-0.29000
8524998;-0.29000
8527775;-0.29500
8530553;-0.31500
8533331;-0.30000
8536109;-0.29500
8538886;-0.30000
8541664;-0.30500
8544442;-0.30500
8547220;-0.31500
8549998;-0.31500
8552775;-0.31500
8555553;-0.31500
8558331;-0.30500
8561109;-0.32000
8563886;-0.32000
8566664;-0.33000
8569442;-0.32000
8572220;-0.30500
8574998;-0.31500
8577775;-0.32000
8580553;-0.33500
8583331;-0.34000
8586109;-0.33500
8588886;-0.31500
8591664;-0.32000
8594442;-0.32000
8597220;-0.35000
8599998;-0.35000
8602775;-0.34000
8605553;-0.34000
8608331;-0.33500
8611109;-0.33500
8613886;-0.34500
8616664;-0.34500
8619442;-0.33500
8622220;-0.32500
8624998;-0.33500
8627775;-0.35000
8630553;-0.35000
8633331;-0.35500
8636109;-0.34000
8638886;-0.33000
8641664;-0.33500
8644442;-0.34500
8647220;-0.35500
8649998;-0.35000
8652775;-0.34500
8655553;-0.33500
8658331;-0.34000
8661109;-0.34000
8663886;-0.35000
8666664;-0.35000
8669442;-0.34500
8672220;-0.34000
8674998;-0.34000
8677775;-0.35500
8680553;-0.36000
8683331;-0.35500
8686109;-0.34500
8688886;-0.33500
8691664;-0.35000
8694442;-0.35000
8697220;-0.35500
8699998;-0.36000
8702775;-0.35000
8705553;-0.34000
8708331;-0.34500
8711109;-0.34500
8713886;-0.35500
8716664;-0.34500
8719442;-0.33000
8722220;-0.32500
8724998;-0.33000
8727775;-0.33500
8730553;-0.34000
8733331;-0.34500
8736109;-0.33000
8738886;-0.32000
8741664;-0.31500
8744442;-0.32500
8747220;-0.31000
8749998;-0.30500
8752775;-0.27000
8755553;-0.28000
8758331;-0.25500
8761109;-0.27000
8763886;-0.27500
8766664;-0.27000
8769442;-0.25000
8772220;-0.24000
8774998;-0.23000
8777775;-0.22500
8780553;-0.24500
8783331;-0.23500
8786109;-0.24000
8788886;-0.22500
8791664;-0.23000
8794442;-0.24500
8797220;-0.26000
8799998;-0.26000
8802775;-0.26000
8805553;-0.24500
8808331;-0.25500
8811109;-0.26500
8813886;-0.27500
8816664;-0.25000
8819442;-0.22000
8822220;-0.20000
8824998;-0.23000
8827775;-0.25000
8830553;-0.28500
8833331;-0.28000
8836109;-0.28500
8838886;-0.28000
8841664;-0.29000
8844442;-0.32000
8847220;-0.34000
8849998;-0.33000
8852775;-0.34500
8855553;-0.33500
8858331;-0.34000
8861109;-0.36000
8863886;-0.37000
8866664;-0.35500
8869442;-0.35000
8872220;-0.35000
8874998;-0.35000
8877775;-0.37000
8880553;-0.37000
8883331;-0.38000
8886109;-0.36000
8888886;-0.35500
8891664;-0.36000
8894442;-0.37000
8897220;-0.38000
8899998;-0.37500
8902775;-0.38000
8905553;-0.37000
8908331;-0.36500
8911109;-0.38000
8913886;-0.38500
8916664;-0.40000
8919442;-0.42500
8922220;-0.45500
8924998;-0.48000
8927775;-0.50500
8930553;-0.54000
8933331;-0.58500
8936109;-0.59000
8938886;-0.50000
8941664;-0.36000
8944442;-0.23000
8947220;-0.08000
8949997;0.14500
8952775;0.44500
8955553;0.69000
8958331;0.85500
8961109;0.89500
8963886;0.73500
8966664;0.40500
8969442;-0.01500
8972220;-0.35000
8974997;-0.50000
8977775;-0.51500
8980553;-0.47000
8983331;-0.42500
8986109;-0.40500
8988886;-0.39000
8991664;-0.39500
8994442;-0.39500
8997220;-0.40500
8999997;-0.40000
9002775;-0.40000
9005553;-0.40000
9008331;-0.40500
9011109;-0.40500
9013886;-0.41500
9016664;-0.40000
9019442;-0.41000
9022220;-0.39500
9024997;-0.40000
9027775;-0.40500
9030553;-0.42000
9033331;-0.41500
9036109;-0.40500
9038886;-0.39500
9041664;-0.40000
9044442;-0.41000
9047220;-0.42000
9049997;-0.42000
9052775;-0.39500
9055553;-0.39500
9058331;-0.39000
9061109;-0.41000
9063886;-0.41500
9066664;-0.40500
9069442;-0.40000
9072220;-0.39500
9074997;-0.39000
9077775;-0.40000
9080553;-0.41500
9083331;-0.40500
9086109;-0.39500
9088886;-0.40000
9091664;-0.39500
9094442;-0.40000
9097220;-0.41500
9099997;-0.41000
9102775;-0.40500
9105553;-0.39000
9108331;-0.40000
9111109;-0.40000
9113886;-0.40500
9116664;-0.41000
9119442;-0.39500
9122220;-0.39500
9124997;-0.39000
9127775;-0.39000
9130553;-0.40000
9133331;-0.40500
9136109;-0.38500
9138886;-0.39500
9141664;-0.38500
9144442;-0.40000
9147220;-0.40500
9149997;-0.40000
9152775;-0.39000
9155553;-0.39000
9158331;-0.38500
9161109;-0.39500
9163886;-0.40500
9166664;-0.39500
9169442;-0.39500
9172220;-0.38000
9174997;-0.38500
9177775;-0.38000
9180553;-0.39500
9183331;-0.40500
9186109;-0.39000
9188886;-0.38500
9191664;-0.38500
9194442;-0.40000
9197220;-0.40500
9199997;-0.40000
9202775;-0.39500
9205553;-0.38000
9208331;-0.38000
9211109;-0.39500
9213886;-0.40000
9216664;-0.40000
9219442;-0.40500
9222220;-0.40500
9224997;-0.41000
9227775;-0.41500
9230553;-0.42000
9233331;-0.41000
9236109;-0.39000
9238886;-0.38500
9241664;-0.36500
9244442;-0.37000
9247220;-0.37500
9249997;-0.36000
9252775;-0.36500
9255553;-0.36000
9258331;-0.33000
9261109;-0.35000
9263886;-0.34000
9266664;-0.32000
9269442;-0.29500
9272220;-0.28500
9274997;-0.28500
9277775;-0.30500
9280553;-0.31000
9283331;-0.30000
9286109;-0.30500
9288886;-0.28000
9291664;-0.28000
9294442;-0.28000
9297220;-0.29500
9299997;-0.29000
9302775;-0.28500
9305553;-0.28500
9308331;-0.29000
9311109;-0.29000
9313886;-0.31000
9316664;-0.31000
9319442;-0.29500
9322220;-0.29500
9324997;-0.30000
9327775;-0.30000
9330553;-0.31000
9333331;-0.30000
9336108;-0.29500
9338886;-0.29500
9341664;-0.29500
9344442;-0.29000
9347220;-0.32000
9349997;-0.30500
9352775;-0.30500
9355553;-0.31000
9358331;-0.30500
9361108;-0.32000
9363886;-0.32500
9366664;-0.32000
9369442;-0.31500
9372220;-0.30500
9374997;-0.30500
9377775;-0.30500
9380553;-0.31500
9383331;-0.33000
9386108;-0.31500
9388886;-0.31000
9391664;-0.31000
9394442;-0.35000
9397220;-0.34500
9399997;-0.35000
9402775;-0.34000
9405553;-0.33500
9408331;-0.33500
9411108;-0.34500
9413886;-0.35500
9416664;-0.35000
9419442;-0.33500
9422220;-0.33500
9424997;-0.33000
9427775;-0.34000
9430553;-0.34000
9433331;-0.34000
9436108;-0.32000
9438886;-0.33000
9441664;-0.33500
9444442;-0.33500
9447220;-0.35000
9449997;-0.34500
9452775;-0.35000
9455553;-0.34500
9458331;-0.34000
9461108;-0.35500
9463886;-0.36500
9466664;-0.35500
9469442;-0.35000
9472220;-0.34000
9474997;-0.34000
9477775;-0.34500
9480553;-0.34500
9483331;-0.35000
9486108;-0.34000
9488886;-0.34000
9491664;-0.33500
9494442;-0.34000
9497220;-0.35000
9499997;-0.35500
9502775;-0.34500
9505553;-0.35000
9508331;-0.33500
9511108;-0.35000
9513886;-0.35000
9516664;-0.35000
9519442;-0.34000
9522220;-0.34000
9524997;-0.33500
9527775;-0.34000
9530553;-0.34500
9533331;-0.34000
9536108;-0.32000
9538886;-0.30500
9541664;-0.29000
9544442;-0.30000
9547220;-0.30000
9549997;-0.29000
9552775;-0.29000
9555553;-0.27500
9558331;-0.28000
9561108;-0.27000
9563886;-0.27000
9566664;-0.25000
9569442;-0.23000
9572220;-0.22500
9574997;-0.21500
9577775;-0.23000
9580553;-0.23500
9583331;-0.24500
9586108;-0.23500
9588886;-0.24500
9591664;-0.24000
9594442;-0.25000
9597220;-0.25500
9599997;-0.25500
9602775;-0.25500
9605553;-0.25500
9608331;-0.26500
9611108;-0.28000
9613886;-0.28000
9616664;-0.27500
9619442;-0.24500
9622220;-0.23000
9624997;-0.22500
9627775;-0.23000
9630553;-0.26500
9633331;-0.27500
9636108;-0.28000
9638886;-0.29500
9641664;-0.31500
9644442;-0.33500
9647220;-0.36500
9649997;-0.36500
9652775;-0.37000
9655553;-0.36000
9658331;-0.35500
9661108;-0.36000
9663886;-0.37000
9666664;-0.36000
9669442;-0.35000
9672220;-0.34500
9674997;-0.35500
9677775;-0.36500
9680553;-0.37000
9683331;-0.37000
9686108;-0.35500
9688886;-0.35000
9691664;-0.35000
9694442;-0.36500
9697220;-0.37500
9699997;-0.36500
9702775;-0.36000
9705553;-0.35500
9708331;-0.35500
9711108;-0.37000
9713886;-0.40000
9716664;-0.42500
9719442;-0.45000
9722220;-0.48000
9724997;-0.49500
9727775;-0.53000
9730553;-0.58500
9733331;-0.58500
9736108;-0.52500
9738886;-0.40500
9741664;-0.28500
9744442;-0.15000
9747219;0.02500
9749997;0.29500
9752775;0.56000
9755553;0.75500
9758331;0.83500
9761108;0.77500
9763886;0.57500
9766664;0.24000
9769442;-0.09500
9772219;-0.34500
9774997;-0.46000
9777775;-0.49500
9780553;-0.48500
9783331;-0.44000
9786108;-0.41000
9788886;-0.39500
9791664;-0.40000
9794442;-0.39500
9797219;-0.40000
9799997;-0.39000
9802775;-0.38000
9805553;-0.38500
9808331;-0.38500
9811108;-0.40000
9813886;-0.40000
9816664;-0.40000
9819442;-0.39500
9822219;-0.40500
9824997;-0.39500
9827775;-0.42000
9830553;-0.41000
9833331;-0.41500
9836108;-0.41000
9838886;-0.40500
9841664;-0.41000
9844442;-0.41000
9847219;-0.41500
9849997;-0.40000
9852775;-0.39500
9855553;-0.38500
9858331;-0.38500
9861108;-0.39500
9863886;-0.40500
9866664;-0.41500
9869442;-0.40500
9872219;-0.39500
9874997;-0.39000
9877775;-0.40500
9880553;-0.41500
9883331;-0.41500
9886108;-0.40500
9888886;-0.39500
9891664;-0.40000
9894442;-0.41500
9897219;-0.42000
9899997;-0.42500
9902775;-0.42000
9905553;-0.40000
9908331;-0.40000
9911108;-0.40500
9913886;-0.41500
9916664;-0.42500
9919442;-0.41500
9922219;-0.38500
9924997;-0.38500
9927775;-0.39500
9930553;-0.40500
9933331;-0.40000
9936108;-0.40500
9938886;-0.40000
9941664;-0.39000
9944442;-0.40000
9947219;-0.41000
9949997;-0.41000
9952775;-0.40000
9955553;-0.39000
9958331;-0.37500
9961108;-0.39500
9963886;-0.39500
9966664;-0.40000
9969442;-0.40000
9972219;-0.40000
9974997;-0.40500
9977775;-0.40000
9980553;-0.40000
9983331;-0.40000
9986108;-0.40000
9988886;-0.39500
9991664;-0.40000
9994442;-0.41000
9997219;-0.42500
9999997;-0.43500
10002775;-0.42000
10005553;-0.41000
10008331;-0.41500
10011108;-0.43000
10013886;-0.43500
10016664;-0.43000
10019442;-0.42500
10022219;-0.43000
10024997;-0.42500
10027775;-0.44500
10030553;-0.44500
10033331;-0.44000
10036108;-0.44500
10038886;-0.42000
10041664;-0.43500
10044442;-0.44000
10047219;-0.45000
10049997;-0.44000
10052775;-0.41500
10055553;-0.41000
10058331;-0.41000
10061108;-0.39500
10063886;-0.40500
10066664;-0.37500
10069442;-0.36000
10072219;-0.34500
10074997;-0.33500
10077775;-0.33000
10080553;-0.34000
10083331;-0.33500
10086108;-0.31000
10088886;-0.31000
10091664;-0.30500
10094442;-0.31500
10097219;-0.33500
10099997;-0.33500
10102775;-0.32500
10105553;-0.31500
10108331;-0.31500
10111108;-0.31000
10113886;-0.32000
10116664;-0.31500
10119442;-0.30500
10122219;-0.29500
10124997;-0.29500
10127775;-0.31000
10130553;-0.33000
10133330;-0.30500
10136108;-0.32000
10138886;-0.31000
10141664;-0.32000
10144442;-0.32000
10147219;-0.33000
10149997;-0.31500
10152775;-0.32000
10155553;-0.31000
10158330;-0.32500
10161108;-0.32000
10163886;-0.33500
10166664;-0.33500
10169442;-0.32000
10172219;-0.31500
10174997;-0.31500
10177775;-0.32000
10180553;-0.32500
10183330;-0.34500
10186108;-0.33500
10188886;-0.33500
10191664;-0.32000
10194442;-0.32000
10197219;-0.32500
10199997;-0.32500
10202775;-0.32000
10205553;-0.33000
10208330;-0.33000
10211108;-0.34500
10213886;-0.34500
10216664;-0.34000
10219442;-0.33500
10222219;-0.32500
10224997;-0.33000
10227775;-0.33500
10230553;-0.35000
10233330;-0.34000
10236108;-0.35000
10238886;-0.35000
10241664;-0.35000
10244442;-0.37000
10247219;-0.37500
10249997;-0.37500
10252775;-0.36500
10255553;-0.34500
10258330;-0.34000
10261108;-0.34500
10263886;-0.35500
10266664;-0.35500
10269442;-0.35000
10272219;-0.33000
10274997;-0.33000
10277775;-0.34500
10280553;-0.36500
10283330;-0.37000
10286108;-0.35500
10288886;-0.34500
10291664;-0.34000
10294442;-0.35000
10297219;-0.35500
10299997;-0.36000
10302775;-0.35500
10305553;-0.34500
10308330;-0.34500
10311108;-0.35500
10313886;-0.36000
10316664;-0.35500
10319442;-0.34500
10322219;-0.34500
10324997;-0.34500
10327775;-0.34000
10330553;-0.36000
10333330;-0.36000
10336108;-0.34500
10338886;-0.32500
10341664;-0.33000
10344442;-0.33500
10347219;-0.35000
10349997;-0.34000
10352775;-0.32500
10355553;-0.31000
10358330;-0.30000
10361108;-0.30000
10363886;-0.30000
10366664;-0.30000
10369442;-0.29000
10372219;-0.27500
10374997;-0.26000
10377775;-0.26500
10380553;-0.26000
10383330;-0.25000
10386108;-0.24500
10388886;-0.24000
10391664;-0.23000
10394442;-0.23500
10397219;-0.25000
10399997;-0.23500
10402775;-0.24000
10405553;-0.24000
10408330;-0.24500
10411108;-0.24500
10413886;-0.25500
10416664;-0.25500
10419442;-0.25000
10422219;-0.26000
10424997;-0.26500
10427775;-0.27000
10430553;-0.26000
10433330;-0.24000
10436108;-0.23000
10438886;-0.24000
10441664;-0.25500
10444442;-0.27500
10447219;-0.30000
10449997;-0.30500
10452775;-0.31000
10455553;-0.31500
10458330;-0.33500
10461108;-0.34500
10463886;-0.35500
10466664;-0.36500
10469442;-0.35000
10472219;-0.36000
10474997;-0.35000
10477775;-0.36500
10480553;-0.37500
10483330;-0.37000
10486108;-0.35500
10488886;-0.36500
10491664;-0.36500
10494442;-0.36500
10497219;-0.37500
10499997;-0.37000
10502775;-0.36000
10505553;-0.35000
10508330;-0.36000
10511108;-0.37000
10513886;-0.38500
10516664;-0.36500
10519441;-0.36000
10522219;-0.35000
10524997;-0.35000
10527775;-0.37500
10530553;-0.40000
10533330;-0.42500
10536108;-0.45000
10538886;-0.48000
10541664;-0.49000
10544441;-0.52500
10547219;-0.56000
10549997;-0.55500
10552775;-0.48500
10555553;-0.37000
10558330;-0.25000
10561108;-0.11500
10563886;0.05500
10566664;0.30000
10569441;0.56000
10572219;0.76000
10574997;0.91000
10577775;0.96000
10580553;0.86500
10583330;0.64000
10586108;0.33500
10588886;0.04000
10591664;-0.18500
10594441;-0.33000
10597219;-0.43000
10599997;-0.51000
10602775;-0.51500
10605553;-0.49500
10608330;-0.46500
10611108;-0.44000
10613886;-0.41000
10616664;-0.40500
10619441;-0.40000
10622219;-0.39000
10624997;-0.39000
10627775;-0.38500
10630553;-0.38500
10633330;-0.39000
10636108;-0.39000
10638886;-0.37000
10641664;-0.38000
10644441;-0.38500
10647219;-0.39000
10649997;-0.39000
10652775;-0.38000
10655553;-0.38500
10658330;-0.38000
10661108;-0.39000
10663886;-0.39500
10666664;-0.39500
10669441;-0.39000
10672219;-0.38500
10674997;-0.38000
10677775;-0.38000
10680553;-0.40000
10683330;-0.39000
10686108;-0.37500
10688886;-0.38500
10691664;-0.38500
10694441;-0.39000
10697219;-0.39500
10699997;-0.39000
10702775;-0.38000
10705553;-0.38000
10708330;-0.37500
10711108;-0.38000
10713886;-0.39500
10716664;-0.38000
10719441;-0.37500
10722219;-0.37000
10724997;-0.37500
10727775;-0.38000
10730553;-0.39500
10733330;-0.38500
10736108;-0.38500
10738886;-0.37500
10741664;-0.38000
10744441;-0.38000
10747219;-0.39500
10749997;-0.39000
10752775;-0.39000
10755553;-0.38000
10758330;-0.38000
10761108;-0.38500
10763886;-0.39000
10766664;-0.37500
10769441;-0.37000
10772219;-0.37000
10774997;-0.36500
10777775;-0.38000
10780553;-0.39500
10783330;-0.38500
10786108;-0.38500
10788886;-0.38500
10791664;-0.37500
10794441;-0.38000
10797219;-0.39000
10799997;-0.37500
10802775;-0.37500
10805553;-0.37500
10808330;-0.37500
10811108;-0.37500
10813886;-0.41000
10816664;-0.40000
10819441;-0.39000
10822219;-0.38500
10824997;-0.39000
10827775;-0.39500
10830553;-0.41500
10833330;-0.41500
10836108;-0.41500
10838886;-0.41000
10841664;-0.41000
10844441;-0.42500
10847219;-0.42500
10849997;-0.43000
10852775;-0.42500
10855553;-0.42500
10858330;-0.42500
10861108;-0.42500
10863886;-0.43500
10866664;-0.43000
10869441;-0.43000
10872219;-0.40000
10874997;-0.39500
10877775;-0.41500
10880553;-0.41000
10883330;-0.39500
10886108;-0.38000
10888886;-0.36500
10891664;-0.35000
10894441;-0.35000
10897219;-0.35500
10899997;-0.34500
10902775;-0.31500
10905553;-0.30000
10908330;-0.30000
10911108;-0.30500
10913886;-0.31000
10916664;-0.30500
10919441;-0.30000
10922219;-0.28000
10924997;-0.28000
10927775;-0.29500
10930552;-0.29000
10933330;-0.29000
10936108;-0.29000
10938886;-0.27000
10941664;-0.26500
10944441;-0.27500
10947219;-0.28500
10949997;-0.28000
10952775;-0.28500
10955552;-0.27500
10958330;-0.27000
10961108;-0.27500
10963886;-0.28000
10966664;-0.28000
10969441;-0.26500
10972219;-0.26000
10974997;-0.26500
10977775;-0.27500
10980552;-0.28500
10983330;-0.29000
10986108;-0.28000
10988886;-0.27000
10991664;-0.26500
10994441;-0.28000
10997219;-0.28000
10999997;-0.28500
11002775;-0.28000
11005552;-0.27000
11008330;-0.28000
11011108;-0.29000
11013886;-0.29500
11016664;-0.29000
11019441;-0.28500
11022219;-0.27500
11024997;-0.28500
11027775;-0.28500
11030552;-0.31000
11033330;-0.31000
11036108;-0.30000
11038886;-0.29500
11041664;-0.30500
11044441;-0.32000
11047219;-0.33000
11049997;-0.33000
11052775;-0.31000
11055552;-0.30500
11058330;-0.29500
11061108;-0.31500
11063886;-0.31500
11066664;-0.32000
11069441;-0.31000
11072219;-0.30000
11074997;-0.30500
11077775;-0.30000
11080552;-0.32500
11083330;-0.32000
11086108;-0.31500
11088886;-0.32000
11091664;-0.30500
11094441;-0.31500
11097219;-0.32500
11099997;-0.32500
11102775;-0.31000
11105552;-0.30500
11108330;-0.30500
11111108;-0.32500
11113886;-0.33500
11116664;-0.32000
11119441;-0.31500
11122219;-0.30000
11124997;-0.30500
11127775;-0.32000
11130552;-0.32500
11133330;-0.32500
11136108;-0.31000
11138886;-0.31500
11141664;-0.31000
11144441;-0.33000
11147219;-0.33500
11149997;-0.33500
11152775;-0.31500
11155552;-0.30000
11158330;-0.30000
11161108;-0.30500
11163886;-0.30000
11166664;-0.31000
11169441;-0.30500
11172219;-0.29500
11174997;-0.30000
11177775;-0.30000
11180552;-0.32000
11183330;-0.31000
11186108;-0.30500
11188886;-0.29000
11191664;-0.30500
11194441;-0.30500
11197219;-0.31000
11199997;-0.30500
11202775;-0.29500
11205552;-0.28000
11208330;-0.27000
11211108;-0.26500
11213886;-0.25500
11216664;-0.25000
11219441;-0.24000
11222219;-0.23500
11224997;-0.23000
11227775;-0.23000
11230552;-0.23000
11233330;-0.21500
11236108;-0.21000
11238886;-0.18500
11241664;-0.18500
11244441;-0.19500
11247219;-0.20000
11249997;-0.21000
11252775;-0.21000
11255552;-0.20500
11258330;-0.20500
11261108;-0.22500
11263886;-0.23000
11266664;-0.21500
11269441;-0.22000
11272219;-0.21000
11274997;-0.21000
11277775;-0.21000
11280552;-0.20000
11283330;-0.18500
11286108;-0.18500
11288886;-0.20500
11291664;-0.24000
11294441;-0.25000
11297219;-0.27500
11299997;-0.28500
11302775;-0.28000
11305552;-0.29000
11308330;-0.29000
11311108;-0.30500
11313886;-0.32000
11316663;-0.32000
11319441;-0.31000
11322219;-0.31500
11324997;-0.31500
11327775;-0.33000
11330552;-0.33500
11333330;-0.34000
11336108;-0.34000
11338886;-0.33000
11341663;-0.33500
11344441;-0.34000
11347219;-0.35000
11349997;-0.34500
11352775;-0.34500
11355552;-0.33000
11358330;-0.33000
11361108;-0.34000
11363886;-0.34500
11366663;-0.35000
11369441;-0.34000
11372219;-0.33500
11374997;-0.34500
11377775;-0.38000
11380552;-0.42500
11383330;-0.45500
11386108;-0.47500
11388886;-0.47500
11391663;-0.50500
11394441;-0.55000
11397219;-0.61000
11399997;-0.61500
11402775;-0.60500
11405552;-0.56000
11408330;-0.51500
11411108;-0.45500
11413886;-0.36500
11416663;-0.25000
11419441;-0.11000
11422219;0.05500
11424997;0.29000
11427775;0.55500
11430552;0.77500
11433330;0.91000
11436108;0.95500
11438886;0.84500
11441663;0.54500
11444441;0.13500
11447219;-0.23000
11449997;-0.43000
11452775;-0.47500
11455552;-0.43000
11458330;-0.38000
11461108;-0.37500
11463886;-0.37000
11466663;-0.37500
11469441;-0.37000
11472219;-0.36000
11474997;-0.36500
11477775;-0.37500
11480552;-0.37500
11483330;-0.38500
11486108;-0.37000
11488886;-0.36000
11491663;-0.37500
11494441;-0.37500
11497219;-0.37500
11499997;-0.38500
11502775;-0.37000
11505552;-0.37000
11508330;-0.37500
11511108;-0.37000
11513886;-0.38500
11516663;-0.38000
11519441;-0.37500
11522219;-0.36000
11524997;-0.35500
11527775;-0.38500
11530552;-0.38500
11533330;-0.38000
11536108;-0.37000
11538886;-0.37500
11541663;-0.38000
11544441;-0.37500
11547219;-0.37500
11549997;-0.37500
11552775;-0.38000
11555552;-0.36500
11558330;-0.36000
11561108;-0.37500
11563886;-0.38000
11566663;-0.37000
11569441;-0.37500
11572219;-0.36000
11574997;-0.36000
11577775;-0.35500
11580552;-0.37000
11583330;-0.37500
11586108;-0.35500
11588886;-0.35500
11591663;-0.34500
11594441;-0.36000
11597219;-0.37000
11599997;-0.37500
11602775;-0.37000
11605552;-0.38000
11608330;-0.36000
11611108;-0.37000
11613886;-0.38000
11616663;-0.37500
11619441;-0.36500
11622219;-0.35500
11624997;-0.35000
11627775;-0.36000
11630552;-0.37000
11633330;-0.37000
11636108;-0.36500
11638886;-0.34500
11641663;-0.35500
11644441;-0.36000
11647219;-0.37000
11649997;-0.35500
11652775;-0.36000
11655552;-0.35000
11658330;-0.36000
11661108;-0.37000
11663886;-0.37000
11666663;-0.36500
11669441;-0.36000
11672219;-0.36000
11674997;-0.37000
11677775;-0.36500
11680552;-0.38500
11683330;-0.37000
11686108;-0.36500
11688886;-0.36500
11691663;-0.35500
11694441;-0.37000
11697219;-0.36500
11699997;-0.37500
11702775;-0.37500
11705552;-0.37000
11708330;-0.37000
11711108;-0.37000
11713886;-0.38000
11716663;-0.38500
11719441;-0.37000
11722219;-0.36000
11724997;-0.36500
11727774;-0.37000
11730552;-0.37500
11733330;-0.36000
11736108;-0.36000
11738886;-0.34000
11741663;-0.33500
11744441;-0.33000
11747219;-0.34500
11749997;-0.33000
11752774;-0.31000
11755552;-0.30500
11758330;-0.29000
11761108;-0.29500
11763886;-0.30500
11766663;-0.29500
11769441;-0.28000
11772219;-0.26500
11774997;-0.26000
11777774;-0.26500
11780552;-0.27500
11783330;-0.27000
11786108;-0.25500
11788886;-0.24000
11791663;-0.24500
11794441;-0.26500
11797219;-0.28500
11799997;-0.27000
11802774;-0.26000
11805552;-0.25500
11808330;-0.25500
11811108;-0.26500
11813886;-0.28000
11816663;-0.28500
11819441;-0.28000
11822219;-0.25500
11824997;-0.25500
11827774;-0.27000
11830552;-0.27500
11833330;-0.26500
11836108;-0.27000
11838886;-0.27500
11841663;-0.27500
11844441;-0.28000
11847219;-0.28000
11849997;-0.28500
11852774;-0.28000
11855552;-0.27000
11858330;-0.26500
11861108;-0.28000
11863886;-0.29500
11866663;-0.29500
11869441;-0.28000
11872219;-0.28500
11874997;-0.29000
11877774;-0.30500
11880552;-0.32000
11883330;-0.30500
11886108;-0.30000
11888886;-0.29000
11891663;-0.30000
11894441;-0.30500
11897219;-0.30500
11899997;-0.30000
11902774;-0.30000
11905552;-0.29000
11908330;-0.31000
11911108;-0.31500
11913886;-0.31500
11916663;-0.31500
11919441;-0.31000
11922219;-0.30500
11924997;-0.31000
11927774;-0.32000
11930552;-0.32000
11933330;-0.32500
11936108;-0.32000
11938886;-0.31000
11941663;-0.31000
11944441;-0.31500
11947219;-0.31500
11949997;-0.33000
11952774;-0.32500
11955552;-0.31500
11958330;-0.30500
11961108;-0.31500
11963886;-0.32500
11966663;-0.33000
11969441;-0.32000
11972219;-0.30500
11974997;-0.31000
11977774;-0.31500
11980552;-0.33000
11983330;-0.32500
11986108;-0.32000
11988886;-0.31500
11991663;-0.31000
11994441;-0.31500
11997219;-0.32500
11999997;-0.33000
12002774;-0.31500
12005552;-0.30500
12008330;-0.32000
12011108;-0.33000
12013886;-0.32000
12016663;-0.32000
12019441;-0.34000
12022219;-0.32000
12024997;-0.31500
12027774;-0.32000
12030552;-0.32500
12033330;-0.31500
12036108;-0.31500
12038886;-0.30000
12041663;-0.28000
12044441;-0.27500
12047219;-0.27500
12049997;-0.28000
12052774;-0.24500
12055552;-0.23500
12058330;-0.24000
12061108;-0.25000
12063886;-0.24000
12066663;-0.23500
12069441;-0.21500
12072219;-0.20500
12074997;-0.19500
12077774;-0.20000
12080552;-0.21000
12083330;-0.21000
12086108;-0.21500
12088886;-0.20500
12091663;-0.20500
12094441;-0.22500
12097219;-0.24000
12099997;-0.24500
12102774;-0.24500
12105552;-0.23000
12108330;-0.22500
12111108;-0.22000
12113885;-0.23500
12116663;-0.25000
12119441;-0.25000
12122219;-0.23500
12124997;-0.21000
12127774;-0.19000
12130552;-0.19500
12133330;-0.22000
12136108;-0.24000
12138885;-0.24500
12141663;-0.26500
12144441;-0.29000
12147219;-0.32000
12149997;-0.33000
12152774;-0.31500
12155552;-0.31500
12158330;-0.32500
12161108;-0.34000
12163885;-0.34500
12166663;-0.34000
12169441;-0.34000
12172219;-0.32000
12174997;-0.33000
12177774;-0.33500
12180552;-0.33500
12183330;-0.34500
12186108;-0.34000
12188885;-0.33000
12191663;-0.33000
12194441;-0.34500
12197219;-0.35000
12199997;-0.36000
12202774;-0.34000
12205552;-0.34000
12208330;-0.33500
12211108;-0.34500
12213885;-0.35500
12216663;-0.36500
12219441;-0.38000
12222219;-0.40500
12224997;-0.44000
12227774;-0.47000
12230552;-0.49000
12233330;-0.53500
12236108;-0.56500
12238885;-0.55000
12241663;-0.47000
12244441;-0.35000
12247219;-0.22500
12249997;-0.07000
12252774;0.17500
12255552;0.45500
12258330;0.68000
12261108;0.83000
12263885;0.86000
12266663;0.73500
12269441;0.46000
12272219;0.12000
12274997;-0.20500
12277774;-0.42500
12280552;-0.49000
12283330;-0.47000
12286108;-0.43000
12288885;-0.38000
12291663;-0.38000
12294441;-0.38500
12297219;-0.39000
12299997;-0.40500
12302774;-0.37500
12305552;-0.37500
12308330;-0.37500
12311108;-0.38000
12313885;-0.38500
12316663;-0.39500
12319441;-0.39500
12322219;-0.38500
12324997;-0.38500
12327774;-0.39000
12330552;-0.40000
12333330;-0.39500
12336108;-0.39000
12338885;-0.38500
12341663;-0.38000
12344441;-0.39500
12347219;-0.40500
12349997;-0.40500
12352774;-0.39500
12355552;-0.38500
12358330;-0.39000
12361108;-0.39000
12363885;-0.39000
12366663;-0.39000
12369441;-0.39000
12372219;-0.38500
12374997;-0.39000
12377774;-0.39500
12380552;-0.39500
12383330;-0.40000
12386108;-0.38500
12388885;-0.37500
12391663;-0.38000
12394441;-0.38500
12397219;-0.39500
12399997;-0.39500
12402774;-0.40000
12405552;-0.38500
12408330;-0.39500
12411108;-0.39500
12413885;-0.40000
12416663;-0.40000
12419441;-0.39500
12422219;-0.38500
12424997;-0.39000
12427774;-0.39000
12430552;-0.39000
12433330;-0.40000
12436108;-0.39000
12438885;-0.38500
12441663;-0.38500
12444441;-0.39500
12447219;-0.40000
12449997;-0.40000
12452774;-0.39000
12455552;-0.39000
12458330;-0.38500
12461108;-0.39000
12463885;-0.39500
12466663;-0.38500
12469441;-0.37000
12472219;-0.37500
12474997;-0.37500
12477774;-0.39000
12480552;-0.39500
12483330;-0.38500
12486108;-0.38500
12488885;-0.37500
12491663;-0.37500
12494441;-0.38500
12497219;-0.40500
12499996;-0.41000
12502774;-0.40000
12505552;-0.37500
12508330;-0.39000
12511108;-0.39000
12513885;-0.40000
12516663;-0.41000
12519441;-0.42000
12522219;-0.40500
12524996;-0.41000
12527774;-0.40500
12530552;-0.42500
12533330;-0.41500
12536108;-0.40000
12538885;-0.40500
12541663;-0.41500
12544441;-0.41500
12547219;-0.42500
12549996;-0.42500
12552774;-0.42500
12555552;-0.40500
12558330;-0.41000
12561108;-0.42500
12563885;-0.42000
12566663;-0.42000
12569441;-0.39500
12572219;-0.39000
12574996;-0.38000
12577774;-0.37500
12580552;-0.37500
12583330;-0.37500
12586108;-0.35500
12588885;-0.34000
12591663;-0.34000
12594441;-0.34000
12597219;-0.35000
12599996;-0.34500
12602774;-0.33500
12605552;-0.31000
12608330;-0.32000
12611108;-0.32000
12613885;-0.32500
12616663;-0.32000
12619441;-0.31500
12622219;-0.31500
12624996;-0.31000
12627774;-0.32000
12630552;-0.33000
12633330;-0.33000
12636108;-0.32000
12638885;-0.31500
12641663;-0.32000
12644441;-0.34000
12647219;-0.35000
12649996;-0.34500
12652774;-0.33000
12655552;-0.32500
12658330;-0.32500
12661108;-0.33500
12663885;-0.34500
12666663;-0.34500
12669441;-0.34000
12672219;-0.32500
12674996;-0.33000
12677774;-0.34000
12680552;-0.34000
12683330;-0.35500
12686108;-0.34500
12688885;-0.35500
12691663;-0.35500
12694441;-0.36500
12697219;-0.37000
12699996;-0.36000
12702774;-0.35000
12705552;-0.34500
12708330;-0.37000
12711108;-0.37500
12713885;-0.38000
12716663;-0.37500
12719441;-0.36000
12722219;-0.35000
12724996;-0.36500
12727774;-0.35500
12730552;-0.36500
12733330;-0.37500
12736108;-0.36500
12738885;-0.35500
12741663;-0.36500
12744441;-0.37000
12747219;-0.38500
12749996;-0.38500
12752774;-0.37000
12755552;-0.37500
12758330;-0.38000
12761108;-0.39000
12763885;-0.39500
12766663;-0.39000
12769441;-0.37000
12772219;-0.36000
12774996;-0.35500
12777774;-0.38500
12780552;-0.38000
12783330;-0.38000
12786108;-0.37000
12788885;-0.36000
12791663;-0.36500
12794441;-0.37000
12797219;-0.38000
12799996;-0.40000
12802774;-0.39500
12805552;-0.39500
12808330;-0.39500
12811108;-0.38500
12813885;-0.37500
12816663;-0.36500
12819441;-0.36000
12822219;-0.35500
12824996;-0.35500
12827774;-0.36500
12830552;-0.37500
12833330;-0.38000
12836108;-0.36500
12838885;-0.35000
12841663;-0.36000
12844441;-0.34000
12847219;-0.34000
12849996;-0.33500
12852774;-0.32000
12855552;-0.29500
12858330;-0.29500
12861108;-0.29500
12863885;-0.30000
12866663;-0.29000
12869441;-0.28500
12872219;-0.27000
12874996;-0.27000
12877774;-0.25500
12880552;-0.26000
12883330;-0.27500
12886108;-0.26500
12888885;-0.26500
12891663;-0.27000
12894441;-0.28500
12897219;-0.28000
12899996;-0.29500
12902774;-0.29000
12905552;-0.29000
12908330;-0.30500
12911107;-0.30000
12913885;-0.29000
12916663;-0.27000
12919441;-0.26000
12922219;-0.22000
12924996;-0.23500
12927774;-0.25000
12930552;-0.29000
12933330;-0.31500
12936107;-0.32500
12938885;-0.33500
12941663;-0.37000
12944441;-0.38500
12947219;-0.39500
12949996;-0.40500
12952774;-0.40500
12955552;-0.40000
12958330;-0.40000
12961107;-0.39000
12963885;-0.40500
12966663;-0.41500
12969441;-0.39000
12972219;-0.39500
12974996;-0.40500
12977774;-0.41000
12980552;-0.42000
12983330;-0.41500
12986107;-0.40500
12988885;-0.39500
12991663;-0.41500
12994441;-0.41500
12997219;-0.43000
12999996;-0.43000
13002774;-0.42000
13005552;-0.41000
13008330;-0.42500
13011107;-0.45500
13013885;-0.48500
13016663;-0.50500
13019441;-0.50000
13022219;-0.53000
13024996;-0.59000
13027774;-0.60500
13030552;-0.53500
13033330;-0.42500
13036107;-0.26500
13038885;-0.08500
13041663;0.12500
13044441;0.39000
13047219;0.61500
13049996;0.77000
13052774;0.82000
13055552;0.66000
13058330;0.28500
13061107;-0.12500
13063885;-0.41000
13066663;-0.54000
13069441;-0.55000
13072219;-0.51000
13074996;-0.46500
13077774;-0.45500
13080552;-0.44500
13083330;-0.44500
13086107;-0.43500
13088885;-0.42000
13091663;-0.42000
13094441;-0.42500
13097219;-0.44000
13099996;-0.45000
13102774;-0.45000
13105552;-0.43500
13108330;-0.44000
13111107;-0.44000
13113885;-0.45000
13116663;-0.46000
13119441;-0.45000
13122219;-0.43500
13124996;-0.44000
13127774;-0.43500
13130552;-0.45500
13133330;-0.47000
13136107;-0.45000
13138885;-0.44500
13141663;-0.44000
13144441;-0.44000
13147219;-0.44500
13149996;-0.45000
13152774;-0.45000
13155552;-0.44000
13158330;-0.44000
13161107;-0.44000
13163885;-0.44000
13166663;-0.45500
13169441;-0.44500
13172219;-0.44000
13174996;-0.43500
13177774;-0.44500
13180552;-0.45500
13183330;-0.46500
13186107;-0.45500
13188885;-0.44000
13191663;-0.45000
13194441;-0.45000
13197219;-0.45500
13199996;-0.44500
13202774;-0.44000
13205552;-0.43500
13208330;-0.44500
13211107;-0.44000
13213885;-0.44500
13216663;-0.45000
13219441;-0.44500
13222219;-0.43500
13224996;-0.44000
13227774;-0.44500
13230552;-0.46000
13233330;-0.45000
13236107;-0.44000
13238885;-0.43000
13241663;-0.43000
13244441;-0.44000
13247219;-0.45000
13249996;-0.45000
13252774;-0.43500
13255552;-0.44000
13258330;-0.44000
13261107;-0.44500
13263885;-0.46000
13266663;-0.46500
13269441;-0.46000
13272219;-0.43500
13274996;-0.44000
13277774;-0.44500
13280552;-0.46000
13283330;-0.46000
13286107;-0.46000
13288885;-0.45000
13291663;-0.46000
13294441;-0.47000
13297218;-0.47000
13299996;-0.48000
13302774;-0.46500
13305552;-0.45500
13308330;-0.47500
13311107;-0.48000
13313885;-0.47500
13316663;-0.49500
13319441;-0.49500
13322218;-0.47500
13324996;-0.48500
13327774;-0.49000
13330552;-0.49500
13333330;-0.50500
13336107;-0.48500
13338885;-0.48500
13341663;-0.47500
13344441;-0.47000
13347218;-0.46000
13349996;-0.46000
13352774;-0.44500
13355552;-0.41500
13358330;-0.41000
13361107;-0.40500
13363885;-0.39500
13366663;-0.40000
13369441;-0.38000
13372218;-0.36500
13374996;-0.35000
13377774;-0.34500
13380552;-0.35500
13383330;-0.33500
13386107;-0.33500
13388885;-0.32000
13391663;-0.32500
13394441;-0.32000
13397218;-0.34000
13399996;-0.33000
13402774;-0.31500
13405552;-0.31000
13408330;-0.32500
13411107;-0.32500
13413885;-0.32500
13416663;-0.33500
13419441;-0.33000
13422218;-0.31500
13424996;-0.33000
13427774;-0.33500
13430552;-0.34500
13433330;-0.34500
13436107;-0.33000
13438885;-0.32500
13441663;-0.33500
13444441;-0.33500
13447218;-0.34500
13449996;-0.34000
13452774;-0.34000
13455552;-0.32500
13458330;-0.33500
13461107;-0.34000
13463885;-0.35500
13466663;-0.36500
13469441;-0.36000
13472218;-0.35000
13474996;-0.35000
13477774;-0.35000
13480552;-0.36000
13483330;-0.36500
13486107;-0.35500
13488885;-0.35000
13491663;-0.35000
13494441;-0.35500
13497218;-0.36500
13499996;-0.36000
13502774;-0.34500
13505552;-0.33500
13508330;-0.35000
13511107;-0.36000
13513885;-0.36000
13516663;-0.37500
13519441;-0.36500
13522218;-0.35500
13524996;-0.36000
13527774;-0.36500
13530552;-0.36500
13533330;-0.36500
13536107;-0.37500
13538885;-0.35000
13541663;-0.35500
13544441;-0.37000
13547218;-0.38000
13549996;-0.37500
13552774;-0.36000
13555552;-0.35000
13558330;-0.36000
13561107;-0.36500
13563885;-0.36500
13566663;-0.37500
13569441;-0.36500
13572218;-0.35500
13574996;-0.35500
13577774;-0.36500
13580552;-0.37500
13583330;-0.37000
13586107;-0.37000
13588885;-0.36000
13591663;-0.36000
13594441;-0.35500
13597218;-0.37000
13599996;-0.37000
13602774;-0.36500
13605552;-0.35500
13608330;-0.35000
13611107;-0.35500
13613885;-0.36000
13616663;-0.37000
13619441;-0.36000
13622218;-0.34000
13624996;-0.35000
13627774;-0.34000
13630552;-0.33500
13633330;-0.31500
13636107;-0.30500
13638885;-0.28500
13641663;-0.28000
13644441;-0.28500
13647218;-0.29500
13649996;-0.28500
13652774;-0.26500
13655552;-0.25500
13658330;-0.24500
13661107;-0.25000
13663885;-0.25000
13666663;-0.25500
13669441;-0.25500
13672218;-0.25000
13674996;-0.25500
13677774;-0.26000
13680552;-0.27500
13683330;-0.29000
13686107;-0.26000
13688885;-0.24500
13691663;-0.24500
13694441;-0.26000
13697218;-0.28000
13699996;-0.29500
13702774;-0.27000
13705552;-0.23500
13708329;-0.22000
13711107;-0.23500
13713885;-0.27000
13716663;-0.30500
13719441;-0.30500
13722218;-0.31000
13724996;-0.32500
13727774;-0.35000
13730552;-0.37500
13733329;-0.38000
13736107;-0.36500
13738885;-0.36500
13741663;-0.36500
13744441;-0.37000
13747218;-0.38500
13749996;-0.38500
13752774;-0.37000
13755552;-0.36500
13758329;-0.36500
13761107;-0.38000
13763885;-0.39000
13766663;-0.38500
13769441;-0.38500
13772218;-0.38500
13774996;-0.38000
13777774;-0.39000
13780552;-0.39000
13783329;-0.39500
13786107;-0.40500
13788885;-0.39000
13791663;-0.40000
13794441;-0.45000
13797218;-0.48500
13799996;-0.51500
13802774;-0.53000
13805552;-0.57000
13808329;-0.59000
13811107;-0.56000
13813885;-0.46500
13816663;-0.30500
13819441;-0.12500
13822218;0.10500
13824996;0.38500
13827774;0.67500
13830552;0.86500
13833329;0.95500
13836107;0.88500
13838885;0.62000
13841663;0.18000
13844441;-0.22000
13847218;-0.47000
13849996;-0.55500
13852774;-0.54000
13855552;-0.50000
13858329;-0.46000
13861107;-0.43000
13863885;-0.41000
13866663;-0.42000
13869441;-0.42000
13872218;-0.40500
13874996;-0.40500
13877774;-0.42000
13880552;-0.42500
13883329;-0.42500
13886107;-0.42500
13888885;-0.41000
13891663;-0.41000
13894441;-0.42500
13897218;-0.42500
13899996;-0.44000
13902774;-0.43000
13905552;-0.41500
13908329;-0.41500
13911107;-0.41500
13913885;-0.43500
13916663;-0.42500
13919441;-0.42500
13922218;-0.41000
13924996;-0.41500
13927774;-0.41500
13930552;-0.42500
13933329;-0.42500
13936107;-0.41500
13938885;-0.40500
13941663;-0.41000
13944441;-0.42000
13947218;-0.41500
13949996;-0.43000
13952774;-0.41500
13955552;-0.40500
13958329;-0.40000
13961107;-0.41000
13963885;-0.41500
13966663;-0.42000
13969441;-0.40500
13972218;-0.39500
13974996;-0.39500
13977774;-0.40500
13980552;-0.41000
13983329;-0.41500
13986107;-0.40000
13988885;-0.40000
13991663;-0.39000
13994441;-0.41000
13997218;-0.41000
13999996;-0.41500
14002774;-0.40000
14005552;-0.39000
14008329;-0.40000
14011107;-0.40000
14013885;-0.41500
14016663;-0.41500
14019441;-0.40500
14022218;-0.40000
14024996;-0.40500
14027774;-0.40500
14030552;-0.41000
14033329;-0.42000
14036107;-0.40500
14038885;-0.39500
14041663;-0.39500
14044441;-0.38500
14047218;-0.40000
14049996;-0.42000
14052774;-0.40000
14055552;-0.40000
14058329;-0.40000
14061107;-0.41000
14063885;-0.41000
14066663;-0.42500
14069441;-0.41500
14072218;-0.41000
14074996;-0.40500
14077774;-0.42500
14080552;-0.43000
14083329;-0.44000
14086107;-0.43500
14088885;-0.42000
14091663;-0.43500
14094440;-0.44000
14097218;-0.45500
14099996;-0.44500
14102774;-0.44000
14105552;-0.42500
14108329;-0.42000
14111107;-0.43000
14113885;-0.42500
14116663;-0.41000
14119440;-0.40000
14122218;-0.38000
14124996;-0.38000
14127774;-0.37500
14130552;-0.36000
14133329;-0.36000
14136107;-0.34000
14138885;-0.32500
14141663;-0.31500
14144440;-0.33000
14147218;-0.32500
14149996;-0.33500
14152774;-0.30500
14155552;-0.29500
14158329;-0.29500
14161107;-0.30500
14163885;-0.31000
14166663;-0.31500
14169440;-0.30000
14172218;-0.29000
14174996;-0.29000
14177774;-0.30000
14180552;-0.30500
14183329;-0.31000
14186107;-0.30500
14188885;-0.29500
14191663;-0.29000
14194440;-0.31000
14197218;-0.31000
14199996;-0.31000
14202774;-0.31000
14205552;-0.30500
14208329;-0.31000
14211107;-0.29500
14213885;-0.30500
14216663;-0.32000
14219440;-0.31000
14222218;-0.30500
14224996;-0.30000
14227774;-0.32000
14230552;-0.32500
14233329;-0.32500
14236107;-0.31500
14238885;-0.31000
14241663;-0.29000
14244440;-0.31000
14247218;-0.31500
14249996;-0.31500
14252774;-0.31500
14255552;-0.30500
14258329;-0.30500
14261107;-0.31500
14263885;-0.34500
14266663;-0.33500
14269440;-0.32500
14272218;-0.31000
14274996;-0.31000
14277774;-0.31500
14280552;-0.33500
14283329;-0.33000
14286107;-0.32000
14288885;-0.32000
14291663;-0.32000
14294440;-0.33500
14297218;-0.33000
14299996;-0.34000
14302774;-0.34000
14305552;-0.32000
14308329;-0.32500
14311107;-0.33000
14313885;-0.33000
14316663;-0.33500
14319440;-0.33500
14322218;-0.32500
14324996;-0.32000
14327774;-0.33500
14330552;-0.33500
14333329;-0.34500
14336107;-0.33000
14338885;-0.32000
14341663;-0.32000
14344440;-0.33000
14347218;-0.34000
14349996;-0.34500
14352774;-0.33000
14355552;-0.33000
14358329;-0.32000
14361107;-0.32500
14363885;-0.33000
14366663;-0.34000
14369440;-0.32500
14372218;-0.31500
14374996;-0.33000
14377774;-0.33000
14380552;-0.33000
14383329;-0.33500
14386107;-0.32500
14388885;-0.31500
14391663;-0.31500
14394440;-0.32000
14397218;-0.33000
14399996;-0.33500
14402774;-0.32000
14405552;-0.31500
14408329;-0.30500
14411107;-0.31000
14413885;-0.30500
14416663;-0.30500
14419440;-0.28000
14422218;-0.25500
14424996;-0.24500
14427774;-0.24500
14430552;-0.25000
14433329;-0.25500
14436107;-0.23500
14438885;-0.21000
14441663;-0.21500
14444440;-0.21000
14447218;-0.21500
14449996;-0.21500
14452774;-0.20500
14455552;-0.19000
14458329;-0.18500
14461107;-0.19000
14463885;-0.20000
14466663;-0.21000
14469440;-0.21500
14472218;-0.20000
14474996;-0.20000
14477774;-0.22500
14480552;-0.22000
14483329;-0.23000
14486107;-0.22000
14488885;-0.23000
14491663;-0.22000
14494440;-0.21000
14497218;-0.19500
14499996;-0.19500
14502774;-0.20500
14505551;-0.23000
14508329;-0.25500
14511107;-0.27500
14513885;-0.30000
14516663;-0.31500
14519440;-0.31000
14522218;-0.32000
14524996;-0.32500
14527774;-0.32500
14530551;-0.33500
14533329;-0.33000
14536107;-0.32500
14538885;-0.31500
14541663;-0.33000
14544440;-0.34500
14547218;-0.34500
14549996;-0.35000
14552774;-0.33000
14555551;-0.33500
14558329;-0.34000
14561107;-0.34500
14563885;-0.35000
14566663;-0.35000
14569440;-0.34500
14572218;-0.34000
14574996;-0.34500
14577774;-0.35000
14580551;-0.36500
14583329;-0.39000
14586107;-0.42000
14588885;-0.44500
14591663;-0.46000
14594440;-0.48500
14597218;-0.54000
14599996;-0.57000
14602774;-0.51500
14605551;-0.38500
14608329;-0.25000
14611107;-0.09500
14613885;0.09000
14616663;0.36000
14619440;0.63000
14622218;0.82500
14624996;0.94500
14627774;0.96000
14630551;0.78500
14633329;0.44500
14636107;0.05500
14638885;-0.24500
14641663;-0.43500
14644440;-0.52500
14647218;-0.51500
14649996;-0.49000
14652774;-0.44000
14655551;-0.39000
14658329;-0.37000
14661107;-0.38000
14663885;-0.38500
14666663;-0.39000
14669440;-0.36500
14672218;-0.36000
14674996;-0.36000
14677774;-0.37000
14680551;-0.38000
14683329;-0.38500
14686107;-0.37500
14688885;-0.36000
14691663;-0.36000
14694440;-0.36500
14697218;-0.37500
14699996;-0.39500
14702774;-0.37000
14705551;-0.35500
14708329;-0.38000
14711107;-0.36500
14713885;-0.38500
14716663;-0.37000
14719440;-0.35500
14722218;-0.36000
14724996;-0.35500
14727774;-0.36500
14730551;-0.36500
14733329;-0.37000
14736107;-0.37000
14738885;-0.36000
14741663;-0.35500
14744440;-0.35500
14747218;-0.36000
14749996;-0.38000
14752774;-0.36500
14755551;-0.35500
14758329;-0.35500
14761107;-0.35500
14763885;-0.36500
14766663;-0.36500
14769440;-0.36500
14772218;-0.35000
14774996;-0.34500
14777774;-0.36000
14780551;-0.35500
14783329;-0.37000
14786107;-0.36000
14788885;-0.35500
14791663;-0.35500
14794440;-0.36000
14797218;-0.36000
14799996;-0.36500
14802774;-0.35500
14805551;-0.35000
14808329;-0.35000
14811107;-0.36000
14813885;-0.36000
14816663;-0.37000
14819440;-0.35500
14822218;-0.34000
14824996;-0.35000
14827774;-0.35500
14830551;-0.35500
14833329;-0.36000
14836107;-0.34500
14838885;-0.35000
14841663;-0.35500
14844440;-0.36000
14847218;-0.36000
14849996;-0.36000
14852774;-0.36500
14855551;-0.35000
14858329;-0.35500
14861107;-0.36000
14863885;-0.37000
14866663;-0.37000
14869440;-0.37000
14872218;-0.35500
14874996;-0.35500
14877774;-0.35500
14880551;-0.36500
14883329;-0.37000
14886107;-0.36500
14888885;-0.35500
14891662;-0.36500
14894440;-0.36500
14897218;-0.36000
14899996;-0.37500
14902774;-0.36500
14905551;-0.35000
14908329;-0.35000
14911107;-0.36500
14913885;-0.36500
14916662;-0.36500
14919440;-0.35500
14922218;-0.34000
14924996;-0.32000
14927774;-0.33000
14930551;-0.32500
14933329;-0.32000
14936107;-0.30000
14938885;-0.29000
14941662;-0.28000
14944440;-0.28000
14947218;-0.27500
14949996;-0.28500
14952774;-0.26500
14955551;-0.25500
14958329;-0.26000
14961107;-0.24500
14963885;-0.25000
14966662;-0.26000
14969440;-0.25000
14972218;-0.23500
14974996;-0.24000
14977774;-0.24500
14980551;-0.25500
14983329;-0.26000
14986107;-0.24500
14988885;-0.24000
14991662;-0.24500
14994440;-0.26000
14997218;-0.26500
14999996;-0.27000
15002774;-0.25500
15005551;-0.25000
15008329;-0.25500
15011107;-0.25500
15013885;-0.26000
15016662;-0.27000
15019440;-0.26500
15022218;-0.25500
15024996;-0.26000
15027774;-0.27000
15030551;-0.27000
15033329;-0.26500
15036107;-0.26500
15038885;-0.25500
15041662;-0.25000
15044440;-0.26500
15047218;-0.27500
15049996;-0.29000
15052774;-0.27500
15055551;-0.27000
15058329;-0.26000
15061107;-0.28000
15063885;-0.29000
15066662;-0.29000
15069440;-0.28500
15072218;-0.28500
15074996;-0.27500
15077774;-0.29500
15080551;-0.29500
15083329;-0.30000
15086107;-0.29000
15088885;-0.28500
15091662;-0.29000
15094440;-0.30000
15097218;-0.32000
15099996;-0.32000
15102774;-0.29500
15105551;-0.28500
15108329;-0.29000
15111107;-0.30000
15113885;-0.31500
15116662;-0.32000
15119440;-0.31000
15122218;-0.31500
15124996;-0.30000
15127774;-0.30500
15130551;-0.31500
15133329;-0.31000
15136107;-0.29500
15138885;-0.30000
15141662;-0.30000
15144440;-0.30500
15147218;-0.31500
15149996;-0.32000
15152774;-0.29500
15155551;-0.29000
15158329;-0.29000
15161107;-0.30000
15163885;-0.30500
15166662;-0.30500
15169440;-0.29500
15172218;-0.28500
15174996;-0.30000
15177774;-0.30000
15180551;-0.31000
15183329;-0.31000
15186107;-0.29500
15188885;-0.29500
15191662;-0.29500
15194440;-0.30000
15197218;-0.30000
15199996;-0.30500
15202774;-0.29500
15205551;-0.28500
15208329;-0.28500
15211107;-0.28500
15213885;-0.30500
15216662;-0.31000
15219440;-0.30500
15222218;-0.29500
15224996;-0.29000
15227774;-0.29500
15230551;-0.30000
15233329;-0.30000
15236107;-0.29500
15238885;-0.27500
15241662;-0.26000
15244440;-0.25000
15247218;-0.25000
15249996;-0.23500
15252774;-0.22000
15255551;-0.21500
15258329;-0.22500
15261107;-0.21500
15263885;-0.20000
15266662;-0.19000
15269440;-0.17500
15272218;-0.14000
15274996;-0.14500
15277774;-0.14000
15280551;-0.15500
15283329;-0.16500
15286107;-0.15000
15288885;-0.14500
15291662;-0.15500
15294440;-0.15500
15297218;-0.17500
15299996;-0.18500
15302773;-0.17500
15305551;-0.17000
15308329;-0.18000
15311107;-0.17500
15313885;-0.15000
15316662;-0.15000
15319440;-0.16000
15322218;-0.18000
15324996;-0.20000
15327773;-0.21500
15330551;-0.23500
15333329;-0.26000
15336107;-0.26500
15338885;-0.26000
15341662;-0.26000
15344440;-0.27000
15347218;-0.29000
15349996;-0.28000
15352773;-0.27000
15355551;-0.26500
15358329;-0.26500
15361107;-0.28000
15363885;-0.28500
15366662;-0.29000
15369440;-0.28000
15372218;-0.27500
15374996;-0.28000
15377773;-0.29500
15380551;-0.31000
15383329;-0.31500
15386107;-0.30500
15388885;-0.31000
15391662;-0.30500
15394440;-0.29500
15397218;-0.29000
15399996;-0.30500
15402773;-0.30000
15405551;-0.28500
15408329;-0.29500
15411107;-0.29500
15413885;-0.31000
15416662;-0.34500
15419440;-0.37500
15422218;-0.40500
15424996;-0.43000
15427773;-0.48000
15430551;-0.53000
15433329;-0.52500
15436107;-0.43500
15438885;-0.30000
15441662;-0.16000
15444440;0.01500
15447218;0.27000
15449996;0.56500
15452773;0.78500
15455551;0.89500
15458329;0.85500
15461107;0.62000
15463885;0.23500
15466662;-0.15000
15469440;-0.38000
15472218;-0.41500
15474996;-0.40000
15477773;-0.35000
15480551;-0.33500
15483329;-0.33500
15486107;-0.33500
15488885;-0.32500
15491662;-0.32000
15494440;-0.32000
15497218;-0.32500
15499996;-0.34000
15502773;-0.31500
15505551;-0.31500
15508329;-0.31500
15511107;-0.33000
15513885;-0.34000
15516662;-0.33000
15519440;-0.32000
15522218;-0.32000
15524996;-0.32500
15527773;-0.33500
15530551;-0.34000
15533329;-0.35500
15536107;-0.33500
15538885;-0.32000
15541662;-0.32000
15544440;-0.32500
15547218;-0.34000
15549996;-0.34500
15552773;-0.33500
15555551;-0.33000
15558329;-0.33000
15561107;-0.32500
15563885;-0.33000
15566662;-0.33500
15569440;-0.32500
15572218;-0.31500
15574996;-0.32000
15577773;-0.32000
15580551;-0.33000
15583329;-0.35000
15586107;-0.34000
15588885;-0.32500
15591662;-0.31000
15594440;-0.31500
15597218;-0.33000
15599996;-0.33000
15602773;-0.32000
15605551;-0.31500
15608329;-0.31500
15611107;-0.33500
15613885;-0.33500
15616662;-0.33000
15619440;-0.33500
15622218;-0.32000
15624996;-0.32500
15627773;-0.33500
15630551;-0.34500
15633329;-0.34500
15636107;-0.33500
15638885;-0.33000
15641662;-0.33500
15644440;-0.34000
15647218;-0.34500
15649996;-0.35500
15652773;-0.34500
15655551;-0.33500
15658329;-0.33000
15661107;-0.32500
15663885;-0.32000
15666662;-0.32000
15669440;-0.32000
15672218;-0.31000
15674996;-0.30500
15677773;-0.32000
15680551;-0.33500
15683329;-0.34000
15686107;-0.33500
15688884;-0.33500
15691662;-0.33000
15694440;-0.35500
15697218;-0.34500
15699996;-0.35500
15702773;-0.34500
15705551;-0.34500
15708329;-0.36000
15711107;-0.37000
15713884;-0.37000
15716662;-0.38000
15719440;-0.37500
15722218;-0.37000
15724996;-0.36000
15727773;-0.36500
15730551;-0.35500
15733329;-0.35500
15736107;-0.35000
15738884;-0.34500
15741662;-0.32500
15744440;-0.33500
15747218;-0.33500
15749996;-0.33500
15752773;-0.33500
15755551;-0.31000
15758329;-0.30000
15761107;-0.30500
15763884;-0.30500
15766662;-0.30000
15769440;-0.28500
15772218;-0.27000
15774996;-0.27500
15777773;-0.28500
15780551;-0.27500
15783329;-0.28000
15786107;-0.27000
15788884;-0.25500
15791662;-0.26500
15794440;-0.25500
15797218;-0.25500
15799996;-0.26000
15802773;-0.25000
15805551;-0.23500
15808329;-0.24000
15811107;-0.24500
15813884;-0.25500
15816662;-0.26000
15819440;-0.26500
15822218;-0.26000
15824996;-0.25500
15827773;-0.26000
15830551;-0.27000
15833329;-0.27000
15836107;-0.26500
15838884;-0.25000
15841662;-0.26000
15844440;-0.26000
15847218;-0.27000
15849996;-0.27500
15852773;-0.27500
15855551;-0.26500
15858329;-0.27000
15861107;-0.27500
15863884;-0.27500
15866662;-0.26500
15869440;-0.26000
15872218;-0.25500
15874996;-0.26500
15877773;-0.29000
15880551;-0.29500
15883329;-0.29500
15886107;-0.29500
15888884;-0.27500
15891662;-0.29000
15894440;-0.30000
15897218;-0.30000
15899996;-0.30000
15902773;-0.29500
15905551;-0.29000
15908329;-0.30000
15911107;-0.30000
15913884;-0.31000
15916662;-0.30500
15919440;-0.31000
15922218;-0.29000
15924996;-0.29500
15927773;-0.29500
15930551;-0.29500
15933329;-0.30500
15936107;-0.30000
15938884;-0.29000
15941662;-0.30000
15944440;-0.32000
15947218;-0.32000
15949996;-0.32000
15952773;-0.32500
15955551;-0.29500
15958329;-0.30500
15961107;-0.30500
15963884;-0.32500
15966662;-0.32500
15969440;-0.31500
15972218;-0.30500
15974996;-0.31500
15977773;-0.32000
15980551;-0.32500
15983329;-0.33500
15986107;-0.33000
15988884;-0.32000
15991662;-0.31500
15994440;-0.31500
15997218;-0.32000
15999996;-0.34000
16002773;-0.31000
16005551;-0.31000
16008329;-0.30500
16011107;-0.31500
16013884;-0.33000
16016662;-0.33000
16019440;-0.31000
16022218;-0.31500
16024996;-0.30500
16027773;-0.30500
16030551;-0.32000
16033329;-0.35000
16036107;-0.32000
16038884;-0.30500
16041662;-0.31500
16044440;-0.32000
16047218;-0.30000
16049996;-0.32500
16052773;-0.30500
16055551;-0.30000
16058329;-0.29500
16061107;-0.28500
16063884;-0.28500
16066662;-0.28000
16069440;-0.28500
16072218;-0.25000
16074995;-0.25000
16077773;-0.26000
16080551;-0.24000
16083329;-0.24500
16086107;-0.22000
16088884;-0.21000
16091662;-0.20000
16094440;-0.22000
16097218;-0.21000
16099995;-0.22000
16102773;-0.20500
16105551;-0.19000
16108329;-0.19500
16111107;-0.20000
16113884;-0.21500
16116662;-0.23000
16119440;-0.23000
16122218;-0.21500
16124995;-0.23000
16127773;-0.24500
16130551;-0.24500
16133329;-0.26500
16136107;-0.26000
16138884;-0.23000
16141662;-0.22000
16144440;-0.21500
16147218;-0.23500
16149995;-0.26000
16152773;-0.26500
16155551;-0.27000
16158329;-0.28500
16161107;-0.31000
16163884;-0.33500
16166662;-0.33500
16169440;-0.32500
16172218;-0.33000
16174995;-0.33500
16177773;-0.35500
16180551;-0.35500
16183329;-0.37500
16186107;-0.36000
16188884;-0.34500
16191662;-0.36000
16194440;-0.36500
16197218;-0.36500
16199995;-0.38000
16202773;-0.36000
16205551;-0.36000
16208329;-0.36000
16211107;-0.37000
16213884;-0.38000
16216662;-0.38000
16219440;-0.36000
16222218;-0.35000
16224995;-0.34000
16227773;-0.36500
16230551;-0.38500
16233329;-0.39500
16236107;-0.41000
16238884;-0.43000
16241662;-0.44000
16244440;-0.47000
16247218;-0.53000
16249995;-0.58000
16252773;-0.59500
16255551;-0.53000
16258329;-0.42000
16261107;-0.29500
16263884;-0.16500
16266662;0.01500
16269440;0.29500
16272218;0.56000
16274995;0.77500
16277773;0.91500
16280551;0.94000
16283329;0.81500
16286107;0.59500
16288884;0.33000
16291662;0.07500
16294440;-0.12500
16297218;-0.25500
16299995;-0.34000
16302773;-0.39000
16305551;-0.45500
16308329;-0.50500
16311107;-0.54500
16313884;-0.56000
16316662;-0.52000
16319440;-0.44500
16322218;-0.42000
16324995;-0.42000
16327773;-0.42500
16330551;-0.42500
16333329;-0.41500
16336107;-0.41000
16338884;-0.41000
16341662;-0.41000
16344440;-0.41000
16347218;-0.41500
16349995;-0.41500
16352773;-0.40500
16355551;-0.41500
16358329;-0.42500
16361107;-0.43000
16363884;-0.44000
16366662;-0.43000
16369440;-0.40500
16372218;-0.40500
16374995;-0.41000
16377773;-0.42000
16380551;-0.42000
16383329;-0.43000
16386107;-0.42500
16388884;-0.40500
16391662;-0.40000
16394440;-0.41000
16397218;-0.43500
16399995;-0.43000
16402773;-0.43500
16405551;-0.41500
16408329;-0.43000
16411107;-0.41500
16413884;-0.41500
16416662;-0.42500
16419440;-0.42500
16422218;-0.41000
16424995;-0.41000
16427773;-0.42000
16430551;-0.43500
16433329;-0.42500
16436107;-0.42500
16438884;-0.42000
16441662;-0.43000
16444440;-0.43000
16447218;-0.44000
16449995;-0.44000
16452773;-0.42500
16455551;-0.42000
16458329;-0.42000
16461107;-0.42500
16463884;-0.43500
16466662;-0.43500
16469440;-0.42500
16472218;-0.41500
16474995;-0.42000
16477773;-0.42000
16480551;-0.42000
16483329;-0.42500
16486106;-0.43000
16488884;-0.42000
16491662;-0.41500
16494440;-0.42000
16497218;-0.42000
16499995;-0.42000
16502773;-0.42500
16505551;-0.42000
16508329;-0.42000
16511106;-0.42000
16513884;-0.44000
16516662;-0.44500
16519440;-0.44000
16522218;-0.44000
16524995;-0.43500
16527773;-0.45500
16530551;-0.46500
16533329;-0.46000
16536106;-0.47000
16538884;-0.46500
16541662;-0.46000
16544440;-0.47500
16547218;-0.48500
16549995;-0.48500
16552773;-0.50000
16555551;-0.48000
16558329;-0.47000
16561106;-0.49000
16563884;-0.49000
16566662;-0.48500
16569440;-0.48000
16572218;-0.45000
16574995;-0.45500
16577773;-0.45500
16580551;-0.44500
16583329;-0.43500
16586106;-0.41500
16588884;-0.40000
16591662;-0.38500
16594440;-0.38500
16597218;-0.37000
16599995;-0.37000
16602773;-0.36000
16605551;-0.35000
16608329;-0.34000
16611106;-0.33500
16613884;-0.34000
16616662;-0.34500
16619440;-0.33500
16622218;-0.32000
16624995;-0.31500
16627773;-0.32500
16630551;-0.33500
16633329;-0.33000
16636106;-0.32500
16638884;-0.31000
16641662;-0.31500
16644440;-0.32000
16647218;-0.32000
16649995;-0.32500
16652773;-0.32500
16655551;-0.31500
16658329;-0.31500
16661106;-0.32000
16663884;-0.32500
16666662;-0.34500
16669440;-0.32500
16672218;-0.32000
16674995;-0.32000
16677773;-0.33500
16680551;-0.34500
16683329;-0.34500
16686106;-0.35000
16688884;-0.33500
16691662;-0.33000
16694440;-0.33500
16697218;-0.35000
16699995;-0.34500
16702773;-0.34000
16705551;-0.33500
16708329;-0.33000
16711106;-0.34500
16713884;-0.35000
16716662;-0.35000
16719440;-0.34000
16722218;-0.33000
16724995;-0.34000
16727773;-0.34500
16730551;-0.36000
16733329;-0.36500
16736106;-0.34500
16738884;-0.34000
16741662;-0.34000
16744440;-0.35500
16747218;-0.36500
16749995;-0.36000
16752773;-0.35000
16755551;-0.34500
16758329;-0.34500
16761106;-0.35500
16763884;-0.37000
16766662;-0.37000
16769440;-0.35500
16772218;-0.35500
16774995;-0.34500
16777773;-0.35000
16780551;-0.37000
16783329;-0.36000
16786106;-0.36500
16788884;-0.36000
16791662;-0.35500
16794440;-0.35500
16797218;-0.36000
16799995;-0.36500
16802773;-0.36500
16805551;-0.35500
16808329;-0.35000
16811106;-0.36000
16813884;-0.37000
16816662;-0.36500
16819440;-0.36000
16822218;-0.34500
16824995;-0.35000
16827773;-0.35500
16830551;-0.37000
16833329;-0.37000
16836106;-0.35500
16838884;-0.36000
16841662;-0.35500
16844440;-0.35500
16847218;-0.36500
16849995;-0.36500
16852773;-0.35500
16855551;-0.34500
16858329;-0.35000
16861106;-0.35500
16863884;-0.36000
16866662;-0.36000
16869440;-0.34500
16872217;-0.35000
16874995;-0.34000
16877773;-0.34500
16880551;-0.35000
16883329;-0.35000
16886106;-0.34000
16888884;-0.34000
16891662;-0.33500
16894440;-0.34000
16897217;-0.33000
16899995;-0.31500
16902773;-0.30000
16905551;-0.29500
16908329;-0.29000
16911106;-0.28500
16913884;-0.29000
16916662;-0.28500
16919440;-0.27500
16922217;-0.26000
16924995;-0.25000
16927773;-0.25000
16930551;-0.25000
16933329;-0.26000
16936106;-0.25000
16938884;-0.24000
16941662;-0.25000
16944440;-0.26000
16947217;-0.28000
16949995;-0.28000
16952773;-0.27000
16955551;-0.25000
16958329;-0.26500
16961106;-0.27000
16963884;-0.28000
16966662;-0.27500
16969440;-0.24500
16972217;-0.24000
16974995;-0.24500
16977773;-0.28500
16980551;-0.30500
16983329;-0.32500
16986106;-0.33000
16988884;-0.34500
16991662;-0.35500
16994440;-0.37000
16997217;-0.38500
16999995;-0.37500
17002773;-0.38000
17005551;-0.36500
17008329;-0.37500
17011106;-0.38000
17013884;-0.38000
17016662;-0.40000
17019440;-0.38000
17022217;-0.38500
17024995;-0.37500
17027773;-0.38500
17030551;-0.40000
17033329;-0.40500
17036106;-0.39500
17038884;-0.38500
17041662;-0.39000
17044440;-0.40000
17047217;-0.41000
17049995;-0.41000
17052773;-0.40500
17055551;-0.40000
17058329;-0.42000
17061106;-0.44000
17063884;-0.49000
17066662;-0.53000
17069440;-0.54000
17072217;-0.55500
17074995;-0.60000
17077773;-0.64500
17080551;-0.65500
17083329;-0.61500
17086106;-0.54000
17088884;-0.43500
17091662;-0.33000
17094440;-0.21500
17097217;-0.09000
17099995;0.11000
17102773;0.35500
17105551;0.61500
17108329;0.80500
17111106;0.91500
17113884;0.92500
17116662;0.79000
17119440;0.46500
17122217;0.06500
17124995;-0.30000
17127773;-0.49500
17130551;-0.54000
17133329;-0.50500
17136106;-0.44000
17138884;-0.41500
17141662;-0.41000
17144440;-0.43500
17147217;-0.43500
17149995;-0.44000
17152773;-0.42500
17155551;-0.42500
17158329;-0.42500
17161106;-0.43000
17163884;-0.43500
17166662;-0.44500
17169440;-0.44000
17172217;-0.43500
17174995;-0.43000
17177773;-0.43000
17180551;-0.43000
17183329;-0.44500
17186106;-0.44000
17188884;-0.43500
17191662;-0.43500
17194440;-0.43500
17197217;-0.44000
17199995;-0.44500
17202773;-0.44000
17205551;-0.40500
17208329;-0.42500
17211106;-0.42000
17213884;-0.44000
17216662;-0.44000
17219440;-0.42500
17222217;-0.44000
17224995;-0.43500
17227773;-0.42500
17230551;-0.44000
17233329;-0.45000
17236106;-0.42500
17238884;-0.42000
17241662;-0.42000
17244440;-0.42500
17247217;-0.43000
17249995;-0.43500
17252773;-0.42000
17255551;-0.41000
17258329;-0.42000
17261106;-0.42500
17263884;-0.43000
17266662;-0.43500
17269440;-0.43500
17272217;-0.42500
17274995;-0.43000
17277773;-0.43500
17280551;-0.44000
17283328;-0.43500
17286106;-0.43500
17288884;-0.42500
17291662;-0.42500
17294440;-0.43500
17297217;-0.42000
17299995;-0.43500
17302773;-0.43500
17305551;-0.42000
17308328;-0.42500
17311106;-0.42500
17313884;-0.43000
17316662;-0.43000
17319440;-0.42500
17322217;-0.42000
17324995;-0.42000
17327773;-0.43000
17330551;-0.43000
17333328;-0.43500
17336106;-0.43500
17338884;-0.43500
17341662;-0.43000
17344440;-0.44000
17347217;-0.45000
17349995;-0.46500
17352773;-0.46000
17355551;-0.44500
17358328;-0.45000
17361106;-0.45500
17363884;-0.46000
17366662;-0.45500
17369440;-0.46000
17372217;-0.46000
17374995;-0.44500
17377773;-0.45500
17380551;-0.46500
17383328;-0.47000
17386106;-0.45500
17388884;-0.44000
17391662;-0.43500
17394440;-0.45500
17397217;-0.44500
17399995;-0.43500
17402773;-0.43000
17405551;-0.41000
17408328;-0.41500
17411106;-0.41000
17413884;-0.40500
17416662;-0.40500
17419440;-0.38500
17422217;-0.37500
17424995;-0.37500
17427773;-0.37500
17430551;-0.36500
17433328;-0.36500
17436106;-0.35500
17438884;-0.34500
17441662;-0.33500
17444440;-0.35000
17447217;-0.34500
17449995;-0.35500
17452773;-0.34500
17455551;-0.34000
17458328;-0.32000
17461106;-0.32500
17463884;-0.34000
17466662;-0.34000
17469440;-0.33500
17472217;-0.32000
17474995;-0.32000
17477773;-0.32500
17480551;-0.34500
17483328;-0.34500
17486106;-0.33000
17488884;-0.33000
17491662;-0.33500
17494440;-0.33000
17497217;-0.34500
17499995;-0.34000
17502773;-0.34500
17505551;-0.33500
17508328;-0.33500
17511106;-0.34500
17513884;-0.35000
17516662;-0.35000
17519440;-0.34500
17522217;-0.34000
17524995;-0.34000
17527773;-0.34500
17530551;-0.36000
17533328;-0.37000
17536106;-0.36500
17538884;-0.35000
17541662;-0.36500
17544440;-0.36000
17547217;-0.36500
17549995;-0.36500
17552773;-0.37000
17555551;-0.35500
17558328;-0.36000
17561106;-0.36500
17563884;-0.37500
17566662;-0.38000
17569440;-0.36500
17572217;-0.36500
17574995;-0.36500
17577773;-0.37000
17580551;-0.38000
17583328;-0.38500
17586106;-0.37500
17588884;-0.38000
17591662;-0.37500
17594440;-0.37000
17597217;-0.38500
17599995;-0.38500
17602773;-0.38000
17605551;-0.37500
17608328;-0.36500
17611106;-0.37000
17613884;-0.39000
17616662;-0.39000
17619440;-0.37500
17622217;-0.37000
17624995;-0.37500
17627773;-0.37000
17630551;-0.38000
17633328;-0.40000
17636106;-0.38000
17638884;-0.38000
17641662;-0.38000
17644440;-0.38000
17647217;-0.37500
17649995;-0.38000
17652773;-0.37500
17655551;-0.37000
17658328;-0.36000
17661106;-0.37500
17663884;-0.38500
17666662;-0.38500
17669439;-0.37500
17672217;-0.36000
17674995;-0.37000
17677773;-0.37000
17680551;-0.37500
17683328;-0.38000
17686106;-0.37500
17688884;-0.38000
17691662;-0.36000
17694439;-0.37500
17697217;-0.36500
17699995;-0.37500
17702773;-0.36500
17705551;-0.35500
17708328;-0.35500
17711106;-0.36000
17713884;-0.36500
17716662;-0.35500
17719439;-0.32500
17722217;-0.31000
17724995;-0.30000
17727773;-0.29500
17730551;-0.30000
17733328;-0.31500
17736106;-0.29000
17738884;-0.28000
17741662;-0.27500
17744439;-0.27500
17747217;-0.27500
17749995;-0.27500
17752773;-0.26500
17755551;-0.26000
17758328;-0.25000
17761106;-0.27000
17763884;-0.27500
17766662;-0.28000
17769439;-0.28000
17772217;-0.28000
17774995;-0.28000
17777773;-0.29000
17780551;-0.29000
17783328;-0.27500
17786106;-0.27500
17788884;-0.27500
17791662;-0.27500
17794439;-0.29000
17797217;-0.30500
17799995;-0.29000
17802773;-0.27000
17805551;-0.24000
17808328;-0.24500
17811106;-0.28000
17813884;-0.30500
17816662;-0.32000
17819439;-0.32500
17822217;-0.33500
17824995;-0.36000
17827773;-0.37000
17830551;-0.38500
17833328;-0.39500
17836106;-0.38500
17838884;-0.38000
17841662;-0.37000
17844439;-0.38000
17847217;-0.39500
17849995;-0.40000
17852773;-0.40000
17855551;-0.39000
17858328;-0.39500
17861106;-0.40500
17863884;-0.40500
17866662;-0.40000
17869439;-0.39000
17872217;-0.38500
17874995;-0.39000
17877773;-0.39000
17880551;-0.41000
17883328;-0.41000
17886106;-0.39500
17888884;-0.39000
17891662;-0.40000
17894439;-0.42000
17897217;-0.45000
17899995;-0.48500
17902773;-0.52000
17905551;-0.53000
17908328;-0.55000
17911106;-0.60000
17913884;-0.63500
17916662;-0.61500
17919439;-0.53500
17922217;-0.40500
17924995;-0.27500
17927773;-0.11500
17930551;0.08500
17933328;0.35500
17936106;0.63000
17938884;0.80500
17941662;0.89000
17944439;0.85000
17947217;0.60000
17949995;0.23000
17952773;-0.16000
17955551;-0.41500
17958328;-0.53500
17961106;-0.55500
17963884;-0.54000
17966662;-0.48500
17969439;-0.44000
17972217;-0.43500
17974995;-0.44000
17977773;-0.45000
17980551;-0.44000
17983328;-0.45000
17986106;-0.44500
17988884;-0.44500
17991662;-0.45000
17994439;-0.45000
17997217;-0.45500
17999995;-0.45500
18002773;-0.45000
18005551;-0.44500
18008328;-0.43500
18011106;-0.43500
18013884;-0.45500
18016662;-0.44500
18019439;-0.43000
18022217;-0.42500
18024995;-0.42000
18027773;-0.43000
18030551;-0.44500
18033328;-0.44500
18036106;-0.44500
18038884;-0.43000
18041662;-0.43500
18044439;-0.44000
18047217;-0.44500
18049995;-0.44500
18052773;-0.43500
18055550;-0.43500
18058328;-0.44500
18061106;-0.45000
18063884;-0.44000
18066662;-0.45000
18069439;-0.43500
18072217;-0.43500
18074995;-0.44500
18077773;-0.43500
18080550;-0.43500
18083328;-0.44000
18086106;-0.44000
18088884;-0.42500
18091662;-0.42000
18094439;-0.43000
18097217;-0.43500
18099995;-0.45000
18102773;-0.44500
18105550;-0.44000
18108328;-0.44000
18111106;-0.43500
18113884;-0.43500
18116662;-0.44500
18119439;-0.44000
18122217;-0.44000
18124995;-0.43000
18127773;-0.42500
18130550;-0.43500
18133328;-0.44000
18136106;-0.43000
18138884;-0.42500
18141662;-0.42500
18144439;-0.42500
18147217;-0.45000
18149995;-0.44500
18152773;-0.42500
18155550;-0.42500
18158328;-0.42500
18161106;-0.43500
18163884;-0.44000
18166662;-0.44500
18169439;-0.43000
18172217;-0.43000
18174995;-0.42000
18177773;-0.43000
18180550;-0.44000
18183328;-0.45000
18186106;-0.44500
18188884;-0.44000
18191662;-0.44000
18194439;-0.44000
18197217;-0.45500
18199995;-0.46000
18202773;-0.44000
18205550;-0.43500
18208328;-0.43500
18211106;-0.44500
18213884;-0.45500
18216662;-0.46000
18219439;-0.44500
18222217;-0.43000
18224995;-0.43000
18227773;-0.42000
18230550;-0.42500
18233328;-0.42500
18236106;-0.41000
18238884;-0.39000
18241662;-0.38500
18244439;-0.39500
18247217;-0.39000
18249995;-0.38500
18252773;-0.37000
18255550;-0.35500
18258328;-0.35000
18261106;-0.34500
18263884;-0.34500
18266662;-0.35500
18269439;-0.34000
18272217;-0.33500
18274995;-0.33000
18277773;-0.33500
18280550;-0.33500
18283328;-0.34500
18286106;-0.34000
18288884;-0.33000
18291662;-0.31500
18294439;-0.33000
18297217;-0.34000
18299995;-0.34000
18302773;-0.32500
18305550;-0.31500
18308328;-0.33000
18311106;-0.32500
18313884;-0.35000
18316662;-0.34500
18319439;-0.33000
18322217;-0.31500
18324995;-0.32500
18327773;-0.33000
18330550;-0.34000
18333328;-0.34500
18336106;-0.34000
18338884;-0.33000
18341662;-0.32500
18344439;-0.33500
18347217;-0.35000
18349995;-0.36000
18352773;-0.34500
18355550;-0.33500
18358328;-0.33000
18361106;-0.34500
18363884;-0.36000
18366662;-0.36000
18369439;-0.35000
18372217;-0.35000
18374995;-0.35000
18377773;-0.34500
18380550;-0.36500
18383328;-0.37000
18386106;-0.37000
18388884;-0.35500
18391662;-0.35500
18394439;-0.36500
18397217;-0.38000
18399995;-0.38000
18402773;-0.37000
18405550;-0.37000
18408328;-0.37000
18411106;-0.37000
18413884;-0.38500
18416662;-0.38500
18419439;-0.38000
18422217;-0.37000
18424995;-0.36500
18427773;-0.37500
18430550;-0.38000
18433328;-0.37500
18436106;-0.38000
18438884;-0.37000
18441662;-0.36500
18444439;-0.37500
18447217;-0.38500
18449995;-0.38500
18452773;-0.39000
18455550;-0.37500
18458328;-0.36500
18461106;-0.37500
18463884;-0.38000
18466661;-0.38500
18469439;-0.37000
18472217;-0.36000
18474995;-0.37000
18477773;-0.37000
18480550;-0.37500
18483328;-0.38000
18486106;-0.37500
18488884;-0.37000
18491661;-0.37000
18494439;-0.37000
18497217;-0.37000
18499995;-0.37500
18502773;-0.37000
18505550;-0.36000
18508328;-0.36000
18511106;-0.36000
18513884;-0.38000
18516661;-0.37000
18519439;-0.36500
18522217;-0.35000
18524995;-0.35000
18527773;-0.36000
18530550;-0.36000
18533328;-0.36000
18536106;-0.35500
18538884;-0.34000
18541661;-0.33500
18544439;-0.33000
18547217;-0.32500
18549995;-0.31000
18552773;-0.30000
18555550;-0.29000
18558328;-0.28500
18561106;-0.29000
18563884;-0.29500
18566661;-0.29500
18569439;-0.27000
18572217;-0.25500
18574995;-0.24500
18577773;-0.24500
18580550;-0.25000
18583328;-0.27000
18586106;-0.25500
18588884;-0.25000
18591661;-0.25500
18594439;-0.27000
18597217;-0.27000
18599995;-0.27500
18602773;-0.27000
18605550;-0.27000
18608328;-0.27500
18611106;-0.28000
18613884;-0.27500
18616661;-0.24500
18619439;-0.23000
18622217;-0.24000
18624995;-0.26500
18627773;-0.30500
18630550;-0.31000
18633328;-0.32500
18636106;-0.32500
18638884;-0.33500
18641661;-0.34500
18644439;-0.36500
18647217;-0.36500
18649995;-0.37000
18652773;-0.37000
18655550;-0.37500
18658328;-0.37000
18661106;-0.38000
18663884;-0.38000
18666661;-0.38000
18669439;-0.38000
18672217;-0.36500
18674995;-0.38000
18677773;-0.39000
18680550;-0.39000
18683328;-0.40000
18686106;-0.39000
18688884;-0.38000
18691661;-0.38000
18694439;-0.38000
18697217;-0.41000
18699995;-0.39500
18702773;-0.39500
18705550;-0.40500
18708328;-0.39500
18711106;-0.40000
18713884;-0.42500
18716661;-0.42500
18719439;-0.43000
18722217;-0.46000
18724995;-0.49000
18727773;-0.53000
18730550;-0.54500
18733328;-0.59000
18736106;-0.63000
18738884;-0.61500
18741661;-0.54500
18744439;-0.43000
18747217;-0.30500
18749995;-0.15500
18752773;0.08000
18755550;0.34500
18758328;0.58000
18761106;0.72500
18763884;0.76000
18766661;0.66500
18769439;0.39500
18772217;0.03000
18774995;-0.28500
18777773;-0.49500
18780550;-0.56000
18783328;-0.52500
18786106;-0.47000
18788884;-0.44000
18791661;-0.42000
18794439;-0.44000
18797217;-0.44500
18799995;-0.44500
18802773;-0.43500
18805550;-0.43000
18808328;-0.42500
18811106;-0.43500
18813884;-0.43500
18816661;-0.43500
18819439;-0.42000
18822217;-0.42500
18824995;-0.41500
18827773;-0.42000
18830550;-0.43000
18833328;-0.44000
18836106;-0.44000
18838884;-0.44000
18841661;-0.44500
18844439;-0.43000
18847217;-0.44000
18849995;-0.43000
18852772;-0.41500
18855550;-0.41500
18858328;-0.42000
18861106;-0.43500
18863884;-0.43500
18866661;-0.44500
18869439;-0.44000
18872217;-0.43500
18874995;-0.42500
18877772;-0.43000
18880550;-0.44500
18883328;-0.44000
18886106;-0.42500
18888884;-0.42500
18891661;-0.41000
18894439;-0.41500
18897217;-0.42000
18899995;-0.44500
18902772;-0.42500
18905550;-0.41000
18908328;-0.41500
18911106;-0.42000
18913884;-0.42500
18916661;-0.42500
18919439;-0.42000
18922217;-0.41500
18924995;-0.41000
18927772;-0.42500
18930550;-0.42500
18933328;-0.42500
18936106;-0.42000
18938884;-0.41000
18941661;-0.40000
18944439;-0.42000
18947217;-0.42000
18949995;-0.44000
18952772;-0.42500
18955550;-0.42500
18958328;-0.40500
18961106;-0.40500
18963884;-0.41500
18966661;-0.41500
18969439;-0.39500
18972217;-0.41000
18974995;-0.41500
18977772;-0.42500
18980550;-0.42000
18983328;-0.42500
18986106;-0.40500
18988884;-0.40500
18991661;-0.40000
18994439;-0.41000
18997217;-0.41500
18999995;-0.41500
19002772;-0.42000
19005550;-0.40000
19008328;-0.41500
19011106;-0.42500
19013884;-0.43500
19016661;-0.43500
19019439;-0.43500
19022217;-0.43000
19024995;-0.42500
19027772;-0.43500
19030550;-0.44500
19033328;-0.45000
19036106;-0.44000
19038884;-0.43500
19041661;-0.43500
19044439;-0.45000
19047217;-0.45000
19049995;-0.45000
19052772;-0.43500
19055550;-0.42500
19058328;-0.41000
19061106;-0.41500
19063884;-0.41000
19066661;-0.40500
19069439;-0.37500
19072217;-0.37000
19074995;-0.36500
19077772;-0.36500
19080550;-0.36500
19083328;-0.36000
19086106;-0.35000
19088884;-0.33500
19091661;-0.34500
19094439;-0.33000
19097217;-0.34000
19099995;-0.35000
19102772;-0.34500
19105550;-0.34000
19108328;-0.34500
19111106;-0.35500
19113884;-0.35500
19116661;-0.35500
19119439;-0.35500
19122217;-0.34500
19124995;-0.34500
19127772;-0.34500
19130550;-0.36500
19133328;-0.36500
19136106;-0.34000
19138884;-0.33000
19141661;-0.33500
19144439;-0.35500
19147217;-0.36000
19149995;-0.36000
19152772;-0.35000
19155550;-0.35500
19158328;-0.34500
19161106;-0.35000
