time_ms;ecg_value
0;0.65500
2778;0.80500
5556;0.82000
8333;0.64500
11111;0.26500
13889;-0.12500
16667;-0.40000
19444;-0.54500
22222;-0.53500
25000;-0.49500
27778;-0.44500
30556;-0.44500
33333;-0.45000
36111;-0.43000
38889;-0.43000
41667;-0.41000
44444;-0.41000
47222;-0.42000
50000;-0.43000
52778;-0.44500
55556;-0.43500
58333;-0.43000
61111;-0.42500
63889;-0.43000
66667;-0.42500
69444;-0.42000
72222;-0.42500
75000;-0.42500
77778;-0.42500
80556;-0.43500
83333;-0.43500
86111;-0.43000
88889;-0.42000
91667;-0.43500
94444;-0.42500
97222;-0.44500
100000;-0.45000
102778;-0.42500
105556;-0.42500
108333;-0.42000
111111;-0.43000
113889;-0.44000
116667;-0.45500
119444;-0.44000
122222;-0.44000
125000;-0.42500
127778;-0.42500
130556;-0.43500
133333;-0.44000
136111;-0.42500
138889;-0.42000
141667;-0.43500
144444;-0.44000
147222;-0.45500
150000;-0.46500
152778;-0.44000
155556;-0.42500
158333;-0.43000
161111;-0.43500
163889;-0.45000
166667;-0.45000
169444;-0.43500
172222;-0.42500
175000;-0.42000
177778;-0.43000
180556;-0.45000
183333;-0.45000
186111;-0.43500
188889;-0.42500
191667;-0.42000
194444;-0.42000
197222;-0.43500
200000;-0.44000
202778;-0.44000
205555;-0.43000
208333;-0.43000
211111;-0.42500
213889;-0.43000
216667;-0.44000
219444;-0.43500
222222;-0.43500
225000;-0.43000
227778;-0.44500
230555;-0.44000
233333;-0.45500
236111;-0.45500
238889;-0.45000
241667;-0.45000
244444;-0.45500
247222;-0.47500
250000;-0.48500
252778;-0.48000
255555;-0.47500
258333;-0.46000
261111;-0.47000
263889;-0.47500
266667;-0.49500
269444;-0.48500
272222;-0.46500
275000;-0.46000
277778;-0.45000
280555;-0.45000
283333;-0.44000
286111;-0.41500
288889;-0.40000
291667;-0.38500
294444;-0.39000
297222;-0.39500
300000;-0.38000
302778;-0.38000
305555;-0.36000
308333;-0.36000
311111;-0.36000
313889;-0.36500
316667;-0.36500
319444;-0.35000
322222;-0.35000
325000;-0.34000
327778;-0.33000
330555;-0.33500
333333;-0.32000
336111;-0.31500
338889;-0.31000
341667;-0.32000
344444;-0.33500
347222;-0.35000
350000;-0.35000
352778;-0.34000
355555;-0.33000
358333;-0.31500
361111;-0.33500
363889;-0.34500
366667;-0.35000
369444;-0.34000
372222;-0.33500
375000;-0.33000
377778;-0.33500
380555;-0.33000
383333;-0.34500
386111;-0.32500
388889;-0.32000
391667;-0.33500
394444;-0.34500
397222;-0.35000
400000;-0.36000
402778;-0.35000
405555;-0.35000
408333;-0.34000
411111;-0.34000
413889;-0.34000
416667;-0.36000
419444;-0.35000
422222;-0.34000
425000;-0.35500
427778;-0.35500
430555;-0.36000
433333;-0.37000
436111;-0.37000
438889;-0.36000
441667;-0.35500
444444;-0.36000
447222;-0.37000
450000;-0.38000
452778;-0.37500
455555;-0.36500
458333;-0.38000
461111;-0.37000
463889;-0.38000
466667;-0.39000
469444;-0.37500
472222;-0.37000
475000;-0.36500
477778;-0.37000
480555;-0.38000
483333;-0.37500
486111;-0.37500
488889;-0.37000
491667;-0.36500
494444;-0.36500
497222;-0.37000
500000;-0.36500
502778;-0.38000
505555;-0.38000
508333;-0.36500
511111;-0.36500
513889;-0.37500
516667;-0.38000
519444;-0.37000
522222;-0.36000
525000;-0.35500
527778;-0.36000
530555;-0.37500
533333;-0.38000
536111;-0.38000
538889;-0.36500
541667;-0.37000
544444;-0.37000
547222;-0.35500
550000;-0.36000
552778;-0.33500
555555;-0.31000
558333;-0.30000
561111;-0.30500
563889;-0.30500
566667;-0.29500
569444;-0.29000
572222;-0.27000
575000;-0.26000
577778;-0.25500
580555;-0.26000
583333;-0.25000
586111;-0.25500
588889;-0.25500
591667;-0.25000
594444;-0.25000
597222;-0.26500
600000;-0.27500
602778;-0.26000
605555;-0.26000
608333;-0.27000
611111;-0.27500
613889;-0.27000
616666;-0.26000
619444;-0.24000
622222;-0.25500
625000;-0.29000
627778;-0.30500
630555;-0.32500
633333;-0.34500
636111;-0.35000
638889;-0.35000
641666;-0.35000
644444;-0.36500
647222;-0.37500
650000;-0.38500
652778;-0.36500
655555;-0.36500
658333;-0.36500
661111;-0.35500
663889;-0.37000
666666;-0.38000
669444;-0.37000
672222;-0.37500
675000;-0.36500
677778;-0.36500
680555;-0.36500
683333;-0.37000
686111;-0.36000
688889;-0.35500
691666;-0.35500
694444;-0.36000
697222;-0.36500
700000;-0.38000
702778;-0.37000
705555;-0.36000
708333;-0.36000
711111;-0.37500
713889;-0.38500
716666;-0.41500
719444;-0.44500
722222;-0.47500
725000;-0.49000
727778;-0.52000
730555;-0.57500
733333;-0.57000
736111;-0.45500
738889;-0.30000
741666;-0.12000
744444;0.07500
747222;0.33500
750000;0.61500
752778;0.83000
755555;0.92000
758333;0.83000
761111;0.52000
763889;0.09000
766666;-0.27000
769444;-0.47500
772222;-0.50500
775000;-0.46500
777778;-0.40500
780555;-0.39000
783333;-0.39500
786111;-0.38500
788889;-0.37500
791666;-0.37000
794444;-0.38000
797222;-0.38500
800000;-0.39500
802778;-0.38000
805555;-0.38000
808333;-0.38000
811111;-0.38000
813889;-0.38500
816666;-0.39000
819444;-0.38500
822222;-0.37500
825000;-0.37000
827778;-0.36000
830555;-0.39000
833333;-0.40000
836111;-0.38500
838889;-0.37000
841666;-0.37500
844444;-0.37000
847222;-0.38000
850000;-0.38500
852778;-0.38500
855555;-0.37500
858333;-0.36500
861111;-0.37500
863889;-0.37500
866666;-0.39500
869444;-0.39500
872222;-0.37500
875000;-0.37500
877778;-0.35500
880555;-0.37500
883333;-0.38000
886111;-0.37500
888889;-0.36000
891666;-0.36000
894444;-0.36500
897222;-0.37500
900000;-0.39000
902778;-0.38000
905555;-0.37500
908333;-0.37000
911111;-0.37000
913889;-0.39000
916666;-0.38500
919444;-0.38500
922222;-0.37500
925000;-0.37000
927778;-0.38000
930555;-0.38500
933333;-0.39000
936111;-0.38000
938889;-0.37000
941666;-0.36500
944444;-0.38000
947222;-0.38500
950000;-0.38500
952778;-0.38500
955555;-0.39000
958333;-0.38000
961111;-0.38000
963889;-0.39000
966666;-0.39500
969444;-0.38000
972222;-0.38000
975000;-0.38000
977778;-0.38500
980555;-0.39000
983333;-0.41000
986111;-0.41000
988889;-0.40500
991666;-0.41000
994444;-0.40500
997222;-0.40500
1000000;-0.41500
1002777;-0.41000
1005555;-0.40500
1008333;-0.39500
1011111;-0.40000
1013889;-0.40500
1016666;-0.41500
1019444;-0.40500
1022222;-0.39000
1025000;-0.38500
1027777;-0.38000
1030555;-0.40000
1033333;-0.39500
1036111;-0.37500
1038889;-0.36500
1041666;-0.37000
1044444;-0.36000
1047222;-0.35500
1050000;-0.34500
1052777;-0.33500
1055555;-0.32000
1058333;-0.30500
1061111;-0.30500
1063889;-0.30500
1066666;-0.29000
1069444;-0.28500
1072222;-0.27500
1075000;-0.27000
1077777;-0.27500
1080555;-0.29000
1083333;-0.29500
1086111;-0.28500
1088889;-0.27000
1091666;-0.27000
1094444;-0.27000
1097222;-0.28000
1100000;-0.28500
1102777;-0.27000
1105555;-0.27500
1108333;-0.26500
1111111;-0.27500
1113889;-0.27500
1116666;-0.28000
1119444;-0.27000
1122222;-0.26500
1125000;-0.26500
1127777;-0.26500
1130555;-0.27500
1133333;-0.28500
1136111;-0.28000
1138889;-0.28000
1141666;-0.28000
1144444;-0.28000
1147222;-0.30500
1150000;-0.30500
1152777;-0.28500
1155555;-0.27500
1158333;-0.27500
1161111;-0.28500
1163889;-0.29000
1166666;-0.31000
1169444;-0.30000
1172222;-0.29500
1175000;-0.29000
1177777;-0.30000
1180555;-0.29500
1183333;-0.30000
1186111;-0.30000
1188889;-0.28500
1191666;-0.28500
1194444;-0.30000
1197222;-0.31000
1200000;-0.31000
1202777;-0.31000
1205555;-0.30500
1208333;-0.31000
1211111;-0.30000
1213889;-0.31500
1216666;-0.32500
1219444;-0.33000
1222222;-0.30500
1225000;-0.31000
1227777;-0.31000
1230555;-0.31500
1233333;-0.32000
1236111;-0.32000
1238889;-0.32000
1241666;-0.31000
1244444;-0.32500
1247222;-0.33000
1250000;-0.34000
1252777;-0.32000
1255555;-0.31000
1258333;-0.31000
1261111;-0.32500
1263889;-0.31500
1266666;-0.32000
1269444;-0.32000
1272222;-0.31000
1275000;-0.31500
1277777;-0.31500
1280555;-0.31500
1283333;-0.31000
1286111;-0.31000
1288889;-0.31500
1291666;-0.31000
1294444;-0.31500
1297222;-0.31500
1300000;-0.33000
1302777;-0.32500
1305555;-0.31500
1308333;-0.31000
1311111;-0.31500
1313889;-0.32000
1316666;-0.32500
1319444;-0.31500
1322222;-0.30500
1325000;-0.29000
1327777;-0.28000
1330555;-0.29000
1333333;-0.26500
1336111;-0.25000
1338889;-0.24500
1341666;-0.23000
1344444;-0.23500
1347222;-0.24000
1350000;-0.25500
1352777;-0.24000
1355555;-0.23000
1358333;-0.22000
1361111;-0.21000
1363889;-0.21000
1366666;-0.22000
1369444;-0.21000
1372222;-0.19500
1375000;-0.19500
1377777;-0.19500
1380555;-0.19500
1383333;-0.21000
1386111;-0.20000
1388888;-0.21500
1391666;-0.22000
1394444;-0.21500
1397222;-0.22500
1400000;-0.23000
1402777;-0.24500
1405555;-0.22500
1408333;-0.21000
1411111;-0.18500
1413888;-0.18500
1416666;-0.21500
1419444;-0.23500
1422222;-0.25500
1425000;-0.25500
1427777;-0.27500
1430555;-0.30500
1433333;-0.31500
1436111;-0.32000
1438888;-0.32500
1441666;-0.32000
1444444;-0.31000
1447222;-0.34000
1450000;-0.34500
1452777;-0.34000
1455555;-0.32500
1458333;-0.32500
1461111;-0.33000
1463888;-0.34500
1466666;-0.35000
1469444;-0.35000
1472222;-0.35500
1475000;-0.33000
1477777;-0.34500
1480555;-0.35500
1483333;-0.35000
1486111;-0.35000
1488888;-0.34500
1491666;-0.34500
1494444;-0.35000
1497222;-0.35000
1500000;-0.36500
1502777;-0.36000
1505555;-0.37500
1508333;-0.40000
1511111;-0.43500
1513888;-0.47000
1516666;-0.49000
1519444;-0.50000
1522222;-0.53500
1525000;-0.56500
1527777;-0.53500
1530555;-0.45500
1533333;-0.32000
1536111;-0.16000
1538888;0.02000
1541666;0.27000
1544444;0.54500
1547222;0.75500
1550000;0.87000
1552777;0.86500
1555555;0.69000
1558333;0.30000
1561111;-0.13000
1563888;-0.42500
1566666;-0.53500
1569444;-0.51000
1572222;-0.45000
1575000;-0.39500
1577777;-0.38500
1580555;-0.39000
1583333;-0.40000
1586111;-0.39500
1588888;-0.38000
1591666;-0.37000
1594444;-0.38000
1597222;-0.38500
1600000;-0.39500
1602777;-0.39500
1605555;-0.38500
1608333;-0.38500
1611111;-0.39000
1613888;-0.39000
1616666;-0.40000
1619444;-0.40000
1622222;-0.38500
1625000;-0.38000
1627777;-0.38500
1630555;-0.39000
1633333;-0.39000
1636111;-0.39000
1638888;-0.39000
1641666;-0.38000
1644444;-0.37000
1647222;-0.38500
1650000;-0.40000
1652777;-0.38000
1655555;-0.37000
1658333;-0.37500
1661111;-0.37000
1663888;-0.38500
1666666;-0.38500
1669444;-0.38500
1672222;-0.37000
1675000;-0.37500
1677777;-0.39000
1680555;-0.38500
1683333;-0.39000
1686111;-0.38000
1688888;-0.37500
1691666;-0.36500
1694444;-0.37500
1697222;-0.38500
1700000;-0.39000
1702777;-0.39000
1705555;-0.37500
1708333;-0.38000
1711111;-0.37500
1713888;-0.39000
1716666;-0.40000
1719444;-0.38500
1722222;-0.37000
1725000;-0.36500
1727777;-0.37000
1730555;-0.37000
1733333;-0.37500
1736111;-0.37500
1738888;-0.36500
1741666;-0.36000
1744444;-0.37000
1747222;-0.37000
1750000;-0.37500
1752777;-0.38500
1755555;-0.36500
1758333;-0.37000
1761111;-0.37500
1763888;-0.38500
1766666;-0.38000
1769444;-0.37500
1772222;-0.37500
1775000;-0.36500
1777777;-0.36500
1780555;-0.37000
1783333;-0.38000
1786111;-0.38500
1788888;-0.37000
1791666;-0.36000
1794444;-0.37000
1797222;-0.38000
1799999;-0.38000
1802777;-0.37500
1805555;-0.38000
1808333;-0.36500
1811111;-0.38000
1813888;-0.38000
1816666;-0.39500
1819444;-0.38000
1822222;-0.38000
1824999;-0.37500
1827777;-0.38500
1830555;-0.38000
1833333;-0.39000
1836111;-0.38500
1838888;-0.37000
1841666;-0.37000
1844444;-0.36000
1847222;-0.38000
1849999;-0.37000
1852777;-0.35500
1855555;-0.33500
1858333;-0.33000
1861111;-0.33500
1863888;-0.33500
1866666;-0.34000
1869444;-0.33000
1872222;-0.31500
1874999;-0.30500
1877777;-0.31000
1880555;-0.31500
1883333;-0.32000
1886111;-0.30500
1888888;-0.30000
1891666;-0.29500
1894444;-0.30000
1897222;-0.29500
1899999;-0.31000
1902777;-0.29500
1905555;-0.29500
1908333;-0.29000
1911111;-0.28500
1913888;-0.30000
1916666;-0.29500
1919444;-0.28500
1922222;-0.28500
1924999;-0.28000
1927777;-0.29000
1930555;-0.30000
1933333;-0.30500
1936111;-0.30000
1938888;-0.29500
1941666;-0.28000
1944444;-0.29500
1947222;-0.29500
1949999;-0.31000
1952777;-0.31000
1955555;-0.30500
1958333;-0.30500
1961111;-0.29500
1963888;-0.30000
1966666;-0.32000
1969444;-0.31000
1972222;-0.31000
1974999;-0.31000
1977777;-0.31500
1980555;-0.32000
1983333;-0.32000
1986111;-0.31500
1988888;-0.30500
1991666;-0.30500
1994444;-0.31500
1997222;-0.32000
1999999;-0.33500
2002777;-0.32000
2005555;-0.31000
2008333;-0.32000
2011111;-0.32000
2013888;-0.33000
2016666;-0.34500
2019444;-0.33500
2022222;-0.33000
2024999;-0.33000
2027777;-0.34000
2030555;-0.34000
2033333;-0.34500
2036111;-0.33500
2038888;-0.33000
2041666;-0.32000
2044444;-0.33000
2047222;-0.34500
2049999;-0.35500
2052777;-0.34000
2055555;-0.33000
2058333;-0.32500
2061111;-0.33000
2063888;-0.34000
2066666;-0.34500
2069444;-0.33000
2072222;-0.33000
2074999;-0.32000
2077777;-0.32500
2080555;-0.33500
2083333;-0.34500
2086111;-0.34500
2088888;-0.33500
2091666;-0.32500
2094444;-0.33000
2097222;-0.34000
2099999;-0.34500
2102777;-0.33000
2105555;-0.33500
2108333;-0.33000
2111111;-0.34000
2113888;-0.36000
2116666;-0.35000
2119444;-0.34000
2122222;-0.33000
2124999;-0.33000
2127777;-0.32500
2130555;-0.33500
2133333;-0.34500
2136111;-0.33500
2138888;-0.32000
2141666;-0.32000
2144444;-0.31000
2147222;-0.30500
2149999;-0.30500
2152777;-0.28500
2155555;-0.27000
2158333;-0.25500
2161111;-0.26000
2163888;-0.26000
2166666;-0.26500
2169444;-0.27000
2172222;-0.26000
2174999;-0.26500
2177777;-0.25500
2180555;-0.25000
2183333;-0.24000
2186110;-0.23000
2188888;-0.21500
2191666;-0.21000
2194444;-0.22000
2197222;-0.21500
2199999;-0.23000
2202777;-0.23500
2205555;-0.22500
2208333;-0.22000
2211110;-0.22500
2213888;-0.23000
2216666;-0.23000
2219444;-0.24000
2222222;-0.24500
2224999;-0.24500
2227777;-0.22000
2230555;-0.21500
2233333;-0.22500
2236110;-0.25500
2238888;-0.28000
2241666;-0.29000
2244444;-0.30000
2247222;-0.32500
2249999;-0.34500
2252777;-0.33000
2255555;-0.34500
2258333;-0.35000
2261110;-0.34500
2263888;-0.35000
2266666;-0.36500
2269444;-0.36500
2272222;-0.34000
2274999;-0.36500
2277777;-0.35500
2280555;-0.36500
2283333;-0.37000
2286110;-0.37000
2288888;-0.36000
2291666;-0.36000
2294444;-0.36000
2297222;-0.37500
2299999;-0.38500
2302777;-0.39000
2305555;-0.38500
2308333;-0.36500
2311110;-0.36500
2313888;-0.38500
2316666;-0.40000
2319444;-0.42000
2322222;-0.45000
2324999;-0.46500
2327777;-0.48000
2330555;-0.48000
2333333;-0.50500
2336110;-0.54000
2338888;-0.58500
2341666;-0.60000
2344444;-0.58000
2347222;-0.51000
2349999;-0.43000
2352777;-0.31500
2355555;-0.20500
2358333;-0.06000
2361110;0.16000
2363888;0.41500
2366666;0.60000
2369444;0.76000
2372222;0.80500
2374999;0.72000
2377777;0.43000
2380555;0.04500
2383333;-0.30500
2386110;-0.48000
2388888;-0.52000
2391666;-0.47000
2394444;-0.41000
2397222;-0.40000
2399999;-0.40000
2402777;-0.40500
2405555;-0.39500
2408333;-0.38000
2411110;-0.37500
2413888;-0.38500
2416666;-0.40000
2419444;-0.40500
2422222;-0.39500
2424999;-0.39000
2427777;-0.39000
2430555;-0.40500
2433333;-0.41000
2436110;-0.42000
2438888;-0.41000
2441666;-0.40000
2444444;-0.40500
2447222;-0.41000
2449999;-0.41500
2452777;-0.40500
2455555;-0.40000
2458333;-0.40000
2461110;-0.40000
2463888;-0.41000
2466666;-0.41000
2469444;-0.40000
2472222;-0.40000
2474999;-0.39500
2477777;-0.39500
2480555;-0.40000
2483333;-0.41000
2486110;-0.40500
2488888;-0.39000
2491666;-0.37500
2494444;-0.38000
2497222;-0.39500
2499999;-0.41000
2502777;-0.41500
2505555;-0.40500
2508333;-0.39000
2511110;-0.40500
2513888;-0.41000
2516666;-0.41000
2519444;-0.41000
2522222;-0.40500
2524999;-0.40000
2527777;-0.40500
2530555;-0.41500
2533333;-0.41500
2536110;-0.41500
2538888;-0.40500
2541666;-0.40000
2544444;-0.40000
2547222;-0.40500
2549999;-0.41000
2552777;-0.40500
2555555;-0.39500
2558333;-0.39000
2561110;-0.39500
2563888;-0.41500
2566666;-0.41500
2569444;-0.42000
2572222;-0.41000
2574999;-0.40000
2577777;-0.40000
2580555;-0.40000
2583333;-0.41500
2586110;-0.41000
2588888;-0.40000
2591666;-0.39000
2594444;-0.38500
2597221;-0.40500
2599999;-0.41000
2602777;-0.39500
2605555;-0.39500
2608333;-0.40000
2611110;-0.40000
2613888;-0.41500
2616666;-0.42000
2619444;-0.42000
2622221;-0.42500
2624999;-0.42000
2627777;-0.42000
2630555;-0.43000
2633333;-0.43500
2636110;-0.44000
2638888;-0.43000
2641666;-0.42000
2644444;-0.41500
2647221;-0.45000
2649999;-0.45000
2652777;-0.44000
2655555;-0.43500
2658333;-0.43000
2661110;-0.44000
2663888;-0.44000
2666666;-0.43000
2669444;-0.42500
2672221;-0.41000
2674999;-0.41000
2677777;-0.40500
2680555;-0.38500
2683333;-0.39500
2686110;-0.38000
2688888;-0.37000
2691666;-0.37500
2694444;-0.37500
2697221;-0.36000
2699999;-0.37000
2702777;-0.36000
2705555;-0.33000
2708333;-0.33500
2711110;-0.33000
2713888;-0.34500
2716666;-0.35500
2719444;-0.35000
2722221;-0.33500
2724999;-0.34000
2727777;-0.34500
2730555;-0.35000
2733333;-0.35000
2736110;-0.35000
2738888;-0.34000
2741666;-0.34500
2744444;-0.34000
2747221;-0.34500
2749999;-0.34500
2752777;-0.35500
2755555;-0.34500
2758333;-0.34000
2761110;-0.34500
2763888;-0.36000
2766666;-0.36500
2769444;-0.36500
2772221;-0.35000
2774999;-0.35000
2777777;-0.34500
2780555;-0.35000
2783333;-0.36000
2786110;-0.35500
2788888;-0.35500
2791666;-0.34500
2794444;-0.34500
2797221;-0.37500
2799999;-0.38000
2802777;-0.38000
2805555;-0.37500
2808333;-0.37500
2811110;-0.37000
2813888;-0.38000
2816666;-0.38500
2819444;-0.37500
2822221;-0.35500
2824999;-0.36500
2827777;-0.37000
2830555;-0.37000
2833333;-0.39000
2836110;-0.38000
2838888;-0.38500
2841666;-0.38500
2844444;-0.38000
2847221;-0.39500
2849999;-0.40500
2852777;-0.40000
2855555;-0.39000
2858333;-0.39000
2861110;-0.39000
2863888;-0.39000
2866666;-0.39500
2869444;-0.39000
2872221;-0.38000
2874999;-0.38000
2877777;-0.39500
2880555;-0.40000
2883333;-0.40500
2886110;-0.40500
2888888;-0.40500
2891666;-0.39500
2894444;-0.38500
2897221;-0.39500
2899999;-0.41000
2902777;-0.40500
2905555;-0.39000
2908333;-0.39000
2911110;-0.39000
2913888;-0.39000
2916666;-0.40000
2919444;-0.39500
2922221;-0.38000
2924999;-0.38000
2927777;-0.40500
2930555;-0.41500
2933333;-0.41500
2936110;-0.40000
2938888;-0.40000
2941666;-0.37500
2944444;-0.37500
2947221;-0.38000
2949999;-0.38000
2952777;-0.38500
2955555;-0.37500
2958333;-0.37000
2961110;-0.36000
2963888;-0.37000
2966666;-0.36500
2969444;-0.34500
2972221;-0.33500
2974999;-0.31500
2977777;-0.32500
2980555;-0.32500
2983332;-0.32500
2986110;-0.32000
2988888;-0.29500
2991666;-0.28000
2994444;-0.27500
2997221;-0.28000
2999999;-0.28500
3002777;-0.29000
3005555;-0.28000
3008332;-0.28000
3011110;-0.27500
3013888;-0.29000
3016666;-0.30500
3019444;-0.30500
3022221;-0.30500
3024999;-0.30500
3027777;-0.30000
3030555;-0.29000
3033332;-0.30000
3036110;-0.31000
3038888;-0.30000
3041666;-0.30000
3044444;-0.31500
3047221;-0.32000
3049999;-0.31500
3052777;-0.30000
3055555;-0.28500
3058332;-0.30500
3061110;-0.33000
3063888;-0.35000
3066666;-0.37500
3069444;-0.38000
3072221;-0.38500
3074999;-0.39000
3077777;-0.40000
3080555;-0.40500
3083332;-0.42500
3086110;-0.42500
3088888;-0.41000
3091666;-0.40500
3094444;-0.41500
3097221;-0.42500
3099999;-0.44000
3102777;-0.44000
3105555;-0.42500
3108332;-0.41500
3111110;-0.42500
3113888;-0.43500
3116666;-0.45000
3119444;-0.44000
3122221;-0.43000
3124999;-0.42000
3127777;-0.42500
3130555;-0.43000
3133332;-0.44000
3136110;-0.43000
3138888;-0.42500
3141666;-0.46000
3144444;-0.50000
3147221;-0.53000
3149999;-0.58500
3152777;-0.60000
3155555;-0.61000
3158332;-0.63000
3161110;-0.58000
3163888;-0.49000
3166666;-0.36500
3169444;-0.19500
3172221;0.01000
3174999;0.26500
3177777;0.53500
3180555;0.72500
3183332;0.82000
3186110;0.76000
3188888;0.51000
3191666;0.13000
3194444;-0.23500
3197221;-0.46500
3199999;-0.58000
3202777;-0.58000
3205555;-0.54500
3208332;-0.48000
3211110;-0.46500
3213888;-0.45500
3216666;-0.48500
3219444;-0.48500
3222221;-0.46500
3224999;-0.46000
3227777;-0.45500
3230555;-0.46000
3233332;-0.46000
3236110;-0.46500
3238888;-0.46000
3241666;-0.47000
3244444;-0.46500
3247221;-0.47000
3249999;-0.48000
3252777;-0.46500
3255555;-0.46500
3258332;-0.45000
3261110;-0.46500
3263888;-0.47000
3266666;-0.48500
3269444;-0.48000
3272221;-0.46500
3274999;-0.47000
3277777;-0.47000
3280555;-0.47000
3283332;-0.49000
3286110;-0.47500
3288888;-0.47500
3291666;-0.46000
3294444;-0.46500
3297221;-0.46500
3299999;-0.48500
3302777;-0.47500
3305555;-0.49000
3308332;-0.45500
3311110;-0.46000
3313888;-0.46500
3316666;-0.47500
3319444;-0.47000
3322221;-0.47000
3324999;-0.45500
3327777;-0.47000
3330555;-0.47500
3333332;-0.49000
3336110;-0.47500
3338888;-0.47000
3341666;-0.46000
3344444;-0.46500
3347221;-0.47000
3349999;-0.48000
3352777;-0.46500
3355555;-0.46500
3358332;-0.47000
3361110;-0.47000
3363888;-0.46500
3366666;-0.47500
3369444;-0.47500
3372221;-0.46500
3374999;-0.45000
3377777;-0.44000
3380555;-0.46000
3383332;-0.46500
3386110;-0.46000
3388888;-0.45500
3391666;-0.45500
3394443;-0.45000
3397221;-0.46500
3399999;-0.47000
3402777;-0.48000
3405555;-0.46000
3408332;-0.45000
3411110;-0.46000
3413888;-0.45500
3416666;-0.46500
3419443;-0.47000
3422221;-0.47500
3424999;-0.46000
3427777;-0.48000
3430555;-0.47000
3433332;-0.49000
3436110;-0.49500
3438888;-0.48500
3441666;-0.47500
3444443;-0.48000
3447221;-0.50000
3449999;-0.50500
3452777;-0.50500
3455555;-0.50500
3458332;-0.49500
3461110;-0.50000
3463888;-0.50000
3466666;-0.50500
3469443;-0.50500
3472221;-0.50000
3474999;-0.48500
3477777;-0.48000
3480555;-0.47500
3483332;-0.48000
3486110;-0.46500
3488888;-0.45000
3491666;-0.43500
3494443;-0.42500
3497221;-0.43000
3499999;-0.43000
3502777;-0.40500
3505555;-0.40000
3508332;-0.37500
3511110;-0.37000
3513888;-0.38500
3516666;-0.38500
3519443;-0.37000
3522221;-0.36500
3524999;-0.34500
3527777;-0.34500
3530555;-0.36000
3533332;-0.36000
3536110;-0.35500
3538888;-0.33500
3541666;-0.33500
3544443;-0.33000
3547221;-0.33000
3549999;-0.35500
3552777;-0.33500
3555555;-0.33000
3558332;-0.34000
3561110;-0.35000
3563888;-0.33000
3566666;-0.35500
3569443;-0.34500
3572221;-0.34000
3574999;-0.32500
3577777;-0.34000
3580555;-0.34500
3583332;-0.35000
3586110;-0.35000
3588888;-0.33000
3591666;-0.33500
3594443;-0.33500
3597221;-0.34500
3599999;-0.35000
3602777;-0.35000
3605555;-0.34000
3608332;-0.34000
3611110;-0.34500
3613888;-0.35000
3616666;-0.36000
3619443;-0.35500
3622221;-0.35000
3624999;-0.34000
3627777;-0.34500
3630555;-0.36000
3633332;-0.36000
3636110;-0.35500
3638888;-0.34500
3641666;-0.34000
3644443;-0.34500
3647221;-0.35000
3649999;-0.37000
3652777;-0.35500
3655555;-0.35500
3658332;-0.34000
3661110;-0.35500
3663888;-0.37000
3666666;-0.36500
3669443;-0.36500
3672221;-0.35500
3674999;-0.35000
3677777;-0.36500
3680555;-0.35500
3683332;-0.37000
3686110;-0.37000
3688888;-0.36000
3691666;-0.35500
3694443;-0.35500
3697221;-0.36500
3699999;-0.38000
3702777;-0.36500
3705555;-0.36000
3708332;-0.36000
3711110;-0.36000
3713888;-0.36500
3716666;-0.37500
3719443;-0.36000
3722221;-0.35500
3724999;-0.35000
3727777;-0.36500
3730555;-0.36500
3733332;-0.37000
3736110;-0.37500
3738888;-0.36000
3741666;-0.34000
3744443;-0.35000
3747221;-0.34500
3749999;-0.37000
3752777;-0.35500
3755555;-0.35500
3758332;-0.33500
3761110;-0.34000
3763888;-0.35500
3766666;-0.36500
3769443;-0.35500
3772221;-0.34500
3774999;-0.34000
3777777;-0.34000
3780554;-0.35000
3783332;-0.36500
3786110;-0.35500
3788888;-0.34000
3791666;-0.34000
3794443;-0.32000
3797221;-0.32500
3799999;-0.31000
3802777;-0.29500
3805554;-0.29000
3808332;-0.27500
3811110;-0.27500
3813888;-0.28000
3816666;-0.29500
3819443;-0.28000
3822221;-0.27000
3824999;-0.26000
3827777;-0.25000
3830554;-0.25000
3833332;-0.25500
3836110;-0.24000
3838888;-0.23000
3841666;-0.22500
3844443;-0.23000
3847221;-0.24500
3849999;-0.25500
3852777;-0.25500
3855554;-0.25500
3858332;-0.24500
3861110;-0.24500
3863888;-0.25000
3866666;-0.27000
3869443;-0.27500
3872221;-0.25500
3874999;-0.22500
3877777;-0.22000
3880554;-0.22500
3883332;-0.26000
3886110;-0.28000
3888888;-0.28500
3891666;-0.30000
3894443;-0.31000
3897221;-0.33000
3899999;-0.35500
3902777;-0.35500
3905554;-0.35500
3908332;-0.35000
3911110;-0.35500
3913888;-0.37000
3916666;-0.37500
3919443;-0.36500
3922221;-0.38000
3924999;-0.35500
3927777;-0.36000
3930554;-0.36500
3933332;-0.38500
3936110;-0.38000
3938888;-0.37500
3941666;-0.37000
3944443;-0.37000
3947221;-0.37000
3949999;-0.39000
3952777;-0.37500
3955554;-0.37000
3958332;-0.36000
3961110;-0.36500
3963888;-0.38500
3966666;-0.41500
3969443;-0.44500
3972221;-0.47500
3974999;-0.49500
3977777;-0.51500
3980554;-0.57000
3983332;-0.61500
3986110;-0.60500
3988888;-0.55000
3991666;-0.45000
3994443;-0.37000
3997221;-0.29500
3999999;-0.23000
4002777;-0.14500
4005554;-0.03500
4008332;0.13500
4011110;0.35000
4013888;0.58000
4016666;0.76000
4019443;0.90000
4022221;0.97500
4024999;0.96500
4027777;0.74500
4030554;0.35500
4033332;-0.09000
4036110;-0.40000
4038888;-0.50500
4041666;-0.48500
4044443;-0.44000
4047221;-0.40000
4049999;-0.40000
4052777;-0.39500
4055554;-0.39500
4058332;-0.39000
4061110;-0.39000
4063888;-0.40000
4066666;-0.41500
4069443;-0.41000
4072221;-0.41500
4074999;-0.40000
4077777;-0.40500
4080554;-0.41500
4083332;-0.41000
4086110;-0.40500
4088888;-0.41000
4091666;-0.39500
4094443;-0.40000
4097221;-0.40000
4099999;-0.40500
4102777;-0.41500
4105554;-0.41500
4108332;-0.39500
4111110;-0.39500
4113888;-0.40500
4116666;-0.40500
4119443;-0.40000
4122221;-0.41000
4124999;-0.39000
4127777;-0.38500
4130554;-0.40000
4133332;-0.40500
4136110;-0.40000
4138888;-0.40500
4141666;-0.39500
4144443;-0.39000
4147221;-0.40000
4149999;-0.40500
4152777;-0.39500
4155554;-0.39500
4158332;-0.38500
4161110;-0.39000
4163888;-0.40000
4166666;-0.40000
4169443;-0.40000
4172221;-0.39000
4174999;-0.40000
4177777;-0.39000
4180554;-0.39000
4183332;-0.40000
4186110;-0.39000
4188888;-0.38500
4191665;-0.38000
4194443;-0.39000
4197221;-0.39500
4199999;-0.40000
4202777;-0.39000
4205554;-0.39000
4208332;-0.38500
4211110;-0.38500
4213888;-0.39000
4216665;-0.39500
4219443;-0.39000
4222221;-0.39500
4224999;-0.38500
4227777;-0.37500
4230554;-0.40500
4233332;-0.40000
4236110;-0.40500
4238888;-0.39500
4241665;-0.39500
4244443;-0.40000
4247221;-0.40000
4249999;-0.40000
4252777;-0.40000
4255554;-0.40000
4258332;-0.39000
4261110;-0.40000
4263888;-0.40000
4266665;-0.40500
4269443;-0.40000
4272221;-0.40000
4274999;-0.40000
4277777;-0.40000
4280554;-0.39500
4283332;-0.40500
4286110;-0.40000
4288888;-0.40500
4291665;-0.40000
4294443;-0.40500
4297221;-0.40000
4299999;-0.40000
4302777;-0.40000
4305554;-0.39000
4308332;-0.37000
4311110;-0.37500
4313888;-0.36500
4316665;-0.36500
4319443;-0.35000
4322221;-0.34000
4324999;-0.33500
4327777;-0.32000
4330554;-0.32500
4333332;-0.33000
4336110;-0.32000
4338888;-0.30500
4341665;-0.29500
4344443;-0.28500
4347221;-0.30000
4349999;-0.30500
4352777;-0.30500
4355554;-0.29000
4358332;-0.28000
4361110;-0.28000
4363888;-0.29000
4366665;-0.30000
4369443;-0.29000
4372221;-0.28500
4374999;-0.28500
4377777;-0.28000
4380554;-0.29500
4383332;-0.30500
4386110;-0.30000
4388888;-0.28500
4391665;-0.28500
4394443;-0.28500
4397221;-0.28500
4399999;-0.29500
4402777;-0.30000
4405554;-0.29000
4408332;-0.29000
4411110;-0.29000
4413888;-0.30000
4416665;-0.31000
4419443;-0.31000
4422221;-0.30000
4424999;-0.30000
4427777;-0.30000
4430554;-0.31000
4433332;-0.32000
4436110;-0.31000
4438888;-0.31500
4441665;-0.32000
4444443;-0.31500
4447221;-0.31500
4449999;-0.32500
4452777;-0.31500
4455554;-0.31000
4458332;-0.30500
4461110;-0.31000
4463888;-0.31500
4466665;-0.32500
4469443;-0.32000
4472221;-0.31000
4474999;-0.31500
4477777;-0.31500
4480554;-0.31500
4483332;-0.32000
4486110;-0.32500
4488888;-0.32500
4491665;-0.31000
4494443;-0.30500
4497221;-0.32000
4499999;-0.33500
4502777;-0.32500
4505554;-0.31500
4508332;-0.31500
4511110;-0.31500
4513888;-0.32000
4516665;-0.32500
4519443;-0.33000
4522221;-0.33000
4524999;-0.32000
4527777;-0.32000
4530554;-0.32500
4533332;-0.33500
4536110;-0.34000
4538888;-0.34000
4541665;-0.32500
4544443;-0.32500
4547221;-0.32500
4549999;-0.35000
4552777;-0.34000
4555554;-0.33000
4558332;-0.32000
4561110;-0.32500
4563888;-0.33000
4566665;-0.33500
4569443;-0.33000
4572221;-0.32000
4574999;-0.31000
4577776;-0.32500
4580554;-0.31500
4583332;-0.32500
4586110;-0.33000
4588888;-0.31500
4591665;-0.30500
4594443;-0.31000
4597221;-0.32000
4599999;-0.32500
4602776;-0.31500
4605554;-0.30500
4608332;-0.30000
4611110;-0.32000
4613888;-0.31000
4616665;-0.32000
4619443;-0.30000
4622221;-0.28500
4624999;-0.26500
4627776;-0.25500
4630554;-0.26000
4633332;-0.25500
4636110;-0.25000
4638888;-0.23500
4641665;-0.24000
4644443;-0.22500
4647221;-0.22000
4649999;-0.23000
4652776;-0.22500
4655554;-0.20000
4658332;-0.19000
4661110;-0.19500
4663888;-0.20000
4666665;-0.21000
4669443;-0.21000
4672221;-0.20000
4674999;-0.21000
4677776;-0.20500
4680554;-0.22500
4683332;-0.23500
4686110;-0.23000
4688888;-0.22000
4691665;-0.22000
4694443;-0.23500
4697221;-0.23000
4699999;-0.22000
4702776;-0.19500
4705554;-0.18500
4708332;-0.21500
4711110;-0.24500
4713888;-0.26500
4716665;-0.30000
4719443;-0.30000
4722221;-0.30000
4724999;-0.30500
4727776;-0.32000
4730554;-0.33000
4733332;-0.34000
4736110;-0.33500
4738888;-0.32000
4741665;-0.31500
4744443;-0.32000
4747221;-0.33000
4749999;-0.34500
4752776;-0.34000
4755554;-0.34500
4758332;-0.33000
4761110;-0.33500
4763888;-0.34500
4766665;-0.36000
4769443;-0.34500
4772221;-0.35000
4774999;-0.33500
4777776;-0.34000
4780554;-0.34500
4783332;-0.35500
4786110;-0.35000
4788888;-0.34500
4791665;-0.34000
4794443;-0.35500
4797221;-0.36500
4799999;-0.39500
4802776;-0.42000
4805554;-0.45500
4808332;-0.47000
4811110;-0.48500
4813888;-0.53000
4816665;-0.58500
4819443;-0.53500
4822221;-0.41500
4824999;-0.28500
4827776;-0.13000
4830554;0.04500
4833332;0.31000
4836110;0.59000
4838888;0.79500
4841665;0.87500
4844443;0.78000
4847221;0.48500
4849999;0.06500
4852776;-0.29500
4855554;-0.47000
4858332;-0.49500
4861110;-0.44500
4863888;-0.40000
4866665;-0.38500
4869443;-0.38500
4872221;-0.37000
4874999;-0.37000
4877776;-0.35500
4880554;-0.37000
4883332;-0.38500
4886110;-0.38000
4888888;-0.37500
4891665;-0.37500
4894443;-0.38000
4897221;-0.38000
4899999;-0.38500
4902776;-0.38500
4905554;-0.38000
4908332;-0.37000
4911110;-0.37000
4913888;-0.39000
4916665;-0.38500
4919443;-0.37000
4922221;-0.37000
4924999;-0.36000
4927776;-0.36500
4930554;-0.37000
4933332;-0.38500
4936110;-0.38000
4938888;-0.37500
4941665;-0.36500
4944443;-0.37000
4947221;-0.38500
4949999;-0.38000
4952776;-0.38000
4955554;-0.36500
4958332;-0.36500
4961110;-0.37000
4963887;-0.37500
4966665;-0.38500
4969443;-0.37500
4972221;-0.37500
4974999;-0.36500
4977776;-0.36500
4980554;-0.38000
4983332;-0.37500
4986110;-0.37000
4988887;-0.36000
4991665;-0.34500
4994443;-0.35500
4997221;-0.36500
4999999;-0.37000
5002776;-0.37000
5005554;-0.35000
5008332;-0.36000
5011110;-0.35000
5013887;-0.36000
5016665;-0.37500
5019443;-0.36500
5022221;-0.36500
5024999;-0.36000
5027776;-0.35500
5030554;-0.36000
5033332;-0.37500
5036110;-0.37000
5038887;-0.36000
5041665;-0.35500
5044443;-0.36000
5047221;-0.36500
5049999;-0.37500
5052776;-0.36500
5055554;-0.35500
5058332;-0.35500
5061110;-0.35500
5063887;-0.35500
5066665;-0.36000
5069443;-0.36500
5072221;-0.36500
5074999;-0.35000
5077776;-0.36500
5080554;-0.36500
5083332;-0.37500
5086110;-0.39000
5088887;-0.38000
5091665;-0.37000
5094443;-0.37000
5097221;-0.37500
5099999;-0.38000
5102776;-0.38500
5105554;-0.37000
5108332;-0.35500
5111110;-0.36500
5113887;-0.38500
5116665;-0.38500
5119443;-0.37000
5122221;-0.37000
5124999;-0.35500
5127776;-0.33500
5130554;-0.34000
5133332;-0.33500
5136110;-0.33000
5138887;-0.31500
5141665;-0.29500
5144443;-0.30500
5147221;-0.29500
5149999;-0.30500
5152776;-0.30000
5155554;-0.29500
5158332;-0.27500
5161110;-0.27500
5163887;-0.29500
5166665;-0.29000
5169443;-0.29500
5172221;-0.29000
5174999;-0.28500
5177776;-0.28500
5180554;-0.29500
5183332;-0.31500
5186110;-0.31000
5188887;-0.30500
5191665;-0.29000
5194443;-0.29000
5197221;-0.29500
5199999;-0.31000
5202776;-0.30500
5205554;-0.30500
5208332;-0.30000
5211110;-0.29500
5213887;-0.31000
5216665;-0.31500
5219443;-0.31000
5222221;-0.30000
5224999;-0.29000
5227776;-0.29000
5230554;-0.30000
5233332;-0.31000
5236110;-0.30500
5238887;-0.31500
5241665;-0.31500
5244443;-0.31000
5247221;-0.33000
5249999;-0.33000
5252776;-0.32500
5255554;-0.31500
5258332;-0.31500
5261110;-0.32500
5263887;-0.34000
5266665;-0.34500
5269443;-0.34000
5272221;-0.33500
5274999;-0.33500
5277776;-0.33500
5280554;-0.35500
5283332;-0.36000
5286110;-0.35000
5288887;-0.34000
5291665;-0.33000
5294443;-0.34000
5297221;-0.35500
5299999;-0.36500
5302776;-0.35500
5305554;-0.34500
5308332;-0.33500
5311110;-0.34500
5313887;-0.35000
5316665;-0.36000
5319443;-0.36000
5322221;-0.35500
5324999;-0.36000
5327776;-0.35500
5330554;-0.36000
5333332;-0.36500
5336110;-0.36500
5338887;-0.36000
5341665;-0.35500
5344443;-0.35000
5347221;-0.36000
5349999;-0.37000
5352776;-0.36000
5355554;-0.36500
5358332;-0.36500
5361110;-0.36500
5363887;-0.36500
5366665;-0.36500
5369443;-0.36000
5372221;-0.35500
5374998;-0.35500
5377776;-0.35500
5380554;-0.36500
5383332;-0.37500
5386110;-0.36500
5388887;-0.35500
5391665;-0.36000
5394443;-0.35500
5397221;-0.37000
5399998;-0.37500
5402776;-0.36500
5405554;-0.35000
5408332;-0.35000
5411110;-0.34000
5413887;-0.33000
5416665;-0.32500
5419443;-0.32000
5422221;-0.31000
5424998;-0.30000
5427776;-0.29000
5430554;-0.28500
5433332;-0.28500
5436110;-0.27000
5438887;-0.26500
5441665;-0.25000
5444443;-0.24500
5447221;-0.25000
5449998;-0.26500
5452776;-0.26500
5455554;-0.27000
5458332;-0.26000
5461110;-0.27500
5463887;-0.29000
5466665;-0.30000
5469443;-0.28500
5472221;-0.28500
5474998;-0.28500
5477776;-0.29500
5480554;-0.29000
5483332;-0.29000
5486110;-0.26500
5488887;-0.27500
5491665;-0.29000
5494443;-0.32500
5497221;-0.34000
5499998;-0.36000
5502776;-0.37500
5505554;-0.36500
5508332;-0.37500
5511110;-0.38000
5513887;-0.40000
5516665;-0.41500
5519443;-0.38500
5522221;-0.37500
5524998;-0.37000
5527776;-0.38000
5530554;-0.39500
5533332;-0.40000
5536110;-0.41000
5538887;-0.40500
5541665;-0.40500
5544443;-0.40000
5547221;-0.41500
5549998;-0.42500
5552776;-0.42500
5555554;-0.41000
5558332;-0.40000
5561110;-0.41000
5563887;-0.42000
5566665;-0.43000
5569443;-0.43000
5572221;-0.42500
5574998;-0.40000
5577776;-0.40000
5580554;-0.41000
5583332;-0.43000
5586110;-0.46500
5588887;-0.49000
5591665;-0.49500
5594443;-0.51500
5597221;-0.56500
5599998;-0.61000
5602776;-0.62000
5605554;-0.56500
5608332;-0.44500
5611110;-0.30500
5613887;-0.14500
5616665;0.08000
5619443;0.37000
5622221;0.63000
5624998;0.78000
5627776;0.80000
5630554;0.63500
5633332;0.32500
5636110;-0.05000
5638887;-0.31000
5641665;-0.45500
5644443;-0.55000
5647221;-0.57500
5649998;-0.55500
5652776;-0.49500
5655554;-0.46500
5658332;-0.44500
5661110;-0.45000
5663887;-0.44500
5666665;-0.44500
5669443;-0.44000
5672221;-0.44000
5674998;-0.44000
5677776;-0.44000
5680554;-0.45500
5683332;-0.47000
5686110;-0.47000
5688887;-0.47000
5691665;-0.46500
5694443;-0.46000
5697221;-0.46000
5699998;-0.46000
5702776;-0.46500
5705554;-0.45000
5708332;-0.44500
5711110;-0.44000
5713887;-0.45500
5716665;-0.47000
5719443;-0.46500
5722221;-0.46000
5724998;-0.43500
5727776;-0.44000
5730554;-0.45500
5733332;-0.48000
5736110;-0.45500
5738887;-0.45500
5741665;-0.45000
5744443;-0.45000
5747221;-0.46000
5749998;-0.47000
5752776;-0.45500
5755554;-0.46000
5758332;-0.46000
5761109;-0.45000
5763887;-0.45500
5766665;-0.46000
5769443;-0.45000
5772221;-0.46000
5774998;-0.46000
5777776;-0.46500
5780554;-0.48000
5783332;-0.49500
5786109;-0.48000
5788887;-0.45500
5791665;-0.45000
5794443;-0.45000
5797221;-0.45000
5799998;-0.46000
5802776;-0.46500
5805554;-0.45500
5808332;-0.44000
5811109;-0.45000
5813887;-0.46000
5816665;-0.46500
5819443;-0.46000
5822221;-0.45000
5824998;-0.45500
5827776;-0.45000
5830554;-0.45000
5833332;-0.46000
5836109;-0.45000
5838887;-0.45000
5841665;-0.44500
5844443;-0.44500
5847221;-0.45000
5849998;-0.46000
5852776;-0.46500
5855554;-0.45500
5858332;-0.45000
5861109;-0.46000
5863887;-0.48000
5866665;-0.49000
5869443;-0.48500
5872221;-0.48000
5874998;-0.47500
5877776;-0.48000
5880554;-0.50000
5883332;-0.51500
5886109;-0.52000
5888887;-0.51500
5891665;-0.52000
5894443;-0.50500
5897221;-0.50000
5899998;-0.51000
5902776;-0.50000
5905554;-0.47500
5908332;-0.45000
5911109;-0.45000
5913887;-0.45500
5916665;-0.45000
5919443;-0.44500
5922221;-0.42500
5924998;-0.41500
5927776;-0.41000
5930554;-0.40500
5933332;-0.40000
5936109;-0.39000
5938887;-0.38500
5941665;-0.36500
5944443;-0.38000
5947221;-0.38000
5949998;-0.39000
5952776;-0.38500
5955554;-0.36500
5958332;-0.35000
5961109;-0.34500
5963887;-0.35000
5966665;-0.36500
5969443;-0.36000
5972221;-0.36000
5974998;-0.35500
5977776;-0.37000
5980554;-0.37000
5983332;-0.38500
5986109;-0.38000
5988887;-0.36500
5991665;-0.36000
5994443;-0.38000
5997221;-0.38000
5999998;-0.38500
6002776;-0.38500
6005554;-0.38000
6008332;-0.36500
6011109;-0.37000
6013887;-0.37500
6016665;-0.38500
6019443;-0.39000
6022221;-0.37000
6024998;-0.37500
6027776;-0.37000
6030554;-0.38000
6033332;-0.39000
6036109;-0.39500
6038887;-0.39000
6041665;-0.39000
6044443;-0.39500
6047221;-0.40500
6049998;-0.41000
6052776;-0.41500
6055554;-0.40500
6058332;-0.40000
6061109;-0.40000
6063887;-0.40000
6066665;-0.42000
6069443;-0.41000
6072221;-0.40000
6074998;-0.39000
6077776;-0.39500
6080554;-0.40500
6083332;-0.43000
6086109;-0.42000
6088887;-0.41500
6091665;-0.41500
6094443;-0.41500
6097221;-0.41000
6099998;-0.43000
6102776;-0.42000
6105554;-0.41500
6108332;-0.40500
6111109;-0.41500
6113887;-0.42000
6116665;-0.43500
6119443;-0.43000
6122221;-0.42500
6124998;-0.41000
6127776;-0.41500
6130554;-0.42500
6133332;-0.42500
6136109;-0.42500
6138887;-0.41500
6141665;-0.39500
6144443;-0.40000
6147221;-0.41000
6149998;-0.42500
6152776;-0.41000
6155554;-0.41000
6158332;-0.39500
6161109;-0.39500
6163887;-0.40000
6166665;-0.40500
6169443;-0.39000
6172220;-0.38000
6174998;-0.35500
6177776;-0.35500
6180554;-0.34000
6183332;-0.36000
6186109;-0.36000
6188887;-0.34000
6191665;-0.33000
6194443;-0.32000
6197220;-0.32000
6199998;-0.31000
6202776;-0.31500
6205554;-0.29500
6208332;-0.29000
6211109;-0.29000
6213887;-0.31000
6216665;-0.31000
6219443;-0.30000
6222220;-0.28500
6224998;-0.27500
6227776;-0.26500
6230554;-0.25000
6233332;-0.26000
6236109;-0.28500
6238887;-0.30000
6241665;-0.33000
6244443;-0.34000
6247220;-0.36500
6249998;-0.40000
6252776;-0.40000
6255554;-0.40500
6258332;-0.39500
6261109;-0.40500
6263887;-0.41000
6266665;-0.43000
6269443;-0.42500
6272220;-0.42000
6274998;-0.41500
6277776;-0.42000
6280554;-0.42500
6283332;-0.44000
6286109;-0.44500
6288887;-0.43000
6291665;-0.42500
6294443;-0.43000
6297220;-0.43500
6299998;-0.44000
6302776;-0.43500
6305554;-0.43500
6308332;-0.42000
6311109;-0.42000
6313887;-0.42500
6316665;-0.43000
6319443;-0.43500
6322220;-0.43500
6324998;-0.43000
6327776;-0.46000
6330554;-0.51000
6333332;-0.54500
6336109;-0.56000
6338887;-0.57500
6341665;-0.60500
6344443;-0.62500
6347220;-0.57000
6349998;-0.45500
6352776;-0.28500
6355554;-0.12500
6358332;0.08500
6361109;0.34500
6363887;0.59500
6366665;0.77500
6369443;0.84000
6372220;0.75000
6374998;0.46500
6377776;0.03000
6380554;-0.33000
6383332;-0.52500
6386109;-0.57500
6388887;-0.54500
6391665;-0.49500
6394443;-0.46000
6397220;-0.46000
6399998;-0.47500
6402776;-0.47000
6405554;-0.45500
6408332;-0.44000
6411109;-0.44500
6413887;-0.46000
6416665;-0.46500
6419443;-0.47000
6422220;-0.46500
6424998;-0.45500
6427776;-0.46000
6430554;-0.47500
6433332;-0.46500
6436109;-0.47000
6438887;-0.46000
6441665;-0.44500
6444443;-0.44500
6447220;-0.46000
6449998;-0.46000
6452776;-0.46000
6455554;-0.45500
6458332;-0.45000
6461109;-0.45000
6463887;-0.46500
6466665;-0.46500
6469443;-0.47000
6472220;-0.46500
6474998;-0.45500
6477776;-0.45000
6480554;-0.45500
6483332;-0.47000
6486109;-0.46500
6488887;-0.46500
6491665;-0.45000
6494443;-0.46500
6497220;-0.46000
6499998;-0.47000
6502776;-0.46500
6505554;-0.45500
6508332;-0.44500
6511109;-0.44500
6513887;-0.47000
6516665;-0.46500
6519443;-0.46000
6522220;-0.45500
6524998;-0.44000
6527776;-0.44500
6530554;-0.45000
6533332;-0.46500
6536109;-0.45000
6538887;-0.44500
6541665;-0.44500
6544443;-0.44500
6547220;-0.45000
6549998;-0.45000
6552776;-0.47000
6555554;-0.45000
6558331;-0.44500
6561109;-0.44000
6563887;-0.45000
6566665;-0.46000
6569443;-0.45500
6572220;-0.44500
6574998;-0.44000
6577776;-0.44000
6580554;-0.44500
6583331;-0.46000
6586109;-0.46500
6588887;-0.46000
6591665;-0.45500
6594443;-0.45000
6597220;-0.46000
6599998;-0.46000
6602776;-0.47000
6605554;-0.45500
6608331;-0.46000
6611109;-0.46000
6613887;-0.46000
6616665;-0.46500
6619443;-0.47500
6622220;-0.46000
6624998;-0.46500
6627776;-0.45500
6630554;-0.48000
6633331;-0.49500
6636109;-0.48500
6638887;-0.47500
6641665;-0.47000
6644443;-0.49500
6647220;-0.48000
6649998;-0.49000
6652776;-0.48500
6655554;-0.46000
6658331;-0.44000
6661109;-0.43500
6663887;-0.43500
6666665;-0.43500
6669443;-0.43500
6672220;-0.41500
6674998;-0.39500
6677776;-0.38000
6680554;-0.38000
6683331;-0.37500
6686109;-0.36500
6688887;-0.35000
6691665;-0.34500
6694443;-0.33000
6697220;-0.35000
6699998;-0.35000
6702776;-0.34500
6705554;-0.34000
6708331;-0.33000
6711109;-0.33500
6713887;-0.34500
6716665;-0.35000
6719443;-0.35500
6722220;-0.35000
6724998;-0.33500
6727776;-0.33500
6730554;-0.34500
6733331;-0.35500
6736109;-0.36000
6738887;-0.34000
6741665;-0.35000
6744443;-0.35500
6747220;-0.35500
6749998;-0.36500
6752776;-0.36500
6755554;-0.36500
6758331;-0.36000
6761109;-0.34000
6763887;-0.35000
6766665;-0.35000
6769443;-0.36000
6772220;-0.35500
6774998;-0.34500
6777776;-0.34500
6780554;-0.36000
6783331;-0.37500
6786109;-0.38000
6788887;-0.36500
6791665;-0.36500
6794443;-0.35500
6797220;-0.37500
6799998;-0.39000
6802776;-0.39000
6805554;-0.38000
6808331;-0.36500
6811109;-0.37500
6813887;-0.38500
6816665;-0.39500
6819443;-0.39000
6822220;-0.37500
6824998;-0.38000
6827776;-0.38500
6830554;-0.38000
6833331;-0.39500
6836109;-0.39000
6838887;-0.38500
6841665;-0.37500
6844443;-0.37000
6847220;-0.38000
6849998;-0.39500
6852776;-0.39500
6855554;-0.37000
6858331;-0.38000
6861109;-0.37000
6863887;-0.38000
6866665;-0.39000
6869443;-0.38500
6872220;-0.37500
6874998;-0.38500
6877776;-0.39500
6880554;-0.40000
6883331;-0.39500
6886109;-0.38500
6888887;-0.38000
6891665;-0.37500
6894443;-0.37000
6897220;-0.38500
6899998;-0.39000
6902776;-0.40000
6905554;-0.37500
6908331;-0.36000
6911109;-0.37500
6913887;-0.37500
6916665;-0.39000
6919443;-0.39000
6922220;-0.38000
6924998;-0.37000
6927776;-0.38000
6930554;-0.38000
6933331;-0.40000
6936109;-0.39000
6938887;-0.38500
6941665;-0.37000
6944442;-0.37500
6947220;-0.37500
6949998;-0.39000
6952776;-0.38500
6955554;-0.37500
6958331;-0.38000
6961109;-0.38000
6963887;-0.38500
6966665;-0.37500
6969442;-0.37500
6972220;-0.36000
6974998;-0.35000
6977776;-0.36000
6980554;-0.36500
6983331;-0.37500
6986109;-0.36000
6988887;-0.34500
6991665;-0.32000
6994442;-0.30500
6997220;-0.31000
6999998;-0.32000
7002776;-0.32000
7005554;-0.30000
7008331;-0.29000
7011109;-0.29000
7013887;-0.28500
7016665;-0.29000
7019442;-0.28000
7022220;-0.27000
7024998;-0.25500
7027776;-0.27500
7030554;-0.27000
7033331;-0.29000
7036109;-0.30000
7038887;-0.28000
7041665;-0.28000
7044442;-0.28000
7047220;-0.29000
7049998;-0.30000
7052776;-0.30000
7055554;-0.28000
7058331;-0.27500
7061109;-0.29500
7063887;-0.28500
7066665;-0.31000
7069442;-0.27500
7072220;-0.25500
7074998;-0.25500
7077776;-0.30000
7080554;-0.33000
7083331;-0.35500
7086109;-0.36000
7088887;-0.37000
7091665;-0.37500
7094442;-0.37500
7097220;-0.39000
7099998;-0.40500
7102776;-0.40000
7105554;-0.39500
7108331;-0.39000
7111109;-0.39500
7113887;-0.39500
7116665;-0.40500
7119442;-0.41000
7122220;-0.39500
7124998;-0.39000
7127776;-0.39500
7130554;-0.40000
7133331;-0.41500
7136109;-0.41000
7138887;-0.41000
7141665;-0.40000
7144442;-0.40000
7147220;-0.41500
7149998;-0.42000
7152776;-0.42500
7155554;-0.44500
7158331;-0.46500
7161109;-0.51500
7163887;-0.55000
7166665;-0.56500
7169442;-0.61000
7172220;-0.62000
7174998;-0.57000
7177776;-0.45000
7180554;-0.31500
7183331;-0.17000
7186109;0.03000
7188887;0.29500
7191665;0.57000
7194442;0.77500
7197220;0.90000
7199998;0.96500
7202776;0.93500
7205554;0.75000
7208331;0.40000
7211109;-0.02500
7213887;-0.36000
7216665;-0.53000
7219442;-0.55500
7222220;-0.51000
7224998;-0.45500
7227776;-0.42500
7230554;-0.43000
7233331;-0.44500
7236109;-0.44000
7238887;-0.43500
7241665;-0.43000
7244442;-0.43000
7247220;-0.44500
7249998;-0.45500
7252776;-0.45500
7255554;-0.44500
7258331;-0.45000
7261109;-0.44000
7263887;-0.45000
7266665;-0.45000
7269442;-0.45500
7272220;-0.45000
7274998;-0.43500
7277776;-0.42500
7280554;-0.43500
7283331;-0.44500
7286109;-0.44500
7288887;-0.44500
7291665;-0.44500
7294442;-0.43500
7297220;-0.44000
7299998;-0.46000
7302776;-0.47500
7305554;-0.45500
7308331;-0.45000
7311109;-0.43500
7313887;-0.44500
7316665;-0.45500
7319442;-0.46000
7322220;-0.45000
7324998;-0.44000
7327776;-0.43500
7330554;-0.44500
7333331;-0.44000
7336109;-0.44000
7338887;-0.43000
7341665;-0.43000
7344442;-0.44500
7347220;-0.45000
7349998;-0.46000
7352776;-0.45500
7355553;-0.44500
7358331;-0.43500
7361109;-0.44000
7363887;-0.44000
7366665;-0.45000
7369442;-0.44500
7372220;-0.44500
7374998;-0.42500
7377776;-0.43000
7380553;-0.44000
7383331;-0.44500
7386109;-0.44500
7388887;-0.43500
7391665;-0.42500
7394442;-0.43500
7397220;-0.43500
7399998;-0.43500
7402776;-0.44000
7405553;-0.43000
7408331;-0.42500
7411109;-0.43500
7413887;-0.43500
7416665;-0.44500
7419442;-0.45000
7422220;-0.44000
7424998;-0.43000
7427776;-0.42500
7430553;-0.44000
7433331;-0.45000
7436109;-0.44000
7438887;-0.43500
7441665;-0.42500
7444442;-0.42000
7447220;-0.43000
7449998;-0.43500
7452776;-0.44000
7455553;-0.43000
7458331;-0.43000
7461109;-0.43500
7463887;-0.44000
7466665;-0.45500
7469442;-0.45000
7472220;-0.44500
7474998;-0.45000
7477776;-0.42500
7480553;-0.43000
7483331;-0.44000
7486109;-0.43000
7488887;-0.40500
7491665;-0.39000
7494442;-0.39000
7497220;-0.37500
7499998;-0.37500
7502776;-0.37000
7505553;-0.34500
7508331;-0.35000
7511109;-0.34000
7513887;-0.34000
7516665;-0.35000
7519442;-0.33500
7522220;-0.33500
7524998;-0.33000
7527776;-0.32000
7530553;-0.34000
7533331;-0.34000
7536109;-0.33500
7538887;-0.33000
7541665;-0.32500
7544442;-0.32500
7547220;-0.33500
7549998;-0.34500
7552776;-0.34000
7555553;-0.33000
7558331;-0.33000
7561109;-0.33500
7563887;-0.34000
7566665;-0.35000
7569442;-0.35500
7572220;-0.34000
7574998;-0.33500
7577776;-0.32500
7580553;-0.34000
7583331;-0.34500
7586109;-0.35000
7588887;-0.35000
7591665;-0.33500
7594442;-0.34500
7597220;-0.35000
7599998;-0.35500
7602776;-0.35500
7605553;-0.35000
7608331;-0.35000
7611109;-0.34500
7613887;-0.35500
7616665;-0.36500
7619442;-0.36000
7622220;-0.35500
7624998;-0.34500
7627776;-0.36000
7630553;-0.35500
7633331;-0.36500
7636109;-0.38000
7638887;-0.36500
7641665;-0.36000
7644442;-0.35500
7647220;-0.36000
7649998;-0.36000
7652776;-0.37500
7655553;-0.36500
7658331;-0.35500
7661109;-0.36000
7663887;-0.36500
7666665;-0.38500
7669442;-0.38500
7672220;-0.37500
7674998;-0.37500
7677776;-0.37000
7680553;-0.37500
7683331;-0.38500
7686109;-0.39500
7688887;-0.37500
7691665;-0.37000
7694442;-0.37000
7697220;-0.37000
7699998;-0.38000
7702776;-0.38000
7705553;-0.36000
7708331;-0.35500
7711109;-0.35500
7713887;-0.37000
7716665;-0.37500
7719442;-0.37500
7722220;-0.37000
7724998;-0.36500
7727776;-0.37500
7730553;-0.37500
7733331;-0.38500
7736109;-0.39000
7738887;-0.37000
7741664;-0.37000
7744442;-0.36500
7747220;-0.38500
7749998;-0.38500
7752776;-0.38000
7755553;-0.37500
7758331;-0.35500
7761109;-0.35000
7763887;-0.35500
7766664;-0.35000
7769442;-0.33000
7772220;-0.31500
7774998;-0.30500
7777776;-0.29000
7780553;-0.30000
7783331;-0.29500
7786109;-0.30000
7788887;-0.28500
7791664;-0.27500
7794442;-0.26000
7797220;-0.27500
7799998;-0.28000
7802776;-0.27000
7805553;-0.26000
7808331;-0.25500
7811109;-0.25500
7813887;-0.26500
7816664;-0.27500
7819442;-0.27500
7822220;-0.27500
7824998;-0.27000
7827776;-0.28500
7830553;-0.29000
7833331;-0.29000
7836109;-0.29000
7838887;-0.28500
7841664;-0.29500
7844442;-0.29000
7847220;-0.28000
7849998;-0.25500
7852776;-0.26500
7855553;-0.28000
7858331;-0.30500
7861109;-0.31500
7863887;-0.33000
7866664;-0.36000
7869442;-0.37500
7872220;-0.37000
7874998;-0.35500
7877776;-0.38000
7880553;-0.39000
7883331;-0.40000
7886109;-0.40000
7888887;-0.40000
7891664;-0.40000
7894442;-0.40500
7897220;-0.41000
7899998;-0.41500
7902776;-0.42000
7905553;-0.40000
7908331;-0.39500
7911109;-0.41000
7913887;-0.40000
7916664;-0.41000
7919442;-0.41000
7922220;-0.40000
7924998;-0.39500
7927776;-0.39500
7930553;-0.41500
7933331;-0.43500
7936109;-0.44500
7938887;-0.47500
7941664;-0.51000
7944442;-0.53000
7947220;-0.56000
7949998;-0.60500
7952776;-0.63500
7955553;-0.61000
7958331;-0.50500
7961109;-0.37500
7963887;-0.24500
7966664;-0.08000
7969442;0.17500
7972220;0.45000
7974998;0.66500
7977776;0.79500
7980553;0.88000
7983331;0.91000
7986109;0.82500
7988887;0.65500
7991664;0.40500
7994442;0.10500
7997220;-0.18500
7999998;-0.41000
8002776;-0.54000
8005553;-0.56500
8008331;-0.52000
8011109;-0.47000
8013887;-0.44500
8016664;-0.45000
8019442;-0.45500
8022220;-0.44500
8024998;-0.42500
8027776;-0.44000
8030553;-0.44000
8033331;-0.46000
8036109;-0.45500
8038887;-0.44500
8041664;-0.43500
8044442;-0.44000
8047220;-0.44000
8049998;-0.46000
8052776;-0.46000
8055553;-0.44500
8058331;-0.43000
8061109;-0.44000
8063887;-0.45500
8066664;-0.47000
8069442;-0.46000
8072220;-0.44500
8074998;-0.43500
8077776;-0.43500
8080553;-0.45000
8083331;-0.46500
8086109;-0.46000
8088887;-0.45500
8091664;-0.45000
8094442;-0.45500
8097220;-0.46000
8099998;-0.46500
8102776;-0.46500
8105553;-0.45000
8108331;-0.46000
8111109;-0.45500
8113887;-0.45000
8116664;-0.46000
8119442;-0.45000
8122220;-0.45000
8124998;-0.44500
8127776;-0.45500
8130553;-0.46500
8133331;-0.46500
8136109;-0.47000
8138887;-0.47000
8141664;-0.44500
8144442;-0.44000
8147220;-0.44500
8149998;-0.47000
8152775;-0.47000
8155553;-0.47000
8158331;-0.45500
8161109;-0.45000
8163887;-0.45500
8166664;-0.47500
8169442;-0.48000
8172220;-0.45500
8174998;-0.44000
8177775;-0.44000
8180553;-0.44000
8183331;-0.45500
8186109;-0.45500
8188887;-0.44500
8191664;-0.43000
8194442;-0.43500
8197220;-0.44500
8199998;-0.46500
8202775;-0.47500
8205553;-0.45500
8208331;-0.44500
8211109;-0.45500
8213887;-0.45000
8216664;-0.45500
8219442;-0.45500
8222220;-0.46500
8224998;-0.46000
8227775;-0.45000
8230553;-0.46500
8233331;-0.47500
8236109;-0.47500
8238887;-0.46500
8241664;-0.45000
8244442;-0.45000
8247220;-0.46000
8249998;-0.48500
8252775;-0.46500
8255553;-0.46500
8258331;-0.47000
8261109;-0.47000
8263887;-0.48500
8266664;-0.49500
8269442;-0.49500
8272220;-0.47000
8274998;-0.46500
8277775;-0.47500
8280553;-0.47000
8283331;-0.47000
8286109;-0.45500
8288887;-0.45000
8291664;-0.44000
8294442;-0.43500
8297220;-0.42500
8299998;-0.43000
8302775;-0.43500
8305553;-0.41500
8308331;-0.39500
8311109;-0.39500
8313887;-0.40500
8316664;-0.41000
8319442;-0.40500
8322220;-0.38000
8324998;-0.37500
8327775;-0.37000
8330553;-0.38000
8333331;-0.38500
8336109;-0.37500
8338887;-0.36500
8341664;-0.36000
8344442;-0.36000
8347220;-0.37500
8349998;-0.37500
8352775;-0.37000
8355553;-0.36000
8358331;-0.35500
8361109;-0.36000
8363887;-0.37500
8366664;-0.38000
8369442;-0.38500
8372220;-0.38500
8374998;-0.37000
8377775;-0.37500
8380553;-0.37500
8383331;-0.38500
8386109;-0.37500
8388887;-0.37000
8391664;-0.37000
8394442;-0.38500
8397220;-0.40000
8399998;-0.40000
8402775;-0.40000
8405553;-0.39000
8408331;-0.37500
8411109;-0.37500
8413887;-0.39000
8416664;-0.39500
8419442;-0.40000
8422220;-0.38500
8424998;-0.38000
8427775;-0.37000
8430553;-0.39500
8433331;-0.40500
8436109;-0.40500
8438887;-0.39500
8441664;-0.38500
8444442;-0.38500
8447220;-0.40500
8449998;-0.41000
8452775;-0.42500
8455553;-0.41000
8458331;-0.40500
8461109;-0.41000
8463887;-0.41500
8466664;-0.42500
8469442;-0.42000
8472220;-0.41500
8474998;-0.41000
8477775;-0.42000
8480553;-0.41500
8483331;-0.42500
8486109;-0.42500
8488887;-0.42000
8491664;-0.40000
8494442;-0.41000
8497220;-0.40000
8499998;-0.41000
8502775;-0.42000
8505553;-0.41000
8508331;-0.41000
8511109;-0.41000
8513887;-0.41500
8516664;-0.42500
8519442;-0.42500
8522220;-0.41000
8524998;-0.40500
8527775;-0.40000
8530553;-0.41000
8533331;-0.42500
8536109;-0.41500
8538886;-0.41000
8541664;-0.39500
8544442;-0.38000
8547220;-0.40000
8549998;-0.41500
8552775;-0.42000
8555553;-0.40500
8558331;-0.40500
8561109;-0.41500
8563886;-0.41500
8566664;-0.42500
8569442;-0.42000
8572220;-0.41000
8574998;-0.39000
8577775;-0.40000
8580553;-0.41000
8583331;-0.41500
8586109;-0.41000
8588886;-0.38500
8591664;-0.37500
8594442;-0.36500
8597220;-0.35000
8599998;-0.36000
8602775;-0.35000
8605553;-0.33500
8608331;-0.32000
8611109;-0.33500
8613886;-0.34000
8616664;-0.33500
8619442;-0.32000
8622220;-0.30000
8624998;-0.28500
8627775;-0.28500
8630553;-0.29500
8633331;-0.31000
8636109;-0.31500
8638886;-0.32500
8641664;-0.30000
8644442;-0.31500
8647220;-0.32000
8649998;-0.32000
8652775;-0.31500
8655553;-0.31500
8658331;-0.33000
8661109;-0.35000
8663886;-0.34000
8666664;-0.31500
8669442;-0.29500
8672220;-0.29000
8674998;-0.30500
8677775;-0.33500
8680553;-0.36500
8683331;-0.39000
8686109;-0.40000
8688886;-0.40500
8691664;-0.40500
8694442;-0.41000
8697220;-0.42500
8699998;-0.44500
8702775;-0.44000
8705553;-0.43000
8708331;-0.42500
8711109;-0.42500
8713886;-0.42000
8716664;-0.43000
8719442;-0.43000
8722220;-0.42500
8724998;-0.42500
8727775;-0.43500
8730553;-0.44500
8733331;-0.44500
8736109;-0.44500
8738886;-0.43000
8741664;-0.42000
8744442;-0.42500
8747220;-0.42500
8749998;-0.45000
8752775;-0.44000
8755553;-0.44500
8758331;-0.43500
8761109;-0.43500
8763886;-0.43500
8766664;-0.45500
8769442;-0.49500
8772220;-0.52000
8774998;-0.52500
8777775;-0.54500
8780553;-0.58500
8783331;-0.64000
8786109;-0.64500
8788886;-0.58500
8791664;-0.45500
8794442;-0.34000
8797220;-0.22000
8799998;-0.03000
8802775;0.22000
8805553;0.50500
8808331;0.70000
8811109;0.81000
8813886;0.81500
8816664;0.65500
8819442;0.33500
8822220;0.00500
8824998;-0.25500
8827775;-0.42000
8830553;-0.52000
8833331;-0.57500
8836109;-0.61000
8838886;-0.61500
8841664;-0.58500
8844442;-0.56500
8847220;-0.53000
8849998;-0.50500
8852775;-0.49500
8855553;-0.49000
8858331;-0.48500
8861109;-0.48500
8863886;-0.47500
8866664;-0.48500
8869442;-0.48000
8872220;-0.47500
8874998;-0.45000
8877775;-0.46000
8880553;-0.47000
8883331;-0.48000
8886109;-0.48500
8888886;-0.47000
8891664;-0.46000
8894442;-0.47000
8897220;-0.46500
8899998;-0.47500
8902775;-0.47000
8905553;-0.45000
8908331;-0.44500
8911109;-0.45000
8913886;-0.47500
8916664;-0.47500
8919442;-0.48000
8922220;-0.45500
8924998;-0.46500
8927775;-0.45500
8930553;-0.46500
8933331;-0.47500
8936109;-0.48000
8938886;-0.47000
8941664;-0.46500
8944442;-0.46500
8947220;-0.47500
8949997;-0.47000
8952775;-0.47500
8955553;-0.46000
8958331;-0.45500
8961109;-0.45500
8963886;-0.46500
8966664;-0.48000
8969442;-0.48000
8972220;-0.46500
8974997;-0.46000
8977775;-0.46500
8980553;-0.46500
8983331;-0.47500
8986109;-0.46500
8988886;-0.47500
8991664;-0.44500
8994442;-0.46000
8997220;-0.45000
8999997;-0.46500
9002775;-0.46000
9005553;-0.45000
9008331;-0.44500
9011109;-0.44000
9013886;-0.44500
9016664;-0.45000
9019442;-0.46500
9022220;-0.45000
9024997;-0.45000
9027775;-0.45500
9030553;-0.47000
9033331;-0.46500
9036109;-0.46500
9038886;-0.45500
9041664;-0.46000
9044442;-0.45000
9047220;-0.46000
9049997;-0.47000
9052775;-0.47500
9055553;-0.47000
9058331;-0.47500
9061109;-0.49000
9063886;-0.49500
9066664;-0.50500
9069442;-0.49500
9072220;-0.47500
9074997;-0.47000
9077775;-0.48000
9080553;-0.50000
9083331;-0.50000
9086109;-0.51500
9088886;-0.51000
9091664;-0.50000
9094442;-0.49500
9097220;-0.51000
9099997;-0.52000
9102775;-0.53000
9105553;-0.51500
9108331;-0.50000
9111109;-0.51000
9113886;-0.51000
9116664;-0.51500
9119442;-0.51500
9122220;-0.50000
9124997;-0.47500
9127775;-0.47500
9130553;-0.48000
9133331;-0.47500
9136109;-0.47000
9138886;-0.46500
9141664;-0.45000
9144442;-0.45500
9147220;-0.45000
9149997;-0.43500
9152775;-0.43500
9155553;-0.41500
9158331;-0.39500
9161109;-0.39000
9163886;-0.40000
9166664;-0.38500
9169442;-0.39000
9172220;-0.37000
9174997;-0.35500
9177775;-0.35000
9180553;-0.35000
9183331;-0.34500
9186109;-0.36000
9188886;-0.34500
9191664;-0.33000
9194442;-0.33500
9197220;-0.34500
9199997;-0.35000
9202775;-0.35500
9205553;-0.35000
9208331;-0.34000
9211109;-0.34000
9213886;-0.33500
9216664;-0.34500
9219442;-0.34500
9222220;-0.35000
9224997;-0.33500
9227775;-0.34000
9230553;-0.34000
9233331;-0.36000
9236109;-0.37000
9238886;-0.34500
9241664;-0.33000
9244442;-0.34000
9247220;-0.35000
9249997;-0.35000
9252775;-0.36000
9255553;-0.35500
9258331;-0.34000
9261109;-0.34000
9263886;-0.35500
9266664;-0.35000
9269442;-0.36500
9272220;-0.35500
9274997;-0.34000
9277775;-0.35000
9280553;-0.35500
9283331;-0.37500
9286109;-0.36500
9288886;-0.36500
9291664;-0.36000
9294442;-0.36500
9297220;-0.37000
9299997;-0.37000
9302775;-0.38500
9305553;-0.37500
9308331;-0.36000
9311109;-0.36000
9313886;-0.37000
9316664;-0.37500
9319442;-0.38000
9322220;-0.37000
9324997;-0.36000
9327775;-0.37000
9330553;-0.37000
9333331;-0.38500
9336108;-0.37500
9338886;-0.37000
9341664;-0.36500
9344442;-0.37500
9347220;-0.37000
9349997;-0.37500
9352775;-0.38500
9355553;-0.37500
9358331;-0.37000
9361108;-0.37500
9363886;-0.39000
9366664;-0.38500
9369442;-0.38000
9372220;-0.38000
9374997;-0.36000
9377775;-0.36500
9380553;-0.37000
9383331;-0.38500
9386108;-0.38000
9388886;-0.37500
9391664;-0.35500
9394442;-0.35500
9397220;-0.37000
9399997;-0.37000
9402775;-0.38500
9405553;-0.38500
9408331;-0.36000
9411108;-0.37000
9413886;-0.36000
9416664;-0.37000
9419442;-0.37500
9422220;-0.37000
9424997;-0.36000
9427775;-0.36000
9430553;-0.37000
9433331;-0.36500
9436108;-0.38000
9438886;-0.36000
9441664;-0.35500
9444442;-0.35000
9447220;-0.36500
9449997;-0.36000
9452775;-0.35500
9455553;-0.34000
9458331;-0.31500
9461108;-0.32000
9463886;-0.31000
9466664;-0.31500
9469442;-0.31000
9472220;-0.29500
9474997;-0.29000
9477775;-0.28500
9480553;-0.27500
9483331;-0.27000
9486108;-0.27000
9488886;-0.25500
9491664;-0.25500
9494442;-0.26000
9497220;-0.26500
9499997;-0.27500
9502775;-0.28000
9505553;-0.28000
9508331;-0.28000
9511108;-0.28000
9513886;-0.27500
9516664;-0.28500
9519442;-0.29000
9522220;-0.28500
9524997;-0.26000
9527775;-0.25000
9530553;-0.23500
9533331;-0.25000
9536108;-0.28000
9538886;-0.30500
9541664;-0.32000
9544442;-0.32000
9547220;-0.34500
9549997;-0.36000
9552775;-0.37500
9555553;-0.37000
9558331;-0.37000
9561108;-0.37000
9563886;-0.37500
9566664;-0.37500
9569442;-0.38500
9572220;-0.38000
9574997;-0.37500
9577775;-0.38000
9580553;-0.38500
9583331;-0.39500
9586108;-0.40000
9588886;-0.39000
9591664;-0.37500
9594442;-0.37500
9597220;-0.37500
9599997;-0.38500
9602775;-0.39000
9605553;-0.37500
9608331;-0.36000
9611108;-0.37000
9613886;-0.37000
9616664;-0.38000
9619442;-0.40000
9622220;-0.39000
9624997;-0.38500
9627775;-0.39000
9630553;-0.41500
9633331;-0.45000
9636108;-0.49000
9638886;-0.51000
9641664;-0.51500
9644442;-0.53500
9647220;-0.57500
9649997;-0.60500
9652775;-0.56000
9655553;-0.44000
9658331;-0.29500
9661108;-0.13500
9663886;0.04500
9666664;0.28500
9669442;0.56500
9672220;0.79000
9674997;0.91000
9677775;0.89500
9680553;0.68500
9683331;0.29500
9686108;-0.14000
9688886;-0.42500
9691664;-0.51500
9694442;-0.50000
9697220;-0.45000
9699997;-0.43000
9702775;-0.41500
9705553;-0.41500
9708331;-0.40000
9711108;-0.40000
9713886;-0.40500
9716664;-0.42500
9719442;-0.42000
9722220;-0.43000
9724997;-0.41500
9727775;-0.41500
9730553;-0.41500
9733331;-0.42500
9736108;-0.43000
9738886;-0.41500
9741664;-0.40500
9744442;-0.40000
9747219;-0.41000
9749997;-0.42000
9752775;-0.43500
9755553;-0.42000
9758331;-0.41500
9761108;-0.41500
9763886;-0.42500
9766664;-0.43000
9769442;-0.42500
9772219;-0.42000
9774997;-0.40000
9777775;-0.41000
9780553;-0.42000
9783331;-0.43000
9786108;-0.43000
9788886;-0.42000
9791664;-0.41000
9794442;-0.40000
9797219;-0.41500
9799997;-0.42000
9802775;-0.42000
9805553;-0.42000
9808331;-0.41500
9811108;-0.41000
9813886;-0.41500
9816664;-0.41500
9819442;-0.41500
9822219;-0.41000
9824997;-0.40000
9827775;-0.40500
9830553;-0.42000
9833331;-0.41500
9836108;-0.42000
9838886;-0.40500
9841664;-0.40000
9844442;-0.42000
9847219;-0.41500
9849997;-0.41500
9852775;-0.41000
9855553;-0.41000
9858331;-0.40500
9861108;-0.41000
9863886;-0.40000
9866664;-0.41000
9869442;-0.42000
9872219;-0.40500
9874997;-0.39000
9877775;-0.40500
9880553;-0.39500
9883331;-0.39500
9886108;-0.40500
9888886;-0.39500
9891664;-0.38000
9894442;-0.39000
9897219;-0.40000
9899997;-0.40500
9902775;-0.41500
9905553;-0.41000
9908331;-0.39000
9911108;-0.40500
9913886;-0.40500
9916664;-0.41000
9919442;-0.42000
9922219;-0.42000
9924997;-0.41500
9927775;-0.42000
9930553;-0.43000
9933331;-0.43500
9936108;-0.44000
9938886;-0.43000
9941664;-0.43000
9944442;-0.42500
9947219;-0.42000
9949997;-0.43500
9952775;-0.44500
9955553;-0.42500
9958331;-0.41000
9961108;-0.42000
9963886;-0.41500
9966664;-0.41500
9969442;-0.40500
9972219;-0.40000
9974997;-0.37500
9977775;-0.36500
9980553;-0.36000
9983331;-0.37000
9986108;-0.36000
9988886;-0.34500
9991664;-0.32500
9994442;-0.32500
9997219;-0.33500
9999997;-0.32000
10002775;-0.32000
10005553;-0.31000
10008331;-0.30000
10011108;-0.29500
10013886;-0.30000
10016664;-0.31000
10019442;-0.30500
10022219;-0.29000
10024997;-0.29000
10027775;-0.29500
10030553;-0.30500
10033331;-0.31000
10036108;-0.31000
10038886;-0.30000
10041664;-0.29000
10044442;-0.29000
10047219;-0.30000
10049997;-0.32000
10052775;-0.31000
10055553;-0.28500
10058331;-0.29500
10061108;-0.29500
10063886;-0.30500
10066664;-0.31000
10069442;-0.30500
10072219;-0.31000
10074997;-0.31000
10077775;-0.30000
10080553;-0.30500
10083331;-0.31000
10086108;-0.31500
10088886;-0.32000
10091664;-0.31000
10094442;-0.31000
10097219;-0.31500
10099997;-0.32500
10102775;-0.34000
10105553;-0.32000
10108331;-0.32000
10111108;-0.32500
10113886;-0.33000
10116664;-0.33000
10119442;-0.34500
10122219;-0.31500
10124997;-0.32000
10127775;-0.31500
10130553;-0.32000
10133330;-0.33500
10136108;-0.34000
10138886;-0.33000
10141664;-0.33000
10144442;-0.32000
10147219;-0.32500
10149997;-0.33500
10152775;-0.33500
10155553;-0.33000
10158330;-0.32500
10161108;-0.33500
10163886;-0.34000
10166664;-0.34500
10169442;-0.34500
10172219;-0.34000
10174997;-0.33000
10177775;-0.33500
10180553;-0.34000
10183330;-0.34500
10186108;-0.35500
10188886;-0.34500
10191664;-0.33000
10194442;-0.33500
10197219;-0.34000
10199997;-0.35000
10202775;-0.34500
10205553;-0.34500
10208330;-0.33500
10211108;-0.35000
10213886;-0.34000
10216664;-0.35500
10219442;-0.35000
10222219;-0.33000
10224997;-0.33500
10227775;-0.34000
10230553;-0.32500
10233330;-0.33500
10236108;-0.34000
10238886;-0.33000
10241664;-0.32500
10244442;-0.33000
10247219;-0.32000
10249997;-0.33500
10252775;-0.34500
10255553;-0.33500
10258330;-0.32500
10261108;-0.32000
10263886;-0.34000
10266664;-0.35000
10269442;-0.34500
10272219;-0.33500
10274997;-0.32000
10277775;-0.32500
10280553;-0.32500
10283330;-0.32000
10286108;-0.32500
10288886;-0.30000
10291664;-0.28500
10294442;-0.27000
10297219;-0.27500
10299997;-0.28000
10302775;-0.27500
10305553;-0.25500
10308330;-0.24000
10311108;-0.23000
10313886;-0.23000
10316664;-0.22500
10319442;-0.22500
10322219;-0.22000
10324997;-0.21000
10327775;-0.21500
10330553;-0.23000
10333330;-0.23500
10336108;-0.24500
10338886;-0.24000
10341664;-0.24500
10344442;-0.23000
10347219;-0.24000
10349997;-0.26500
10352775;-0.26500
10355553;-0.24000
10358330;-0.22000
10361108;-0.20000
10363886;-0.21000
10366664;-0.24500
10369442;-0.27500
10372219;-0.28500
10374997;-0.28000
10377775;-0.30000
10380553;-0.33000
10383330;-0.34000
10386108;-0.35000
10388886;-0.34500
10391664;-0.33500
10394442;-0.33500
10397219;-0.33500
10399997;-0.34500
10402775;-0.36000
10405553;-0.35000
10408330;-0.34000
10411108;-0.33500
10413886;-0.35000
10416664;-0.35000
10419442;-0.35500
10422219;-0.35000
10424997;-0.34500
10427775;-0.35500
10430553;-0.34500
10433330;-0.36000
10436108;-0.36500
10438886;-0.35500
10441664;-0.35000
10444442;-0.34500
10447219;-0.36000
10449997;-0.37000
10452775;-0.37500
10455553;-0.38000
10458330;-0.40000
10461108;-0.44500
10463886;-0.48000
10466664;-0.51000
10469442;-0.53500
10472219;-0.57000
10474997;-0.55000
10477775;-0.47000
10480553;-0.34500
10483330;-0.21500
10486108;-0.05500
10488886;0.16500
10491664;0.44500
10494442;0.70500
10497219;0.85000
10499997;0.89000
10502775;0.81000
10505553;0.53000
10508330;0.14500
10511108;-0.23000
10513886;-0.45500
10516664;-0.51000
10519441;-0.47000
10522219;-0.42500
10524997;-0.38500
10527775;-0.39000
10530553;-0.38000
10533330;-0.39500
10536108;-0.39500
10538886;-0.39000
10541664;-0.38000
10544441;-0.39000
10547219;-0.38500
10549997;-0.39000
10552775;-0.40500
10555553;-0.39500
10558330;-0.39000
10561108;-0.38000
10563886;-0.39000
10566664;-0.40000
10569441;-0.40500
10572219;-0.39000
10574997;-0.37500
10577775;-0.37500
10580553;-0.38000
10583330;-0.38500
10586108;-0.39500
10588886;-0.39000
10591664;-0.38000
10594441;-0.38500
10597219;-0.38000
10599997;-0.38500
10602775;-0.39000
10605553;-0.38000
10608330;-0.38000
10611108;-0.36500
10613886;-0.37500
10616664;-0.38500
10619441;-0.38000
10622219;-0.38000
10624997;-0.36500
10627775;-0.36500
10630553;-0.37500
10633330;-0.38000
10636108;-0.39000
10638886;-0.38500
10641664;-0.38000
10644441;-0.37500
10647219;-0.37500
10649997;-0.38000
10652775;-0.38000
10655553;-0.37500
10658330;-0.37000
10661108;-0.36500
10663886;-0.37500
10666664;-0.38500
10669441;-0.37500
10672219;-0.37000
10674997;-0.36500
10677775;-0.35500
10680553;-0.36000
10683330;-0.38000
10686108;-0.37500
10688886;-0.37500
10691664;-0.36000
10694441;-0.35500
10697219;-0.36500
10699997;-0.37000
10702775;-0.37500
10705553;-0.37500
10708330;-0.36000
10711108;-0.37000
10713886;-0.36000
10716664;-0.36500
10719441;-0.38000
10722219;-0.37500
10724997;-0.36500
10727775;-0.37000
10730553;-0.38000
10733330;-0.38000
10736108;-0.38500
10738886;-0.38000
10741664;-0.37500
10744441;-0.38000
10747219;-0.38500
10749997;-0.38500
10752775;-0.39000
10755553;-0.39000
10758330;-0.37500
10761108;-0.38000
10763886;-0.39000
10766664;-0.39000
10769441;-0.40000
10772219;-0.38500
10774997;-0.38000
10777775;-0.37000
10780553;-0.37000
10783330;-0.36000
10786108;-0.36000
10788886;-0.35000
10791664;-0.34000
10794441;-0.32000
10797219;-0.31500
10799997;-0.31000
10802775;-0.31000
10805553;-0.30500
10808330;-0.28500
10811108;-0.27000
10813886;-0.28000
10816664;-0.29500
10819441;-0.28500
10822219;-0.29000
10824997;-0.29000
10827775;-0.30000
10830553;-0.28000
10833330;-0.29000
10836108;-0.29000
10838886;-0.28000
10841664;-0.27000
10844441;-0.27500
10847219;-0.27000
10849997;-0.27500
10852775;-0.27500
10855553;-0.27000
10858330;-0.26500
10861108;-0.27000
10863886;-0.27000
10866664;-0.27000
10869441;-0.28500
10872219;-0.29000
10874997;-0.27500
10877775;-0.28000
10880553;-0.28500
10883330;-0.29000
10886108;-0.29500
10888886;-0.29500
10891664;-0.29000
10894441;-0.29000
10897219;-0.29500
10899997;-0.30500
10902775;-0.30500
10905553;-0.30500
10908330;-0.29500
10911108;-0.29000
10913886;-0.30000
10916664;-0.30500
10919441;-0.31500
10922219;-0.29500
10924997;-0.29000
10927775;-0.28500
10930552;-0.29500
10933330;-0.30500
10936108;-0.31500
10938886;-0.31000
10941664;-0.29500
10944441;-0.30000
10947219;-0.30500
10949997;-0.33500
10952775;-0.34000
10955552;-0.32000
10958330;-0.31000
10961108;-0.30000
10963886;-0.31500
10966664;-0.33500
10969441;-0.34000
10972219;-0.32500
10974997;-0.32000
10977775;-0.32000
10980552;-0.33000
10983330;-0.34000
10986108;-0.34000
10988886;-0.33000
10991664;-0.32000
10994441;-0.32000
10997219;-0.33000
10999997;-0.32500
11002775;-0.32000
11005552;-0.32000
11008330;-0.32500
11011108;-0.33500
11013886;-0.33000
11016664;-0.33500
11019441;-0.34500
11022219;-0.32000
11024997;-0.32500
11027775;-0.32000
11030552;-0.33000
11033330;-0.35000
11036108;-0.35000
11038886;-0.34500
11041664;-0.32500
11044441;-0.32500
11047219;-0.32500
11049997;-0.33000
11052775;-0.33500
11055552;-0.34000
11058330;-0.33500
11061108;-0.33500
11063886;-0.33000
11066664;-0.34500
11069441;-0.33500
11072219;-0.33000
11074997;-0.31500
11077775;-0.32000
11080552;-0.32000
11083330;-0.33500
11086108;-0.32500
11088886;-0.31500
11091664;-0.30000
11094441;-0.27500
11097219;-0.27000
11099997;-0.27000
11102775;-0.28000
11105552;-0.27000
11108330;-0.25500
11111108;-0.24000
11113886;-0.24000
11116664;-0.23500
11119441;-0.23500
11122219;-0.22000
11124997;-0.21000
11127775;-0.22000
11130552;-0.24000
11133330;-0.24000
11136108;-0.26000
11138886;-0.24000
11141664;-0.24000
11144441;-0.23000
11147219;-0.23500
11149997;-0.23500
11152775;-0.24000
11155552;-0.23000
11158330;-0.23500
11161108;-0.23500
11163886;-0.25500
11166664;-0.25500
11169441;-0.25000
11172219;-0.22000
11174997;-0.20500
11177775;-0.21500
11180552;-0.25000
11183330;-0.29000
11186108;-0.29500
11188886;-0.31500
11191664;-0.32000
11194441;-0.34000
11197219;-0.35000
11199997;-0.35000
11202775;-0.35500
11205552;-0.35500
11208330;-0.32500
11211108;-0.32500
11213886;-0.34000
11216664;-0.36500
11219441;-0.36500
11222219;-0.36500
11224997;-0.35500
11227775;-0.36000
11230552;-0.36500
11233330;-0.37000
11236108;-0.36000
11238886;-0.36000
11241664;-0.36000
11244441;-0.35000
11247219;-0.36500
11249997;-0.37500
11252775;-0.37500
11255552;-0.38000
11258330;-0.39500
11261108;-0.43000
11263886;-0.48000
11266664;-0.50500
11269441;-0.53500
11272219;-0.58500
11274997;-0.60000
11277775;-0.55000
11280552;-0.43000
11283330;-0.31000
11286108;-0.16000
11288886;0.06000
11291664;0.34500
11294441;0.59500
11297219;0.76500
11299997;0.86000
11302775;0.88000
11305552;0.79500
11308330;0.54000
11311108;0.18500
11313886;-0.19000
11316663;-0.41500
11319441;-0.52500
11322219;-0.51500
11324997;-0.46000
11327775;-0.42000
11330552;-0.41000
11333330;-0.42000
11336108;-0.44000
11338886;-0.42000
11341663;-0.40000
11344441;-0.40500
11347219;-0.41000
11349997;-0.43000
11352775;-0.41000
11355552;-0.40500
11358330;-0.41000
11361108;-0.40500
11363886;-0.42000
11366663;-0.42500
11369441;-0.42500
11372219;-0.41500
11374997;-0.40500
11377775;-0.41000
11380552;-0.42000
11383330;-0.43000
11386108;-0.42500
11388886;-0.42000
11391663;-0.41500
11394441;-0.41000
11397219;-0.41500
11399997;-0.41500
11402775;-0.43000
11405552;-0.41000
11408330;-0.40000
11411108;-0.41500
11413886;-0.43000
11416663;-0.43000
11419441;-0.43500
11422219;-0.42500
11424997;-0.41500
11427775;-0.41000
11430552;-0.42000
11433330;-0.42000
11436108;-0.42500
11438886;-0.42500
11441663;-0.42000
11444441;-0.42500
11447219;-0.42000
11449997;-0.42500
11452775;-0.43500
11455552;-0.43000
11458330;-0.42000
11461108;-0.43000
11463886;-0.43000
11466663;-0.42500
11469441;-0.42500
11472219;-0.42500
11474997;-0.41000
11477775;-0.41000
11480552;-0.40500
11483330;-0.42000
11486108;-0.42000
11488886;-0.40500
11491663;-0.41500
11494441;-0.41500
11497219;-0.42500
11499997;-0.43000
11502775;-0.44500
11505552;-0.43500
11508330;-0.42000
11511108;-0.42000
11513886;-0.42500
11516663;-0.44000
11519441;-0.44000
11522219;-0.44500
11524997;-0.42500
11527775;-0.42500
11530552;-0.45000
11533330;-0.44500
11536108;-0.45000
11538886;-0.45000
11541663;-0.44500
11544441;-0.43500
11547219;-0.45000
11549997;-0.46000
11552775;-0.46500
11555552;-0.46500
11558330;-0.45500
11561108;-0.45000
11563886;-0.46000
11566663;-0.47500
11569441;-0.47500
11572219;-0.47500
11574997;-0.46000
11577775;-0.45000
11580552;-0.44500
11583330;-0.44000
11586108;-0.44000
11588886;-0.42500
11591663;-0.41500
11594441;-0.40000
11597219;-0.39000
11599997;-0.39000
11602775;-0.39000
11605552;-0.37500
11608330;-0.36000
11611108;-0.35500
11613886;-0.35500
11616663;-0.35000
11619441;-0.35000
11622219;-0.35000
11624997;-0.34500
11627775;-0.35000
11630552;-0.35000
11633330;-0.35000
11636108;-0.34500
11638886;-0.34000
11641663;-0.32500
11644441;-0.34500
11647219;-0.33500
11649997;-0.34500
11652775;-0.35000
11655552;-0.35000
11658330;-0.35500
11661108;-0.34000
11663886;-0.34000
11666663;-0.33500
11669441;-0.34000
11672219;-0.34000
11674997;-0.34000
11677775;-0.34500
11680552;-0.33500
11683330;-0.35000
11686108;-0.35500
11688886;-0.34000
11691663;-0.35000
11694441;-0.34000
11697219;-0.36000
11699997;-0.37500
11702775;-0.38000
11705552;-0.36500
11708330;-0.35500
11711108;-0.35500
11713886;-0.35500
11716663;-0.36000
11719441;-0.36000
11722219;-0.35500
11724997;-0.35000
11727774;-0.34500
11730552;-0.36000
11733330;-0.37000
11736108;-0.39500
11738886;-0.37000
11741663;-0.36000
11744441;-0.36000
11747219;-0.37500
11749997;-0.39000
11752774;-0.38500
11755552;-0.37500
11758330;-0.37500
11761108;-0.37000
11763886;-0.37000
11766663;-0.38000
11769441;-0.38500
11772219;-0.38500
11774997;-0.37500
11777774;-0.36500
11780552;-0.38000
11783330;-0.39000
11786108;-0.40000
11788886;-0.38500
11791663;-0.37000
11794441;-0.39000
11797219;-0.39000
11799997;-0.39500
11802774;-0.41000
11805552;-0.40000
11808330;-0.39000
11811108;-0.36500
11813886;-0.38000
11816663;-0.38000
11819441;-0.38000
11822219;-0.39000
11824997;-0.37500
11827774;-0.37000
11830552;-0.37000
11833330;-0.38000
11836108;-0.40000
11838886;-0.37000
11841663;-0.37000
11844441;-0.36000
11847219;-0.37000
11849997;-0.37500
11852774;-0.38000
11855552;-0.38000
11858330;-0.36500
11861108;-0.35000
11863886;-0.34500
11866663;-0.33500
11869441;-0.34000
11872219;-0.32500
11874997;-0.32500
11877774;-0.32500
11880552;-0.32000
11883330;-0.33000
11886108;-0.32500
11888886;-0.31500
11891663;-0.29000
11894441;-0.29000
11897219;-0.28500
11899997;-0.28500
11902774;-0.28000
11905552;-0.26500
11908330;-0.26500
11911108;-0.26000
11913886;-0.28000
11916663;-0.28500
11919441;-0.30500
11922219;-0.29500
11924997;-0.27500
11927774;-0.26500
11930552;-0.27000
11933330;-0.28500
11936108;-0.30500
11938886;-0.30500
11941663;-0.30500
11944441;-0.30000
11947219;-0.29000
11949997;-0.29500
11952774;-0.30000
11955552;-0.31500
11958330;-0.33000
11961108;-0.34500
11963886;-0.37500
11966663;-0.38500
11969441;-0.39000
11972219;-0.38500
11974997;-0.38000
11977774;-0.38500
11980552;-0.39000
11983330;-0.39000
11986108;-0.39000
11988886;-0.38500
11991663;-0.39500
11994441;-0.39500
11997219;-0.39500
11999997;-0.42500
12002774;-0.41500
12005552;-0.41000
12008330;-0.39500
12011108;-0.39500
12013886;-0.41000
12016663;-0.40500
12019441;-0.41500
12022219;-0.40000
12024997;-0.39500
12027774;-0.40500
12030552;-0.41500
12033330;-0.43500
12036108;-0.47000
12038886;-0.50000
12041663;-0.49000
12044441;-0.49500
12047219;-0.53500
12049997;-0.60000
12052774;-0.61500
12055552;-0.57500
12058330;-0.47500
12061108;-0.35000
12063886;-0.19000
12066663;0.00500
12069441;0.26500
12072219;0.56500
12074997;0.78000
12077774;0.86000
12080552;0.73500
12083330;0.40000
12086108;-0.02500
12088886;-0.36000
12091663;-0.49000
12094441;-0.52500
12097219;-0.50000
12099997;-0.46000
12102774;-0.44500
12105552;-0.44000
12108330;-0.43000
12111108;-0.41500
12113885;-0.42000
12116663;-0.42500
12119441;-0.45000
12122219;-0.43000
12124997;-0.42500
12127774;-0.42500
12130552;-0.42500
12133330;-0.44000
12136108;-0.43500
12138885;-0.43000
12141663;-0.43000
12144441;-0.41500
12147219;-0.42500
12149997;-0.42500
12152774;-0.43000
12155552;-0.43500
12158330;-0.41000
12161108;-0.41500
12163885;-0.42500
12166663;-0.43000
12169441;-0.44000
12172219;-0.44000
12174997;-0.42000
12177774;-0.42000
12180552;-0.41500
12183330;-0.42500
12186108;-0.44000
12188885;-0.43500
12191663;-0.41500
12194441;-0.43000
12197219;-0.42000
12199997;-0.43000
12202774;-0.43500
12205552;-0.43500
12208330;-0.42500
12211108;-0.42500
12213885;-0.43500
12216663;-0.44000
12219441;-0.43500
12222219;-0.43000
12224997;-0.43000
12227774;-0.42000
12230552;-0.43000
12233330;-0.43500
12236108;-0.44000
12238885;-0.43000
12241663;-0.42000
12244441;-0.42000
12247219;-0.41000
12249997;-0.43000
12252774;-0.42000
12255552;-0.42000
12258330;-0.41000
12261108;-0.41500
12263885;-0.42500
12266663;-0.42000
12269441;-0.43500
12272219;-0.43000
12274997;-0.42000
12277774;-0.43000
12280552;-0.42500
12283330;-0.43000
12286108;-0.43500
12288885;-0.43500
12291663;-0.43000
12294441;-0.43000
12297219;-0.45000
12299997;-0.45500
12302774;-0.45500
12305552;-0.45000
12308330;-0.46500
12311108;-0.45000
12313885;-0.46000
12316663;-0.46500
12319441;-0.46500
12322219;-0.45500
12324997;-0.45500
12327774;-0.46000
12330552;-0.46000
12333330;-0.46500
12336108;-0.47500
12338885;-0.46500
12341663;-0.44000
12344441;-0.43500
12347219;-0.43500
12349997;-0.42000
12352774;-0.41500
12355552;-0.39500
12358330;-0.37500
12361108;-0.36000
12363885;-0.35500
12366663;-0.35500
12369441;-0.35500
12372219;-0.34000
12374997;-0.32500
12377774;-0.32000
12380552;-0.30500
12383330;-0.31500
12386108;-0.31000
12388885;-0.30500
12391663;-0.29000
12394441;-0.28500
12397219;-0.29000
12399997;-0.28500
12402774;-0.29500
12405552;-0.28500
12408330;-0.28500
12411108;-0.29000
12413885;-0.30000
12416663;-0.30000
12419441;-0.31000
12422219;-0.30500
12424997;-0.28500
12427774;-0.29500
12430552;-0.29500
12433330;-0.30000
12436108;-0.30000
12438885;-0.30500
12441663;-0.28500
12444441;-0.29000
12447219;-0.30000
12449997;-0.30000
12452774;-0.31000
12455552;-0.30500
12458330;-0.29500
12461108;-0.28500
12463885;-0.29500
12466663;-0.30000
12469441;-0.30000
12472219;-0.29000
12474997;-0.29000
12477774;-0.29500
12480552;-0.30000
12483330;-0.30500
12486108;-0.32000
12488885;-0.30000
12491663;-0.30500
12494441;-0.30000
12497219;-0.31000
12499996;-0.31000
12502774;-0.32000
12505552;-0.32000
12508330;-0.31500
12511108;-0.31500
12513885;-0.32000
12516663;-0.32500
12519441;-0.33000
12522219;-0.33500
12524996;-0.32500
12527774;-0.32000
12530552;-0.32500
12533330;-0.33000
12536108;-0.33000
12538885;-0.32500
12541663;-0.32500
12544441;-0.32500
12547219;-0.32000
12549996;-0.33000
12552774;-0.34000
12555552;-0.33000
12558330;-0.33000
12561108;-0.32000
12563885;-0.32000
12566663;-0.32000
12569441;-0.33000
12572219;-0.33000
12574996;-0.31000
12577774;-0.31500
12580552;-0.31500
12583330;-0.33000
12586108;-0.32500
12588885;-0.32000
12591663;-0.31500
12594441;-0.31500
12597219;-0.32000
12599996;-0.32000
12602774;-0.32500
12605552;-0.32000
12608330;-0.30500
12611108;-0.30000
12613885;-0.31000
12616663;-0.31000
12619441;-0.31500
12622219;-0.32000
12624996;-0.31000
12627774;-0.31500
12630552;-0.30500
12633330;-0.32000
12636108;-0.32500
12638885;-0.30500
12641663;-0.29000
12644441;-0.29000
12647219;-0.28500
12649996;-0.29000
12652774;-0.28500
12655552;-0.26500
12658330;-0.25500
12661108;-0.23500
12663885;-0.24000
12666663;-0.23500
12669441;-0.24000
12672219;-0.23500
12674996;-0.22000
12677774;-0.20500
12680552;-0.21500
12683330;-0.19500
12686108;-0.20000
12688885;-0.19000
12691663;-0.19000
12694441;-0.19000
12697219;-0.19500
12699996;-0.20000
12702774;-0.21500
12705552;-0.21500
12708330;-0.20000
12711108;-0.21000
12713885;-0.23000
12716663;-0.22500
12719441;-0.23000
12722219;-0.23500
12724996;-0.24000
12727774;-0.22500
12730552;-0.21000
12733330;-0.20500
12736108;-0.21000
12738885;-0.22500
12741663;-0.25000
12744441;-0.26000
12747219;-0.27500
12749996;-0.30000
12752774;-0.31500
12755552;-0.32500
12758330;-0.32500
12761108;-0.31500
12763885;-0.32000
12766663;-0.32500
12769441;-0.33500
12772219;-0.32500
12774996;-0.32000
12777774;-0.32000
12780552;-0.33000
12783330;-0.33500
12786108;-0.34500
12788885;-0.34000
12791663;-0.33500
12794441;-0.34000
12797219;-0.34500
12799996;-0.35500
12802774;-0.36000
12805552;-0.35000
12808330;-0.35000
12811108;-0.34500
12813885;-0.36500
12816663;-0.38000
12819441;-0.41500
12822219;-0.44000
12824996;-0.46500
12827774;-0.48000
12830552;-0.51000
12833330;-0.56000
12836108;-0.60500
12838885;-0.58000
12841663;-0.49000
12844441;-0.38000
12847219;-0.25000
12849996;-0.15000
12852774;-0.02000
12855552;0.20500
12858330;0.48000
12861108;0.73500
12863885;0.92000
12866663;0.98000
12869441;0.89500
12872219;0.62500
12874996;0.20000
12877774;-0.20500
12880552;-0.45500
12883330;-0.49500
12886108;-0.46000
12888885;-0.41000
12891663;-0.36500
12894441;-0.38000
12897219;-0.38500
12899996;-0.38000
12902774;-0.39500
12905552;-0.38000
12908330;-0.37500
12911107;-0.38500
12913885;-0.39000
12916663;-0.39500
12919441;-0.40500
12922219;-0.39000
12924996;-0.38000
12927774;-0.37500
12930552;-0.39000
12933330;-0.40000
12936107;-0.40500
12938885;-0.39500
12941663;-0.38500
12944441;-0.38500
12947219;-0.39500
12949996;-0.39500
12952774;-0.41500
12955552;-0.39000
12958330;-0.38000
12961107;-0.38000
12963885;-0.38000
12966663;-0.39000
12969441;-0.39500
12972219;-0.38500
12974996;-0.38000
12977774;-0.38000
12980552;-0.38500
12983330;-0.39000
12986107;-0.40000
12988885;-0.39500
12991663;-0.38000
12994441;-0.38500
12997219;-0.38500
12999996;-0.38500
13002774;-0.39500
13005552;-0.38500
13008330;-0.38000
13011107;-0.38500
13013885;-0.38500
13016663;-0.39500
13019441;-0.40500
13022219;-0.39000
13024996;-0.38500
13027774;-0.37000
13030552;-0.38500
13033330;-0.39000
13036107;-0.40500
13038885;-0.39000
13041663;-0.38000
13044441;-0.38000
13047219;-0.38000
13049996;-0.39000
13052774;-0.39000
13055552;-0.39000
13058330;-0.38000
13061107;-0.36000
13063885;-0.37000
13066663;-0.38000
13069441;-0.38000
13072219;-0.40000
13074996;-0.37500
13077774;-0.38000
13080552;-0.38500
13083330;-0.39500
13086107;-0.40000
13088885;-0.40000
13091663;-0.40000
13094441;-0.39500
13097219;-0.39500
13099996;-0.39000
13102774;-0.40000
13105552;-0.38500
13108330;-0.38500
13111107;-0.39500
13113885;-0.39000
13116663;-0.40000
13119441;-0.40000
13122219;-0.39500
13124996;-0.39500
13127774;-0.40000
13130552;-0.39500
13133330;-0.40000
13136107;-0.39500
13138885;-0.39000
13141663;-0.37000
13144441;-0.37000
13147219;-0.37500
13149996;-0.37000
13152774;-0.36500
13155552;-0.35000
13158330;-0.33500
13161107;-0.33000
13163885;-0.32000
13166663;-0.33000
13169441;-0.32500
13172219;-0.31500
13174996;-0.30000
13177774;-0.28500
13180552;-0.28500
13183330;-0.29000
13186107;-0.29500
13188885;-0.29000
13191663;-0.25500
13194441;-0.26500
13197219;-0.27000
13199996;-0.27000
13202774;-0.27500
13205552;-0.27500
13208330;-0.26500
13211107;-0.26000
13213885;-0.26500
13216663;-0.27500
13219441;-0.28000
13222219;-0.26000
13224996;-0.26000
13227774;-0.27000
13230552;-0.26000
13233330;-0.28000
13236107;-0.28500
13238885;-0.27500
13241663;-0.27000
13244441;-0.27500
13247219;-0.27500
13249996;-0.29500
13252774;-0.28500
13255552;-0.29000
13258330;-0.28000
13261107;-0.28000
13263885;-0.28000
13266663;-0.30500
13269441;-0.31000
13272219;-0.30000
13274996;-0.29500
13277774;-0.28000
13280552;-0.30000
13283330;-0.30000
13286107;-0.30500
13288885;-0.30000
13291663;-0.29500
13294441;-0.30000
13297218;-0.30000
13299996;-0.30500
13302774;-0.32000
13305552;-0.31000
13308330;-0.30500
13311107;-0.30500
13313885;-0.31500
13316663;-0.31500
13319441;-0.32500
13322218;-0.32500
13324996;-0.31500
13327774;-0.32000
13330552;-0.32000
13333330;-0.33000
13336107;-0.32500
13338885;-0.33000
13341663;-0.31500
13344441;-0.31500
13347218;-0.31500
13349996;-0.32000
13352774;-0.33000
13355552;-0.31000
13358330;-0.31500
13361107;-0.31000
13363885;-0.31500
13366663;-0.32500
13369441;-0.33500
13372218;-0.33000
13374996;-0.31000
13377774;-0.32000
13380552;-0.31500
13383330;-0.32000
13386107;-0.33000
13388885;-0.32500
13391663;-0.31000
13394441;-0.31500
13397218;-0.30500
13399996;-0.31000
13402774;-0.33000
13405552;-0.32000
13408330;-0.30500
13411107;-0.31000
13413885;-0.31500
13416663;-0.31500
13419441;-0.32000
13422218;-0.32000
13424996;-0.31000
13427774;-0.30500
13430552;-0.30500
13433330;-0.32000
13436107;-0.31500
13438885;-0.31500
13441663;-0.30000
13444441;-0.29000
13447218;-0.29000
13449996;-0.28500
13452774;-0.29000
13455552;-0.27000
13458330;-0.24500
13461107;-0.24500
13463885;-0.24500
13466663;-0.26000
13469441;-0.26500
13472218;-0.24500
13474996;-0.22500
13477774;-0.21500
13480552;-0.21000
13483330;-0.20000
13486107;-0.22000
13488885;-0.21500
13491663;-0.21000
13494441;-0.21500
13497218;-0.21500
13499996;-0.22500
13502774;-0.24000
13505552;-0.23500
13508330;-0.21500
13511107;-0.22000
13513885;-0.23500
13516663;-0.23000
13519441;-0.23000
13522218;-0.20000
13524996;-0.18500
13527774;-0.19500
13530552;-0.23500
13533330;-0.26000
13536107;-0.27500
13538885;-0.29000
13541663;-0.28500
13544441;-0.30000
13547218;-0.30500
13549996;-0.32500
13552774;-0.33500
13555552;-0.33000
13558330;-0.31500
13561107;-0.32500
13563885;-0.32000
13566663;-0.34500
13569441;-0.35000
13572218;-0.32500
13574996;-0.32000
13577774;-0.32500
13580552;-0.32000
13583330;-0.33000
13586107;-0.33500
13588885;-0.33500
13591663;-0.33500
13594441;-0.31500
13597218;-0.33500
13599996;-0.33500
13602774;-0.34500
13605552;-0.33500
13608330;-0.33500
13611107;-0.33000
13613885;-0.33500
13616663;-0.34000
13619441;-0.35000
13622218;-0.38000
13624996;-0.41000
13627774;-0.44000
13630552;-0.47000
13633330;-0.50000
13636107;-0.53500
13638885;-0.55500
13641663;-0.49500
13644441;-0.39500
13647218;-0.25500
13649996;-0.11000
13652774;0.06000
13655552;0.33500
13658330;0.62000
13661107;0.83500
13663885;0.93500
13666663;0.90000
13669441;0.67500
13672218;0.28500
13674996;-0.09000
13677774;-0.36000
13680552;-0.47500
13683330;-0.48000
13686107;-0.43500
13688885;-0.38000
13691663;-0.34500
13694441;-0.35000
13697218;-0.37000
13699996;-0.36500
13702774;-0.37000
13705552;-0.36500
13708329;-0.37000
13711107;-0.37000
13713885;-0.37000
13716663;-0.38500
13719441;-0.38500
13722218;-0.38000
13724996;-0.38000
13727774;-0.37000
13730552;-0.37500
13733329;-0.38500
13736107;-0.39000
13738885;-0.38000
13741663;-0.37000
13744441;-0.38500
13747218;-0.37500
13749996;-0.37000
13752774;-0.37500
13755552;-0.37000
13758329;-0.36000
13761107;-0.36500
13763885;-0.37000
13766663;-0.38000
13769441;-0.39000
13772218;-0.37000
13774996;-0.36500
13777774;-0.36000
13780552;-0.36500
13783329;-0.37500
13786107;-0.38500
13788885;-0.39000
13791663;-0.37500
13794441;-0.36500
13797218;-0.36000
13799996;-0.37500
13802774;-0.38500
13805552;-0.38500
13808329;-0.36000
13811107;-0.36000
13813885;-0.37000
13816663;-0.37500
13819441;-0.38000
13822218;-0.37000
13824996;-0.36000
13827774;-0.35500
13830552;-0.36500
13833329;-0.36000
13836107;-0.37000
13838885;-0.36500
13841663;-0.36000
13844441;-0.34500
13847218;-0.35500
13849996;-0.36000
13852774;-0.37000
13855552;-0.36000
13858329;-0.35000
13861107;-0.35500
13863885;-0.36000
13866663;-0.38000
13869441;-0.37500
13872218;-0.36000
13874996;-0.35500
13877774;-0.35500
13880552;-0.36000
13883329;-0.38000
13886107;-0.37500
13888885;-0.36500
13891663;-0.35500
13894441;-0.36000
13897218;-0.36000
13899996;-0.36500
13902774;-0.38500
13905552;-0.38000
13908329;-0.37000
13911107;-0.36000
13913885;-0.37000
13916663;-0.37500
13919441;-0.38500
13922218;-0.36500
13924996;-0.37500
13927774;-0.37000
13930552;-0.37000
13933329;-0.38000
13936107;-0.38000
13938885;-0.36500
13941663;-0.36000
13944441;-0.36000
13947218;-0.36500
13949996;-0.38000
13952774;-0.37000
13955552;-0.35000
13958329;-0.33000
13961107;-0.31500
13963885;-0.30500
13966663;-0.30500
13969441;-0.29500
13972218;-0.28500
13974996;-0.27000
13977774;-0.27000
13980552;-0.28000
13983329;-0.27000
13986107;-0.28500
13988885;-0.27500
13991663;-0.26500
13994441;-0.25500
13997218;-0.26500
13999996;-0.27000
14002774;-0.26500
14005552;-0.26000
14008329;-0.26500
14011107;-0.25500
14013885;-0.26000
14016663;-0.26000
14019441;-0.27500
14022218;-0.27500
14024996;-0.27000
14027774;-0.25500
14030552;-0.28000
14033329;-0.28500
14036107;-0.29500
14038885;-0.27000
14041663;-0.26000
14044441;-0.25500
14047218;-0.27000
14049996;-0.27500
14052774;-0.28000
14055552;-0.26000
14058329;-0.26000
14061107;-0.26500
14063885;-0.27500
14066663;-0.28500
14069441;-0.29000
14072218;-0.28500
14074996;-0.28000
14077774;-0.28500
14080552;-0.28500
14083329;-0.29500
14086107;-0.30000
14088885;-0.29500
14091663;-0.29000
14094440;-0.30000
14097218;-0.30500
14099996;-0.32000
14102774;-0.32500
14105552;-0.32000
14108329;-0.31000
14111107;-0.31500
14113885;-0.31000
14116663;-0.30500
14119440;-0.30500
14122218;-0.30500
14124996;-0.30500
14127774;-0.30500
14130552;-0.30500
14133329;-0.31500
14136107;-0.31500
14138885;-0.30500
14141663;-0.30000
14144440;-0.30000
14147218;-0.32000
14149996;-0.33500
14152774;-0.33000
14155552;-0.34000
14158329;-0.32000
14161107;-0.31000
14163885;-0.33500
14166663;-0.33500
14169440;-0.35000
14172218;-0.33500
14174996;-0.32500
14177774;-0.33000
14180552;-0.32500
14183329;-0.33000
14186107;-0.33500
14188885;-0.33000
14191663;-0.31500
14194440;-0.31000
14197218;-0.30500
14199996;-0.32000
14202774;-0.33500
14205552;-0.33000
14208329;-0.30500
14211107;-0.30500
14213885;-0.30500
14216663;-0.32000
14219440;-0.33000
14222218;-0.31500
14224996;-0.32000
14227774;-0.31500
14230552;-0.32500
14233329;-0.32500
14236107;-0.33000
14238885;-0.30500
14241663;-0.30000
14244440;-0.29500
14247218;-0.28500
14249996;-0.27000
14252774;-0.28000
14255552;-0.27000
14258329;-0.26000
14261107;-0.25500
14263885;-0.26000
14266663;-0.25000
14269440;-0.25000
14272218;-0.24000
14274996;-0.22500
14277774;-0.21000
14280552;-0.20500
14283329;-0.21500
14286107;-0.22000
14288885;-0.22000
14291663;-0.21500
14294440;-0.24000
14297218;-0.25000
14299996;-0.26000
14302774;-0.24000
14305552;-0.24000
14308329;-0.24500
14311107;-0.24500
14313885;-0.23500
14316663;-0.22500
14319440;-0.22000
14322218;-0.21500
14324996;-0.24000
14327774;-0.25000
14330552;-0.27000
14333329;-0.29500
14336107;-0.31500
14338885;-0.34000
14341663;-0.33500
14344440;-0.33500
14347218;-0.34500
14349996;-0.34500
14352774;-0.35500
14355552;-0.34500
14358329;-0.33000
14361107;-0.33500
14363885;-0.34500
14366663;-0.36000
14369440;-0.35500
14372218;-0.35500
14374996;-0.34000
14377774;-0.34000
14380552;-0.33500
14383329;-0.34000
14386107;-0.36000
14388885;-0.35000
14391663;-0.34000
14394440;-0.34500
14397218;-0.34000
14399996;-0.35000
14402774;-0.36000
14405552;-0.36000
14408329;-0.35000
14411107;-0.35000
14413885;-0.35000
14416663;-0.37000
14419440;-0.40500
14422218;-0.43500
14424996;-0.45500
14427774;-0.47000
14430552;-0.52000
14433329;-0.56500
14436107;-0.57500
14438885;-0.50000
14441663;-0.38500
14444440;-0.24500
14447218;-0.10000
14449996;0.10500
14452774;0.35000
14455552;0.59500
14458329;0.78000
14461107;0.85500
14463885;0.76000
14466663;0.51000
14469440;0.11500
14472218;-0.21500
14474996;-0.40000
14477774;-0.47500
14480552;-0.48500
14483329;-0.45000
14486107;-0.42000
14488885;-0.40500
14491663;-0.39000
14494440;-0.39500
14497218;-0.39500
14499996;-0.38500
14502774;-0.39000
14505551;-0.40000
14508329;-0.40000
14511107;-0.39000
14513885;-0.39500
14516663;-0.40000
14519440;-0.41500
14522218;-0.39000
14524996;-0.38500
14527774;-0.37500
14530551;-0.38000
14533329;-0.39500
14536107;-0.41000
14538885;-0.41000
14541663;-0.40500
14544440;-0.39500
14547218;-0.39000
14549996;-0.40000
14552774;-0.42000
14555551;-0.41000
14558329;-0.40000
14561107;-0.39500
14563885;-0.40500
14566663;-0.41000
14569440;-0.41500
14572218;-0.41000
14574996;-0.40500
14577774;-0.40000
14580551;-0.39500
14583329;-0.41500
14586107;-0.41500
14588885;-0.41000
14591663;-0.41000
14594440;-0.40000
14597218;-0.39500
14599996;-0.41500
14602774;-0.42000
14605551;-0.41000
14608329;-0.40000
14611107;-0.39000
14613885;-0.40000
14616663;-0.41000
14619440;-0.41000
14622218;-0.40000
14624996;-0.39500
14627774;-0.39000
14630551;-0.39500
14633329;-0.40500
14636107;-0.40000
14638885;-0.41500
14641663;-0.41000
14644440;-0.40500
14647218;-0.39500
14649996;-0.40000
14652774;-0.41000
14655551;-0.41000
14658329;-0.40500
14661107;-0.39000
14663885;-0.39500
14666663;-0.40000
14669440;-0.40000
14672218;-0.40000
14674996;-0.40500
14677774;-0.40500
14680551;-0.41500
14683329;-0.41500
14686107;-0.42000
14688885;-0.42000
14691663;-0.41500
14694440;-0.40000
14697218;-0.41500
14699996;-0.42500
14702774;-0.44000
14705551;-0.42500
14708329;-0.41000
14711107;-0.41500
14713885;-0.42000
14716663;-0.42500
14719440;-0.43500
14722218;-0.44000
14724996;-0.43500
14727774;-0.43000
14730551;-0.44000
14733329;-0.44000
14736107;-0.45500
14738885;-0.45000
14741663;-0.45500
14744440;-0.45500
14747218;-0.44500
14749996;-0.45500
14752774;-0.45500
14755551;-0.43500
14758329;-0.41500
14761107;-0.41500
14763885;-0.39000
14766663;-0.40000
14769440;-0.40500
14772218;-0.39500
14774996;-0.37500
14777774;-0.35500
14780551;-0.34500
14783329;-0.34500
14786107;-0.34000
14788885;-0.33000
14791663;-0.31500
14794440;-0.31000
14797218;-0.33500
14799996;-0.32000
14802774;-0.34000
14805551;-0.32000
14808329;-0.32000
14811107;-0.31500
14813885;-0.29500
14816663;-0.30500
14819440;-0.31000
14822218;-0.29500
14824996;-0.28500
14827774;-0.29000
14830551;-0.29500
14833329;-0.31000
14836107;-0.31000
14838885;-0.32000
14841663;-0.30500
14844440;-0.30000
14847218;-0.30500
14849996;-0.31500
14852774;-0.33000
14855551;-0.32500
14858329;-0.32000
14861107;-0.31000
14863885;-0.30500
14866663;-0.32000
14869440;-0.33000
14872218;-0.32500
14874996;-0.32500
14877774;-0.31500
14880551;-0.32500
14883329;-0.33000
14886107;-0.33000
14888885;-0.32500
14891662;-0.31000
14894440;-0.31000
14897218;-0.31000
14899996;-0.32500
14902774;-0.34500
14905551;-0.33500
14908329;-0.34500
14911107;-0.34500
14913885;-0.34500
14916662;-0.34500
14919440;-0.35000
14922218;-0.33500
14924996;-0.33000
14927774;-0.34000
14930551;-0.34500
14933329;-0.35500
14936107;-0.35500
14938885;-0.35500
14941662;-0.34500
14944440;-0.35500
14947218;-0.35500
14949996;-0.35000
14952774;-0.37000
14955551;-0.37500
14958329;-0.35000
14961107;-0.34500
14963885;-0.35500
14966662;-0.35500
14969440;-0.36500
14972218;-0.36000
14974996;-0.35500
14977774;-0.35500
14980551;-0.36000
14983329;-0.36000
14986107;-0.37000
14988885;-0.37000
14991662;-0.35500
14994440;-0.35500
14997218;-0.37000
14999996;-0.36000
15002774;-0.36500
15005551;-0.37000
15008329;-0.35000
15011107;-0.35000
15013885;-0.35000
15016662;-0.36000
15019440;-0.36500
15022218;-0.37000
15024996;-0.36000
15027774;-0.35500
15030551;-0.34500
15033329;-0.36000
15036107;-0.37000
15038885;-0.37500
15041662;-0.36500
15044440;-0.35000
15047218;-0.34500
15049996;-0.35000
15052774;-0.36500
15055551;-0.35000
15058329;-0.34500
15061107;-0.34500
15063885;-0.32000
15066662;-0.32000
15069440;-0.31500
15072218;-0.31000
15074996;-0.29500
15077774;-0.29500
15080551;-0.29500
15083329;-0.29000
15086107;-0.29000
15088885;-0.27500
15091662;-0.27000
15094440;-0.25000
15097218;-0.25500
15099996;-0.27500
15102774;-0.28000
15105551;-0.27500
15108329;-0.27500
15111107;-0.26500
15113885;-0.27500
15116662;-0.27500
15119440;-0.28000
15122218;-0.28500
15124996;-0.29000
15127774;-0.28000
15130551;-0.26500
15133329;-0.27000
15136107;-0.26000
15138885;-0.27500
15141662;-0.28500
15144440;-0.30000
15147218;-0.32500
15149996;-0.35000
15152774;-0.37500
15155551;-0.37000
15158329;-0.37500
15161107;-0.37000
15163885;-0.39000
15166662;-0.39000
15169440;-0.41000
15172218;-0.39500
15174996;-0.38000
15177774;-0.37000
15180551;-0.38500
15183329;-0.38500
15186107;-0.40000
15188885;-0.39000
15191662;-0.39000
15194440;-0.37500
15197218;-0.38500
15199996;-0.38500
15202774;-0.39500
15205551;-0.39000
15208329;-0.38000
15211107;-0.37500
15213885;-0.37500
15216662;-0.38500
15219440;-0.39000
15222218;-0.39000
15224996;-0.38500
15227774;-0.40000
15230551;-0.44000
15233329;-0.47000
15236107;-0.50000
15238885;-0.49500
15241662;-0.50500
15244440;-0.55000
15247218;-0.59500
15249996;-0.59500
15252774;-0.52500
15255551;-0.40500
15258329;-0.28000
15261107;-0.14500
15263885;0.03500
15266662;0.27500
15269440;0.52500
15272218;0.74500
15274996;0.85000
15277774;0.81500
15280551;0.58500
15283329;0.20500
15286107;-0.17500
15288885;-0.39500
15291662;-0.48000
15294440;-0.49000
15297218;-0.47000
15299996;-0.43000
15302773;-0.42500
15305551;-0.41000
15308329;-0.41000
15311107;-0.39500
15313885;-0.40000
15316662;-0.40000
15319440;-0.41500
15322218;-0.40500
15324996;-0.40500
15327773;-0.40500
15330551;-0.41000
15333329;-0.41500
15336107;-0.42000
15338885;-0.41000
15341662;-0.41000
15344440;-0.40500
15347218;-0.39500
15349996;-0.40000
15352773;-0.41000
15355551;-0.40000
15358329;-0.40500
15361107;-0.40000
15363885;-0.40000
15366662;-0.40000
15369440;-0.41000
15372218;-0.40500
15374996;-0.39500
15377773;-0.38500
15380551;-0.40500
15383329;-0.41000
15386107;-0.41500
15388885;-0.41000
15391662;-0.40000
15394440;-0.39500
15397218;-0.39500
15399996;-0.39500
15402773;-0.41000
15405551;-0.40500
15408329;-0.39500
15411107;-0.40000
15413885;-0.39000
15416662;-0.40000
15419440;-0.41500
15422218;-0.41000
15424996;-0.40500
15427773;-0.39500
15430551;-0.40500
15433329;-0.41000
15436107;-0.42500
15438885;-0.41000
15441662;-0.42000
15444440;-0.41000
15447218;-0.41000
15449996;-0.40500
15452773;-0.41000
15455551;-0.40500
15458329;-0.40500
15461107;-0.41000
15463885;-0.38500
15466662;-0.40000
15469440;-0.41000
15472218;-0.40500
15474996;-0.39000
15477773;-0.39000
15480551;-0.38000
15483329;-0.39500
15486107;-0.41000
15488885;-0.40500
15491662;-0.39500
15494440;-0.39000
15497218;-0.40000
15499996;-0.39500
15502773;-0.41500
15505551;-0.41500
15508329;-0.41000
15511107;-0.40500
15513885;-0.41000
15516662;-0.41500
15519440;-0.42500
15522218;-0.42000
15524996;-0.42500
15527773;-0.41500
15530551;-0.42500
15533329;-0.42500
15536107;-0.43500
15538885;-0.44000
15541662;-0.42500
15544440;-0.42500
15547218;-0.42500
15549996;-0.43500
15552773;-0.45000
15555551;-0.45000
15558329;-0.44000
15561107;-0.42000
15563885;-0.42500
15566662;-0.43000
15569440;-0.43000
15572218;-0.41500
15574996;-0.41000
15577773;-0.39000
15580551;-0.39500
15583329;-0.38000
15586107;-0.38000
15588885;-0.36000
15591662;-0.34000
15594440;-0.33000
15597218;-0.33000
15599996;-0.32000
15602773;-0.33500
15605551;-0.32000
15608329;-0.29500
15611107;-0.29000
15613885;-0.29000
15616662;-0.28500
15619440;-0.29500
15622218;-0.28500
15624996;-0.28000
15627773;-0.27000
15630551;-0.26500
15633329;-0.26500
15636107;-0.28500
15638885;-0.28500
15641662;-0.27000
15644440;-0.27000
15647218;-0.27000
15649996;-0.27500
15652773;-0.29000
15655551;-0.28000
15658329;-0.26500
15661107;-0.27000
15663885;-0.27500
15666662;-0.28500
15669440;-0.29500
15672218;-0.28500
15674996;-0.29000
15677773;-0.27500
15680551;-0.28000
15683329;-0.29500
15686107;-0.30500
15688884;-0.29000
15691662;-0.28000
15694440;-0.28000
15697218;-0.28500
15699996;-0.29000
15702773;-0.30500
15705551;-0.30000
15708329;-0.29500
15711107;-0.28000
15713884;-0.28500
15716662;-0.29500
15719440;-0.30500
15722218;-0.29000
15724996;-0.29000
15727773;-0.29000
15730551;-0.31000
15733329;-0.32000
15736107;-0.31000
15738884;-0.31500
15741662;-0.31000
15744440;-0.31000
15747218;-0.32000
15749996;-0.32000
15752773;-0.32500
15755551;-0.31000
15758329;-0.31000
15761107;-0.30500
15763884;-0.31500
15766662;-0.32000
15769440;-0.33000
15772218;-0.32500
15774996;-0.31500
15777773;-0.31500
15780551;-0.31500
15783329;-0.32500
15786107;-0.32000
15788884;-0.32500
15791662;-0.31500
15794440;-0.31500
15797218;-0.31000
15799996;-0.32000
15802773;-0.32500
15805551;-0.32500
15808329;-0.31500
15811107;-0.31000
15813884;-0.31000
15816662;-0.33000
15819440;-0.34000
15822218;-0.33000
15824996;-0.31000
15827773;-0.30500
15830551;-0.31500
15833329;-0.32500
15836107;-0.33500
15838884;-0.31500
15841662;-0.31000
15844440;-0.30500
15847218;-0.31000
15849996;-0.31500
15852773;-0.32000
15855551;-0.31000
15858329;-0.30500
15861107;-0.30000
15863884;-0.31000
15866662;-0.31500
15869440;-0.32500
15872218;-0.31000
15874996;-0.30000
15877773;-0.29500
15880551;-0.30000
15883329;-0.30000
15886107;-0.31000
15888884;-0.29500
15891662;-0.28000
15894440;-0.27000
15897218;-0.26000
15899996;-0.25500
15902773;-0.26500
15905551;-0.25000
15908329;-0.25000
15911107;-0.22500
15913884;-0.23500
15916662;-0.23500
15919440;-0.23500
15922218;-0.23000
15924996;-0.21500
15927773;-0.20500
15930551;-0.19000
15933329;-0.21000
15936107;-0.21500
15938884;-0.19500
15941662;-0.18500
15944440;-0.19500
15947218;-0.21000
15949996;-0.21000
15952773;-0.23000
15955551;-0.21500
15958329;-0.21000
15961107;-0.21500
15963884;-0.21500
15966662;-0.22000
15969440;-0.23000
15972218;-0.24000
15974996;-0.22000
15977773;-0.19500
15980551;-0.18500
15983329;-0.20500
15986107;-0.23000
15988884;-0.25500
15991662;-0.25500
15994440;-0.27000
15997218;-0.28500
15999996;-0.29500
16002773;-0.32000
16005551;-0.32000
16008329;-0.33000
16011107;-0.32500
16013884;-0.33000
16016662;-0.33000
16019440;-0.34000
16022218;-0.33000
16024996;-0.33500
16027773;-0.32500
16030551;-0.32500
16033329;-0.34000
16036107;-0.34500
16038884;-0.33500
16041662;-0.32500
16044440;-0.33000
16047218;-0.34000
16049996;-0.34500
16052773;-0.33500
16055551;-0.34500
16058329;-0.33000
16061107;-0.32500
16063884;-0.33000
16066662;-0.34000
16069440;-0.35500
16072218;-0.35500
16074995;-0.36000
16077773;-0.36000
16080551;-0.40500
16083329;-0.45000
16086107;-0.47500
16088884;-0.47500
16091662;-0.51000
16094440;-0.54500
16097218;-0.53000
16099995;-0.44500
16102773;-0.31500
16105551;-0.15500
16108329;0.00500
16111107;0.21000
16113884;0.47000
16116662;0.72000
16119440;0.87000
16122218;0.96000
16124995;0.91000
16127773;0.65000
16130551;0.23000
16133329;-0.16000
16136107;-0.40500
16138884;-0.47500
16141662;-0.44000
16144440;-0.39000
16147218;-0.35000
16149995;-0.35500
16152773;-0.37000
16155551;-0.36500
16158329;-0.36500
16161107;-0.36000
16163884;-0.35000
16166662;-0.37000
16169440;-0.38000
16172218;-0.37500
16174995;-0.36000
16177773;-0.35500
16180551;-0.36500
16183329;-0.37500
16186107;-0.38000
16188884;-0.36500
16191662;-0.36000
16194440;-0.36000
16197218;-0.36500
16199995;-0.37000
16202773;-0.38500
16205551;-0.38000
16208329;-0.37500
16211107;-0.36500
16213884;-0.37000
16216662;-0.39000
16219440;-0.39000
16222218;-0.38500
16224995;-0.38000
16227773;-0.37000
16230551;-0.36500
16233329;-0.38000
16236107;-0.39500
16238884;-0.38500
16241662;-0.37000
16244440;-0.36500
16247218;-0.36500
16249995;-0.38500
16252773;-0.38500
16255551;-0.37500
16258329;-0.36500
16261107;-0.37000
16263884;-0.37500
16266662;-0.37500
16269440;-0.37500
16272218;-0.36500
16274995;-0.37000
16277773;-0.36000
16280551;-0.36500
16283329;-0.36500
16286107;-0.37500
16288884;-0.37500
16291662;-0.36500
16294440;-0.37000
16297218;-0.37000
16299995;-0.36500
16302773;-0.38000
16305551;-0.37500
16308329;-0.38000
16311107;-0.37500
16313884;-0.37000
16316662;-0.37000
16319440;-0.38000
16322218;-0.37000
16324995;-0.36500
16327773;-0.36500
16330551;-0.36000
16333329;-0.36500
16336107;-0.37000
16338884;-0.36500
16341662;-0.36000
16344440;-0.35500
16347218;-0.35000
16349995;-0.35500
16352773;-0.37000
16355551;-0.36500
16358329;-0.36000
16361107;-0.35500
16363884;-0.36000
16366662;-0.37500
16369440;-0.38500
16372218;-0.37500
16374995;-0.38500
16377773;-0.37000
16380551;-0.38500
16383329;-0.39000
16386107;-0.39500
16388884;-0.39000
16391662;-0.39500
16394440;-0.38500
16397218;-0.39000
16399995;-0.38500
16402773;-0.39500
16405551;-0.38500
16408329;-0.38000
16411107;-0.37000
16413884;-0.36500
16416662;-0.37000
16419440;-0.37000
16422218;-0.36500
16424995;-0.35500
16427773;-0.34500
16430551;-0.34500
16433329;-0.35000
16436107;-0.35000
16438884;-0.34500
16441662;-0.32000
16444440;-0.31500
16447218;-0.31000
16449995;-0.33000
16452773;-0.31500
16455551;-0.31000
16458329;-0.30000
16461107;-0.29500
16463884;-0.29000
16466662;-0.29000
16469440;-0.30500
16472218;-0.28500
16474995;-0.28000
16477773;-0.26500
16480551;-0.26500
16483329;-0.27000
16486106;-0.28000
16488884;-0.26500
16491662;-0.26500
16494440;-0.25500
16497218;-0.25500
16499995;-0.26000
16502773;-0.27500
16505551;-0.27000
16508329;-0.27500
16511106;-0.25500
16513884;-0.26500
16516662;-0.27000
16519440;-0.28000
16522218;-0.27500
16524995;-0.27000
16527773;-0.27500
16530551;-0.28500
16533329;-0.28500
16536106;-0.30000
16538884;-0.29000
16541662;-0.28500
16544440;-0.29500
16547218;-0.29000
16549995;-0.29500
16552773;-0.31500
16555551;-0.30500
16558329;-0.30000
16561106;-0.29500
16563884;-0.30000
16566662;-0.31000
16569440;-0.32000
16572218;-0.31000
16574995;-0.29500
16577773;-0.29500
16580551;-0.29500
16583329;-0.31000
16586106;-0.30500
16588884;-0.31000
16591662;-0.30000
16594440;-0.29500
16597218;-0.30500
16599995;-0.31500
16602773;-0.32000
16605551;-0.31500
16608329;-0.30500
16611106;-0.30500
16613884;-0.32000
16616662;-0.33000
16619440;-0.33500
16622218;-0.32500
16624995;-0.33000
16627773;-0.32500
16630551;-0.32500
16633329;-0.33000
16636106;-0.34000
16638884;-0.34000
16641662;-0.33000
16644440;-0.33000
16647218;-0.33500
16649995;-0.33500
16652773;-0.34500
16655551;-0.33500
16658329;-0.32500
16661106;-0.31000
16663884;-0.32500
16666662;-0.33000
16669440;-0.34000
16672218;-0.34000
16674995;-0.32500
16677773;-0.32000
16680551;-0.33500
16683329;-0.33500
16686106;-0.34500
16688884;-0.34000
16691662;-0.32000
16694440;-0.32500
16697218;-0.32000
16699995;-0.33000
16702773;-0.34000
16705551;-0.34000
16708329;-0.33000
16711106;-0.31500
16713884;-0.32000
16716662;-0.34000
16719440;-0.34000
16722218;-0.33000
16724995;-0.31500
16727773;-0.31500
16730551;-0.30500
16733329;-0.31000
16736106;-0.31500
16738884;-0.30000
16741662;-0.27500
16744440;-0.25000
16747218;-0.25500
16749995;-0.25500
16752773;-0.27000
16755551;-0.26500
16758329;-0.24500
16761106;-0.24000
16763884;-0.22500
16766662;-0.22000
16769440;-0.22500
16772218;-0.22000
16774995;-0.22000
16777773;-0.21500
16780551;-0.21500
16783329;-0.23000
16786106;-0.25000
16788884;-0.24000
16791662;-0.23500
16794440;-0.23500
16797218;-0.23500
16799995;-0.25500
16802773;-0.26500
16805551;-0.24000
16808329;-0.22000
16811106;-0.21000
16813884;-0.24000
16816662;-0.27500
16819440;-0.30000
16822218;-0.30500
16824995;-0.31500
16827773;-0.32000
16830551;-0.33000
16833329;-0.35000
16836106;-0.36000
16838884;-0.37000
16841662;-0.35500
16844440;-0.35000
16847218;-0.34500
16849995;-0.34500
16852773;-0.35000
16855551;-0.34500
16858329;-0.35500
16861106;-0.35500
16863884;-0.35500
16866662;-0.36000
16869440;-0.38000
16872217;-0.37500
16874995;-0.37000
16877773;-0.36000
16880551;-0.35500
16883329;-0.36500
16886106;-0.37000
16888884;-0.36500
16891662;-0.37500
16894440;-0.37000
16897217;-0.37000
16899995;-0.39500
16902773;-0.40500
16905551;-0.40500
16908329;-0.41000
16911106;-0.44500
16913884;-0.47500
16916662;-0.52000
16919440;-0.56500
16922217;-0.60000
16924995;-0.57000
16927773;-0.49000
16930551;-0.33500
16933329;-0.18000
16936106;0.03000
16938884;0.34000
16941662;0.61000
16944440;0.78500
16947217;0.79500
16949995;0.62000
16952773;0.26000
16955551;-0.14500
16958329;-0.40500
16961106;-0.50000
16963884;-0.48500
16966662;-0.45500
16969440;-0.42000
16972217;-0.42500
16974995;-0.41000
16977773;-0.41500
16980551;-0.40000
16983329;-0.41500
16986106;-0.43000
16988884;-0.42500
16991662;-0.42500
16994440;-0.42500
16997217;-0.42000
16999995;-0.42000
17002773;-0.43000
17005551;-0.43000
17008329;-0.41500
17011106;-0.41000
17013884;-0.40500
17016662;-0.41000
17019440;-0.41500
17022217;-0.42500
17024995;-0.41500
17027773;-0.41000
17030551;-0.41500
17033329;-0.43000
17036106;-0.44500
17038884;-0.43500
17041662;-0.42500
17044440;-0.41500
17047217;-0.42500
17049995;-0.43500
17052773;-0.44000
17055551;-0.44000
17058329;-0.43500
17061106;-0.41500
17063884;-0.42000
17066662;-0.43000
17069440;-0.43500
17072217;-0.43000
17074995;-0.42500
17077773;-0.40500
17080551;-0.41500
17083329;-0.43000
17086106;-0.42500
17088884;-0.42000
17091662;-0.41000
17094440;-0.40500
17097217;-0.40500
17099995;-0.42500
17102773;-0.43500
17105551;-0.42500
17108329;-0.42000
17111106;-0.41500
17113884;-0.42500
17116662;-0.43000
17119440;-0.44500
17122217;-0.44500
17124995;-0.43000
17127773;-0.42000
17130551;-0.42500
17133329;-0.42500
17136106;-0.44000
17138884;-0.43000
17141662;-0.42500
17144440;-0.42000
17147217;-0.42000
17149995;-0.42000
17152773;-0.43500
17155551;-0.43500
17158329;-0.42500
17161106;-0.42000
17163884;-0.42000
17166662;-0.43000
17169440;-0.43000
17172217;-0.42000
17174995;-0.42500
17177773;-0.43500
17180551;-0.44000
17183329;-0.44000
17186106;-0.46500
17188884;-0.46000
17191662;-0.45500
17194440;-0.45000
17197217;-0.45000
17199995;-0.45500
17202773;-0.46500
17205551;-0.45500
17208329;-0.45500
17211106;-0.45500
17213884;-0.46000
17216662;-0.45500
17219440;-0.47000
17222217;-0.46000
17224995;-0.45000
17227773;-0.43500
17230551;-0.44000
17233329;-0.42000
17236106;-0.41500
17238884;-0.39500
17241662;-0.37500
17244440;-0.37000
17247217;-0.37500
17249995;-0.37000
17252773;-0.37000
17255551;-0.35500
17258329;-0.35000
17261106;-0.33500
17263884;-0.34500
17266662;-0.34000
17269440;-0.36000
17272217;-0.34000
17274995;-0.33000
17277773;-0.33000
17280551;-0.33500
17283328;-0.35000
17286106;-0.35500
17288884;-0.35000
17291662;-0.33500
17294440;-0.32000
17297217;-0.32500
17299995;-0.33000
17302773;-0.34500
17305551;-0.34500
17308328;-0.34000
17311106;-0.34000
17313884;-0.34000
17316662;-0.34000
17319440;-0.35500
17322217;-0.34000
17324995;-0.32500
17327773;-0.32500
17330551;-0.33000
17333328;-0.33500
17336106;-0.35500
17338884;-0.35500
17341662;-0.36500
17344440;-0.35000
17347217;-0.35500
17349995;-0.36000
17352773;-0.36500
17355551;-0.36500
17358328;-0.36000
17361106;-0.35500
17363884;-0.35000
17366662;-0.36000
17369440;-0.37000
17372217;-0.37000
17374995;-0.37000
17377773;-0.36000
17380551;-0.37500
17383328;-0.39000
17386106;-0.38500
17388884;-0.38000
17391662;-0.36500
17394440;-0.37000
17397217;-0.38000
17399995;-0.40000
17402773;-0.40000
17405551;-0.39500
17408328;-0.39500
17411106;-0.38000
17413884;-0.37500
17416662;-0.38500
17419440;-0.39000
17422217;-0.39000
17424995;-0.37500
17427773;-0.37000
17430551;-0.38000
17433328;-0.37000
17436106;-0.39500
17438884;-0.39500
17441662;-0.39500
17444440;-0.39000
17447217;-0.39000
17449995;-0.39500
17452773;-0.41000
17455551;-0.40500
17458328;-0.39000
17461106;-0.37500
17463884;-0.38000
17466662;-0.39500
17469440;-0.40500
17472217;-0.39500
17474995;-0.39500
17477773;-0.38500
17480551;-0.39000
17483328;-0.39000
17486106;-0.39500
17488884;-0.38500
17491662;-0.38500
17494440;-0.37500
17497217;-0.40000
17499995;-0.40000
17502773;-0.40500
17505551;-0.39500
17508328;-0.39000
17511106;-0.37500
17513884;-0.36000
17516662;-0.35500
17519440;-0.35500
17522217;-0.34500
17524995;-0.35000
17527773;-0.34000
17530551;-0.34000
17533328;-0.33500
17536106;-0.33000
17538884;-0.32000
17541662;-0.30500
17544440;-0.30000
17547217;-0.29500
17549995;-0.30000
17552773;-0.30500
17555551;-0.31500
17558328;-0.30500
17561106;-0.30000
17563884;-0.30500
17566662;-0.31500
17569440;-0.32000
17572217;-0.31500
17574995;-0.31500
17577773;-0.30500
17580551;-0.32500
17583328;-0.34500
17586106;-0.35500
17588884;-0.31000
17591662;-0.29500
17594440;-0.30000
17597217;-0.34000
17599995;-0.37000
17602773;-0.39000
17605551;-0.41000
17608328;-0.41000
17611106;-0.41500
17613884;-0.41000
17616662;-0.42500
17619440;-0.43500
17622217;-0.42500
17624995;-0.41000
17627773;-0.41500
17630551;-0.42000
17633328;-0.42500
17636106;-0.44000
17638884;-0.43000
17641662;-0.43500
17644440;-0.42000
17647217;-0.42000
17649995;-0.43500
17652773;-0.44000
17655551;-0.44000
17658328;-0.43500
17661106;-0.42500
17663884;-0.42500
17666662;-0.44500
17669439;-0.45500
17672217;-0.46500
17674995;-0.48500
17677773;-0.51000
17680551;-0.53000
17683328;-0.56000
17686106;-0.60000
17688884;-0.65500
17691662;-0.67500
17694439;-0.66500
17697217;-0.61000
17699995;-0.55500
17702773;-0.47000
17705551;-0.36000
17708328;-0.23500
17711106;-0.05500
17713884;0.20500
17716662;0.49500
17719439;0.71500
17722217;0.82500
17724995;0.74000
17727773;0.41500
17730551;-0.02500
17733328;-0.37500
17736106;-0.54500
17738884;-0.57000
17741662;-0.54000
17744439;-0.48500
17747217;-0.47000
17749995;-0.46000
17752773;-0.47000
17755551;-0.47500
17758328;-0.45500
17761106;-0.44500
17763884;-0.46000
17766662;-0.46500
17769439;-0.47000
17772217;-0.47000
17774995;-0.46500
17777773;-0.46000
17780551;-0.46500
17783328;-0.46000
17786106;-0.47000
17788884;-0.47000
17791662;-0.46500
17794439;-0.46000
17797217;-0.45500
17799995;-0.46500
17802773;-0.47500
17805551;-0.47000
17808328;-0.46000
17811106;-0.44000
17813884;-0.45500
17816662;-0.46000
17819439;-0.46500
17822217;-0.47000
17824995;-0.45500
17827773;-0.44000
17830551;-0.44500
17833328;-0.45500
17836106;-0.46500
17838884;-0.46000
17841662;-0.45000
17844439;-0.45000
17847217;-0.46000
17849995;-0.45500
17852773;-0.47000
17855551;-0.46000
17858328;-0.46000
17861106;-0.46500
17863884;-0.46000
17866662;-0.47500
17869439;-0.47000
17872217;-0.47500
17874995;-0.45500
17877773;-0.45000
17880551;-0.45500
17883328;-0.45500
17886106;-0.46500
17888884;-0.44500
17891662;-0.43500
17894439;-0.42500
17897217;-0.43500
17899995;-0.44000
17902773;-0.44500
17905551;-0.44500
17908328;-0.44000
17911106;-0.44500
17913884;-0.44500
17916662;-0.45000
17919439;-0.45500
17922217;-0.46000
17924995;-0.45000
17927773;-0.45000
17930551;-0.45000
17933328;-0.46500
17936106;-0.47500
17938884;-0.47500
17941662;-0.48500
17944439;-0.47000
17947217;-0.46500
17949995;-0.47000
17952773;-0.47500
17955551;-0.48000
17958328;-0.48000
17961106;-0.46500
17963884;-0.48000
17966662;-0.48500
17969439;-0.50000
17972217;-0.49500
17974995;-0.48500
17977773;-0.48000
17980551;-0.48000
17983328;-0.49000
17986106;-0.48500
17988884;-0.47500
17991662;-0.46500
17994439;-0.45000
17997217;-0.45000
17999995;-0.44500
18002773;-0.44000
18005551;-0.41500
18008328;-0.41500
18011106;-0.38500
18013884;-0.37000
18016662;-0.38000
18019439;-0.38500
18022217;-0.37000
18024995;-0.35500
18027773;-0.34500
18030551;-0.33500
18033328;-0.34000
18036106;-0.35000
18038884;-0.35000
18041662;-0.35000
18044439;-0.33000
18047217;-0.33000
18049995;-0.33500
18052773;-0.34000
18055550;-0.33000
18058328;-0.32500
18061106;-0.31000
18063884;-0.32000
18066662;-0.33000
18069439;-0.34000
18072217;-0.34000
18074995;-0.33500
18077773;-0.33500
18080550;-0.33500
18083328;-0.33500
18086106;-0.34500
18088884;-0.34500
18091662;-0.34500
18094439;-0.33000
18097217;-0.33500
18099995;-0.34500
18102773;-0.36000
18105550;-0.34500
18108328;-0.34000
18111106;-0.33500
18113884;-0.33000
18116662;-0.33500
18119439;-0.35500
18122217;-0.35500
18124995;-0.34000
18127773;-0.33500
18130550;-0.34500
18133328;-0.34000
18136106;-0.35500
18138884;-0.35500
18141662;-0.35000
18144439;-0.34000
18147217;-0.35500
18149995;-0.36000
18152773;-0.37000
18155550;-0.37500
18158328;-0.35500
18161106;-0.35500
18163884;-0.35500
18166662;-0.37000
18169439;-0.37500
18172217;-0.37500
18174995;-0.36500
18177773;-0.36000
18180550;-0.37000
18183328;-0.36500
18186106;-0.38500
18188884;-0.37000
18191662;-0.37500
18194439;-0.36000
18197217;-0.36500
18199995;-0.36500
18202773;-0.37500
18205550;-0.37000
18208328;-0.36500
18211106;-0.35500
18213884;-0.35500
18216662;-0.36500
18219439;-0.36500
18222217;-0.37000
18224995;-0.36500
18227773;-0.35500
18230550;-0.35000
18233328;-0.37000
18236106;-0.37500
18238884;-0.37500
18241662;-0.35500
18244439;-0.34500
18247217;-0.35500
18249995;-0.36000
18252773;-0.38000
18255550;-0.37000
18258328;-0.36500
18261106;-0.36000
18263884;-0.36000
18266662;-0.37000
18269439;-0.36500
18272217;-0.37000
18274995;-0.36500
18277773;-0.35000
18280550;-0.34500
18283328;-0.35500
18286106;-0.36000
18288884;-0.34000
18291662;-0.32500
18294439;-0.29000
18297217;-0.29500
18299995;-0.29000
18302773;-0.30000
18305550;-0.29000
18308328;-0.28000
18311106;-0.26500
18313884;-0.26500
18316662;-0.26000
18319439;-0.27500
18322217;-0.25500
18324995;-0.25000
18327773;-0.25000
18330550;-0.25000
18333328;-0.27000
18336106;-0.28500
18338884;-0.28000
18341662;-0.26500
18344439;-0.26000
18347217;-0.27000
18349995;-0.30500
18352773;-0.30500
18355550;-0.29000
18358328;-0.25500
18361106;-0.22500
18363884;-0.24500
18366662;-0.27000
18369439;-0.31500
18372217;-0.32500
18374995;-0.32500
18377773;-0.33000
18380550;-0.34500
18383328;-0.36000
18386106;-0.37500
18388884;-0.37500
18391662;-0.37500
18394439;-0.36000
18397217;-0.37000
18399995;-0.37500
18402773;-0.37500
18405550;-0.37500
18408328;-0.38500
18411106;-0.38500
18413884;-0.38000
18416662;-0.39000
18419439;-0.39500
18422217;-0.39000
18424995;-0.40000
18427773;-0.39500
18430550;-0.38000
18433328;-0.39500
18436106;-0.40000
18438884;-0.40000
18441662;-0.41000
18444439;-0.42500
18447217;-0.45500
18449995;-0.50000
18452773;-0.53500
18455550;-0.56500
18458328;-0.59000
18461106;-0.58000
18463884;-0.48500
18466661;-0.35000
18469439;-0.20000
18472217;0.00000
18474995;0.25500
18477773;0.55000
18480550;0.80000
18483328;0.94000
18486106;0.95500
18488884;0.84000
18491661;0.58000
18494439;0.22500
18497217;-0.11500
18499995;-0.38000
18502773;-0.53500
18505550;-0.56500
18508328;-0.53000
18511106;-0.47500
18513884;-0.42000
18516661;-0.42000
18519439;-0.43500
18522217;-0.44000
18524995;-0.42500
18527773;-0.42500
18530550;-0.42500
18533328;-0.43000
18536106;-0.45000
18538884;-0.44000
18541661;-0.43000
18544439;-0.42500
18547217;-0.42500
18549995;-0.44500
18552773;-0.46000
18555550;-0.45000
18558328;-0.44000
18561106;-0.43000
18563884;-0.43500
18566661;-0.44000
18569439;-0.44500
18572217;-0.44000
18574995;-0.42500
18577773;-0.42500
18580550;-0.42500
18583328;-0.43500
18586106;-0.45000
18588884;-0.43500
18591661;-0.43000
18594439;-0.42500
18597217;-0.42500
18599995;-0.44000
18602773;-0.45000
18605550;-0.44500
18608328;-0.43000
18611106;-0.43000
18613884;-0.42500
18616661;-0.43500
18619439;-0.44000
18622217;-0.43500
18624995;-0.43500
18627773;-0.43000
18630550;-0.42000
18633328;-0.44000
18636106;-0.45000
18638884;-0.44500
18641661;-0.43500
18644439;-0.42000
18647217;-0.42500
18649995;-0.43000
18652773;-0.43500
18655550;-0.43000
18658328;-0.42500
18661106;-0.43500
18663884;-0.42500
18666661;-0.41500
18669439;-0.43500
18672217;-0.43500
18674995;-0.42500
18677773;-0.41500
18680550;-0.41000
18683328;-0.42500
18686106;-0.42000
18688884;-0.42500
18691661;-0.41500
18694439;-0.41000
18697217;-0.40000
18699995;-0.42000
18702773;-0.43500
18705550;-0.42500
18708328;-0.42000
18711106;-0.41000
18713884;-0.41500
18716661;-0.42500
18719439;-0.44000
18722217;-0.43000
18724995;-0.42000
18727773;-0.42500
18730550;-0.42000
18733328;-0.41500
18736106;-0.44000
18738884;-0.44000
18741661;-0.43500
18744439;-0.43500
18747217;-0.43000
18749995;-0.43500
18752773;-0.44500
18755550;-0.43500
18758328;-0.43000
18761106;-0.42500
18763884;-0.42500
18766661;-0.42500
18769439;-0.42500
18772217;-0.41500
18774995;-0.40500
18777773;-0.39000
18780550;-0.38000
18783328;-0.38000
18786106;-0.39000
18788884;-0.38000
18791661;-0.36000
18794439;-0.35000
18797217;-0.34000
18799995;-0.34500
18802773;-0.35500
18805550;-0.34500
18808328;-0.33500
18811106;-0.32500
18813884;-0.31500
18816661;-0.32000
18819439;-0.33500
18822217;-0.32500
18824995;-0.31000
18827773;-0.31500
18830550;-0.31500
18833328;-0.33000
18836106;-0.33000
18838884;-0.33500
18841661;-0.32500
18844439;-0.32500
18847217;-0.32000
18849995;-0.32000
18852772;-0.34000
18855550;-0.33500
18858328;-0.33500
18861106;-0.33000
18863884;-0.32500
18866661;-0.34000
18869439;-0.35000
18872217;-0.34500
18874995;-0.33500
18877772;-0.33500
18880550;-0.34000
18883328;-0.34500
18886106;-0.36000
18888884;-0.35500
18891661;-0.34000
18894439;-0.34000
18897217;-0.34000
18899995;-0.36000
18902772;-0.38000
18905550;-0.36000
18908328;-0.35000
18911106;-0.36000
18913884;-0.34000
18916661;-0.35500
18919439;-0.37000
18922217;-0.37000
18924995;-0.35500
18927772;-0.35500
18930550;-0.35500
18933328;-0.37000
18936106;-0.36500
18938884;-0.37000
18941661;-0.37000
18944439;-0.35500
18947217;-0.36000
18949995;-0.36000
18952772;-0.38500
18955550;-0.37500
18958328;-0.37500
18961106;-0.36500
18963884;-0.36500
18966661;-0.37000
18969439;-0.38500
18972217;-0.38500
18974995;-0.37500
18977772;-0.36500
18980550;-0.37000
18983328;-0.37000
18986106;-0.38500
18988884;-0.37500
18991661;-0.37000
18994439;-0.36500
18997217;-0.37000
18999995;-0.37000
19002772;-0.39500
19005550;-0.39000
19008328;-0.38500
19011106;-0.36500
19013884;-0.37000
19016661;-0.37500
19019439;-0.38000
19022217;-0.37500
19024995;-0.37000
19027772;-0.36000
19030550;-0.36500
19033328;-0.39000
19036106;-0.38000
19038884;-0.37500
19041661;-0.37000
19044439;-0.36000
19047217;-0.35500
19049995;-0.36500
19052772;-0.36000
19055550;-0.33000
19058328;-0.31500
19061106;-0.30000
19063884;-0.30500
19066661;-0.31000
19069439;-0.31500
19072217;-0.29500
19074995;-0.28500
19077772;-0.26500
19080550;-0.26500
19083328;-0.27000
19086106;-0.28500
19088884;-0.27500
19091661;-0.27500
19094439;-0.27000
19097217;-0.28000
19099995;-0.29500
19102772;-0.31000
19105550;-0.29500
19108328;-0.29500
19111106;-0.30000
19113884;-0.30000
19116661;-0.31500
19119439;-0.30500
19122217;-0.27500
19124995;-0.25500
19127772;-0.24000
19130550;-0.26000
19133328;-0.29000
19136106;-0.31500
19138884;-0.32000
19141661;-0.32500
19144439;-0.33000
19147217;-0.35500
19149995;-0.36500
19152772;-0.38500
19155550;-0.38000
19158328;-0.39000
