time_ms;ecg_value
0;-0.50000
2778;-0.49500
5556;-0.49000
8333;-0.49000
11111;-0.49500
13889;-0.51000
16667;-0.47500
19444;-0.47500
22222;-0.48000
25000;-0.46500
27778;-0.46000
30556;-0.43500
33333;-0.42500
36111;-0.41500
38889;-0.39500
41667;-0.37500
44444;-0.37000
47222;-0.37000
50000;-0.36500
52778;-0.35000
55556;-0.34000
58333;-0.33000
61111;-0.33000
63889;-0.34000
66667;-0.32500
69444;-0.33000
72222;-0.31500
75000;-0.32000
77778;-0.33000
80556;-0.33500
83333;-0.33500
86111;-0.32000
88889;-0.31500
91667;-0.31000
94444;-0.31500
97222;-0.32500
100000;-0.32000
102778;-0.31000
105556;-0.31000
108333;-0.32000
111111;-0.33000
113889;-0.34000
116667;-0.32000
119444;-0.31500
122222;-0.30500
125000;-0.32000
127778;-0.33000
130556;-0.34500
133333;-0.33500
136111;-0.33500
138889;-0.33500
141667;-0.34000
144444;-0.35000
147222;-0.35500
150000;-0.35000
152778;-0.34000
155556;-0.33000
158333;-0.33500
161111;-0.35000
163889;-0.35500
166667;-0.34500
169444;-0.34000
172222;-0.34000
175000;-0.34000
177778;-0.35500
180556;-0.35000
183333;-0.34500
186111;-0.34000
188889;-0.33500
191667;-0.35000
194444;-0.35000
197222;-0.36000
200000;-0.36500
202778;-0.34500
205555;-0.35500
208333;-0.34500
211111;-0.35500
213889;-0.36500
216667;-0.35500
219444;-0.35000
222222;-0.35500
225000;-0.36500
227778;-0.35000
230555;-0.36500
233333;-0.35500
236111;-0.34500
238889;-0.34000
241667;-0.34500
244444;-0.35000
247222;-0.34500
250000;-0.34500
252778;-0.33500
255555;-0.32500
258333;-0.33500
261111;-0.34500
263889;-0.35500
266667;-0.33000
269444;-0.32500
272222;-0.32500
275000;-0.34000
277778;-0.34500
280555;-0.35000
283333;-0.34500
286111;-0.34000
288889;-0.34000
291667;-0.35500
294444;-0.35500
297222;-0.35000
300000;-0.35000
302778;-0.34000
305555;-0.34000
308333;-0.33000
311111;-0.34000
313889;-0.37000
316667;-0.33500
319444;-0.31000
322222;-0.30000
325000;-0.29500
327778;-0.29500
330555;-0.28500
333333;-0.27000
336111;-0.26500
338889;-0.26500
341667;-0.25500
344444;-0.24500
347222;-0.24000
350000;-0.24500
352778;-0.22500
355555;-0.20500
358333;-0.21000
361111;-0.23000
363889;-0.23000
366667;-0.23500
369444;-0.23000
372222;-0.23000
375000;-0.24500
377778;-0.25500
380555;-0.26500
383333;-0.26000
386111;-0.24500
388889;-0.26500
391667;-0.25500
394444;-0.26000
397222;-0.24500
400000;-0.22000
402778;-0.21500
405555;-0.24000
408333;-0.28000
411111;-0.29500
413889;-0.31000
416667;-0.32500
419444;-0.34000
422222;-0.33000
425000;-0.35000
427778;-0.34500
430555;-0.35500
433333;-0.36500
436111;-0.35500
438889;-0.34000
441667;-0.35000
444444;-0.37000
447222;-0.37000
450000;-0.37500
452778;-0.36000
455555;-0.35000
458333;-0.35500
461111;-0.36500
463889;-0.37000
466667;-0.36500
469444;-0.35000
472222;-0.35000
475000;-0.35000
477778;-0.35000
480555;-0.36500
483333;-0.36000
486111;-0.34500
488889;-0.35000
491667;-0.36000
494444;-0.40500
497222;-0.43500
500000;-0.46500
502778;-0.46500
505555;-0.47000
508333;-0.47500
511111;-0.50000
513889;-0.55500
516667;-0.58500
519444;-0.58500
522222;-0.50000
525000;-0.37500
527778;-0.22000
530555;-0.07000
533333;0.16000
536111;0.43500
538889;0.71500
541667;0.94500
544444;1.05500
547222;1.02500
550000;0.78000
552778;0.35000
555555;-0.09000
558333;-0.41500
561111;-0.50500
563889;-0.48000
566667;-0.42500
569444;-0.38500
572222;-0.36500
575000;-0.37000
577778;-0.38500
580555;-0.38000
583333;-0.37000
586111;-0.36500
588889;-0.38000
591667;-0.38000
594444;-0.39000
597222;-0.39000
600000;-0.39500
602778;-0.39000
605555;-0.39000
608333;-0.38000
611111;-0.39500
613889;-0.40500
616666;-0.39000
619444;-0.39000
622222;-0.38500
625000;-0.39000
627778;-0.39000
630555;-0.39500
633333;-0.40000
636111;-0.38500
638889;-0.38000
641666;-0.38000
644444;-0.37000
647222;-0.40000
650000;-0.38500
652778;-0.37500
655555;-0.38000
658333;-0.38000
661111;-0.38000
663889;-0.39500
666666;-0.39000
669444;-0.38000
672222;-0.38000
675000;-0.38500
677778;-0.39000
680555;-0.39500
683333;-0.40500
686111;-0.39000
688889;-0.39000
691666;-0.38000
694444;-0.38500
697222;-0.39000
700000;-0.38500
702778;-0.37500
705555;-0.38000
708333;-0.39000
711111;-0.37500
713889;-0.39000
716666;-0.38500
719444;-0.38000
722222;-0.37500
725000;-0.38500
727778;-0.37500
730555;-0.38500
733333;-0.39000
736111;-0.39000
738889;-0.39000
741666;-0.38500
744444;-0.39500
747222;-0.41000
750000;-0.39500
752778;-0.39000
755555;-0.40000
758333;-0.39500
761111;-0.41000
763889;-0.42000
766666;-0.41000
769444;-0.40500
772222;-0.40500
775000;-0.41000
777778;-0.42000
780555;-0.43000
783333;-0.43000
786111;-0.42000
788889;-0.41000
791666;-0.41500
794444;-0.43000
797222;-0.44000
800000;-0.44000
802778;-0.41500
805555;-0.41000
808333;-0.41000
811111;-0.42000
813889;-0.42000
816666;-0.40500
819444;-0.38500
822222;-0.37500
825000;-0.34500
827778;-0.35000
830555;-0.34500
833333;-0.33000
836111;-0.31000
838889;-0.31000
841666;-0.30000
844444;-0.29500
847222;-0.30000
850000;-0.28000
852778;-0.29000
855555;-0.27500
858333;-0.26500
861111;-0.27500
863889;-0.27000
866666;-0.26500
869444;-0.26000
872222;-0.25000
875000;-0.24500
877778;-0.25500
880555;-0.27000
883333;-0.26500
886111;-0.25500
888889;-0.26000
891666;-0.26000
894444;-0.27000
897222;-0.27500
900000;-0.27500
902778;-0.26500
905555;-0.25500
908333;-0.26000
911111;-0.26500
913889;-0.28000
916666;-0.26500
919444;-0.26000
922222;-0.26500
925000;-0.25500
927778;-0.26500
930555;-0.28000
933333;-0.26500
936111;-0.27000
938889;-0.27000
941666;-0.27000
944444;-0.29500
947222;-0.29000
950000;-0.29500
952778;-0.29000
955555;-0.29500
958333;-0.29000
961111;-0.30500
963889;-0.29500
966666;-0.29500
969444;-0.28500
972222;-0.28500
975000;-0.29500
977778;-0.31000
980555;-0.30500
983333;-0.30500
986111;-0.30000
988889;-0.29000
991666;-0.29000
994444;-0.30000
997222;-0.30500
1000000;-0.31000
1002777;-0.30000
1005555;-0.29000
1008333;-0.30000
1011111;-0.30500
1013889;-0.31500
1016666;-0.30500
1019444;-0.30500
1022222;-0.30000
1025000;-0.31000
1027777;-0.32000
1030555;-0.32500
1033333;-0.31000
1036111;-0.31000
1038889;-0.30500
1041666;-0.31500
1044444;-0.31500
1047222;-0.33000
1050000;-0.31000
1052777;-0.30500
1055555;-0.30500
1058333;-0.30000
1061111;-0.31500
1063889;-0.32000
1066666;-0.30000
1069444;-0.29500
1072222;-0.28500
1075000;-0.29500
1077777;-0.31500
1080555;-0.31500
1083333;-0.30500
1086111;-0.29500
1088889;-0.30500
1091666;-0.29500
1094444;-0.31000
1097222;-0.31500
1100000;-0.30000
1102777;-0.30500
1105555;-0.29000
1108333;-0.30000
1111111;-0.31000
1113889;-0.30500
1116666;-0.30000
1119444;-0.27500
1122222;-0.27000
1125000;-0.27000
1127777;-0.25500
1130555;-0.24000
1133333;-0.24000
1136111;-0.23000
1138889;-0.23000
1141666;-0.22500
1144444;-0.23500
1147222;-0.24000
1150000;-0.21500
1152777;-0.22000
1155555;-0.20500
1158333;-0.19500
1161111;-0.19500
1163889;-0.20000
1166666;-0.20000
1169444;-0.19500
1172222;-0.19500
1175000;-0.20500
1177777;-0.22000
1180555;-0.23000
1183333;-0.21500
1186111;-0.21500
1188889;-0.22500
1191666;-0.23500
1194444;-0.24500
1197222;-0.23000
1200000;-0.20000
1202777;-0.19500
1205555;-0.22000
1208333;-0.26000
1211111;-0.28000
1213889;-0.30500
1216666;-0.31500
1219444;-0.30500
1222222;-0.31000
1225000;-0.32000
1227777;-0.33500
1230555;-0.34000
1233333;-0.34500
1236111;-0.33000
1238889;-0.32000
1241666;-0.32500
1244444;-0.32500
1247222;-0.34500
1250000;-0.34000
1252777;-0.32500
1255555;-0.33500
1258333;-0.33000
1261111;-0.33000
1263889;-0.34000
1266666;-0.34000
1269444;-0.34500
1272222;-0.34500
1275000;-0.35000
1277777;-0.35500
1280555;-0.36000
1283333;-0.36000
1286111;-0.35500
1288889;-0.35500
1291666;-0.36000
1294444;-0.39500
1297222;-0.45500
1300000;-0.48000
1302777;-0.49500
1305555;-0.51500
1308333;-0.57000
1311111;-0.56000
1313889;-0.49500
1316666;-0.34000
1319444;-0.14500
1322222;0.06500
1325000;0.31000
1327777;0.58500
1330555;0.87500
1333333;1.08500
1336111;1.17000
1338889;1.07500
1341666;0.73500
1344444;0.24000
1347222;-0.21000
1350000;-0.45000
1352777;-0.48000
1355555;-0.41000
1358333;-0.35500
1361111;-0.34500
1363889;-0.36500
1366666;-0.37000
1369444;-0.37000
1372222;-0.37000
1375000;-0.37000
1377777;-0.39500
1380555;-0.40000
1383333;-0.40500
1386111;-0.39000
1388888;-0.39000
1391666;-0.38500
1394444;-0.40500
1397222;-0.41500
1400000;-0.42000
1402777;-0.40500
1405555;-0.40000
1408333;-0.40000
1411111;-0.41500
1413888;-0.41500
1416666;-0.41500
1419444;-0.41000
1422222;-0.41000
1425000;-0.40500
1427777;-0.42000
1430555;-0.41500
1433333;-0.41000
1436111;-0.40500
1438888;-0.40000
1441666;-0.40000
1444444;-0.40000
1447222;-0.41000
1450000;-0.41000
1452777;-0.41000
1455555;-0.39000
1458333;-0.39000
1461111;-0.40000
1463888;-0.41000
1466666;-0.40000
1469444;-0.38000
1472222;-0.38500
1475000;-0.38500
1477777;-0.40000
1480555;-0.42000
1483333;-0.41000
1486111;-0.40000
1488888;-0.40500
1491666;-0.40000
1494444;-0.41000
1497222;-0.41500
1500000;-0.41000
1502777;-0.40500
1505555;-0.40000
1508333;-0.39500
1511111;-0.40500
1513888;-0.40500
1516666;-0.40500
1519444;-0.40000
1522222;-0.38000
1525000;-0.39500
1527777;-0.40500
1530555;-0.40500
1533333;-0.40000
1536111;-0.39500
1538888;-0.39500
1541666;-0.39500
1544444;-0.39500
1547222;-0.41000
1550000;-0.41500
1552777;-0.41500
1555555;-0.41000
1558333;-0.42000
1561111;-0.42500
1563888;-0.42500
1566666;-0.43500
1569444;-0.43000
1572222;-0.41000
1575000;-0.41500
1577777;-0.42500
1580555;-0.44000
1583333;-0.43000
1586111;-0.43000
1588888;-0.42000
1591666;-0.42000
1594444;-0.42000
1597222;-0.42000
1600000;-0.41500
1602777;-0.41000
1605555;-0.40000
1608333;-0.40500
1611111;-0.40500
1613888;-0.41500
1616666;-0.39500
1619444;-0.38000
1622222;-0.36500
1625000;-0.35500
1627777;-0.36000
1630555;-0.36000
1633333;-0.34500
1636111;-0.33500
1638888;-0.32000
1641666;-0.31000
1644444;-0.32000
1647222;-0.32000
1650000;-0.30500
1652777;-0.30000
1655555;-0.29000
1658333;-0.30000
1661111;-0.30000
1663888;-0.30000
1666666;-0.28500
1669444;-0.28000
1672222;-0.28500
1675000;-0.28500
1677777;-0.29000
1680555;-0.29500
1683333;-0.29500
1686111;-0.28500
1688888;-0.28000
1691666;-0.28500
1694444;-0.29500
1697222;-0.30000
1700000;-0.30500
1702777;-0.30000
1705555;-0.29500
1708333;-0.30000
1711111;-0.31000
1713888;-0.32000
1716666;-0.31500
1719444;-0.31000
1722222;-0.31000
1725000;-0.32000
1727777;-0.31500
1730555;-0.33000
1733333;-0.31500
1736111;-0.31500
1738888;-0.30500
1741666;-0.32500
1744444;-0.32500
1747222;-0.33500
1750000;-0.33500
1752777;-0.31500
1755555;-0.31500
1758333;-0.33000
1761111;-0.33000
1763888;-0.35000
1766666;-0.33500
1769444;-0.33500
1772222;-0.33000
1775000;-0.33500
1777777;-0.34500
1780555;-0.35000
1783333;-0.34500
1786111;-0.34500
1788888;-0.34500
1791666;-0.35000
1794444;-0.35500
1797222;-0.37000
1799999;-0.36000
1802777;-0.35000
1805555;-0.34500
1808333;-0.34500
1811111;-0.35000
1813888;-0.35500
1816666;-0.35000
1819444;-0.35000
1822222;-0.33500
1824999;-0.34000
1827777;-0.34500
1830555;-0.35000
1833333;-0.34500
1836111;-0.34500
1838888;-0.33500
1841666;-0.33500
1844444;-0.35000
1847222;-0.35500
1849999;-0.36000
1852777;-0.34000
1855555;-0.34000
1858333;-0.34000
1861111;-0.34000
1863888;-0.35500
1866666;-0.34500
1869444;-0.33500
1872222;-0.33500
1874999;-0.33500
1877777;-0.34000
1880555;-0.36000
1883333;-0.35000
1886111;-0.33500
1888888;-0.32000
1891666;-0.33000
1894444;-0.33500
1897222;-0.35000
1899999;-0.32000
1902777;-0.30500
1905555;-0.29500
1908333;-0.29000
1911111;-0.28500
1913888;-0.28500
1916666;-0.27500
1919444;-0.25500
1922222;-0.25500
1924999;-0.24500
1927777;-0.25500
1930555;-0.26500
1933333;-0.25000
1936111;-0.24000
1938888;-0.22500
1941666;-0.22500
1944444;-0.22000
1947222;-0.23000
1949999;-0.22500
1952777;-0.21500
1955555;-0.21500
1958333;-0.23500
1961111;-0.25500
1963888;-0.26500
1966666;-0.26000
1969444;-0.25000
1972222;-0.25000
1974999;-0.26500
1977777;-0.26000
1980555;-0.26000
1983333;-0.22500
1986111;-0.22000
1988888;-0.23500
1991666;-0.26000
1994444;-0.28000
1997222;-0.30000
1999999;-0.31500
2002777;-0.32500
2005555;-0.32000
2008333;-0.33500
2011111;-0.34000
2013888;-0.35000
2016666;-0.34500
2019444;-0.34000
2022222;-0.33000
2024999;-0.34500
2027777;-0.36500
2030555;-0.38000
2033333;-0.37000
2036111;-0.36000
2038888;-0.35500
2041666;-0.36500
2044444;-0.36500
2047222;-0.38000
2049999;-0.37500
2052777;-0.35500
2055555;-0.36500
2058333;-0.37000
2061111;-0.39000
2063888;-0.37500
2066666;-0.37500
2069444;-0.38000
2072222;-0.37500
2074999;-0.40500
2077777;-0.45500
2080555;-0.50000
2083333;-0.50500
2086111;-0.52000
2088888;-0.53500
2091666;-0.59000
2094444;-0.63500
2097222;-0.64000
2099999;-0.59000
2102777;-0.47500
2105555;-0.34000
2108333;-0.19500
2111111;-0.03500
2113888;0.16500
2116666;0.45000
2119444;0.74000
2122222;0.96000
2124999;1.06000
2127777;1.02000
2130555;0.76500
2133333;0.34500
2136111;-0.09000
2138888;-0.38500
2141666;-0.48000
2144444;-0.47500
2147222;-0.43000
2149999;-0.38000
2152777;-0.37000
2155555;-0.36500
2158333;-0.39000
2161111;-0.39000
2163888;-0.39500
2166666;-0.40000
2169444;-0.39500
2172222;-0.39000
2174999;-0.39500
2177777;-0.39500
2180555;-0.41500
2183333;-0.42500
2186110;-0.40500
2188888;-0.40000
2191666;-0.39000
2194444;-0.40000
2197222;-0.41000
2199999;-0.42000
2202777;-0.40500
2205555;-0.40000
2208333;-0.39500
2211110;-0.40000
2213888;-0.41000
2216666;-0.40500
2219444;-0.41000
2222222;-0.39000
2224999;-0.39500
2227777;-0.41000
2230555;-0.39500
2233333;-0.40000
2236110;-0.40500
2238888;-0.40000
2241666;-0.38500
2244444;-0.40000
2247222;-0.42000
2249999;-0.41500
2252777;-0.40500
2255555;-0.39500
2258333;-0.40000
2261110;-0.40500
2263888;-0.41500
2266666;-0.39500
2269444;-0.39000
2272222;-0.39000
2274999;-0.40000
2277777;-0.39500
2280555;-0.39500
2283333;-0.39500
2286110;-0.38500
2288888;-0.38000
2291666;-0.38500
2294444;-0.38500
2297222;-0.38500
2299999;-0.38500
2302777;-0.38500
2305555;-0.39000
2308333;-0.38000
2311110;-0.39500
2313888;-0.40500
2316666;-0.39000
2319444;-0.38500
2322222;-0.38000
2324999;-0.39500
2327777;-0.40000
2330555;-0.40000
2333333;-0.40500
2336110;-0.39500
2338888;-0.40000
2341666;-0.39500
2344444;-0.41000
2347222;-0.42500
2349999;-0.41500
2352777;-0.40000
2355555;-0.41000
2358333;-0.40500
2361110;-0.42000
2363888;-0.42500
2366666;-0.41500
2369444;-0.41500
2372222;-0.40500
2374999;-0.41000
2377777;-0.42500
2380555;-0.45000
2383333;-0.43000
2386110;-0.42500
2388888;-0.40500
2391666;-0.41000
2394444;-0.40000
2397222;-0.43000
2399999;-0.43000
2402777;-0.40500
2405555;-0.40000
2408333;-0.39000
2411110;-0.39000
2413888;-0.39500
2416666;-0.39500
2419444;-0.39500
2422222;-0.38500
2424999;-0.38000
2427777;-0.38000
2430555;-0.38500
2433333;-0.37000
2436110;-0.36500
2438888;-0.33500
2441666;-0.34000
2444444;-0.33000
2447222;-0.36000
2449999;-0.34500
2452777;-0.32500
2455555;-0.31500
2458333;-0.32500
2461110;-0.32500
2463888;-0.32500
2466666;-0.31500
2469444;-0.30500
2472222;-0.29500
2474999;-0.30500
2477777;-0.32000
2480555;-0.34000
2483333;-0.34500
2486110;-0.33500
2488888;-0.31500
2491666;-0.31500
2494444;-0.31000
2497222;-0.32500
2499999;-0.34000
2502777;-0.33500
2505555;-0.33500
2508333;-0.33000
2511110;-0.34500
2513888;-0.35000
2516666;-0.34500
2519444;-0.34000
2522222;-0.33500
2524999;-0.34500
2527777;-0.34500
2530555;-0.34500
2533333;-0.35000
2536110;-0.35000
2538888;-0.35500
2541666;-0.35500
2544444;-0.36000
2547222;-0.37000
2549999;-0.36500
2552777;-0.35500
2555555;-0.35000
2558333;-0.35000
2561110;-0.37500
2563888;-0.38000
2566666;-0.37500
2569444;-0.38000
2572222;-0.38000
2574999;-0.40500
2577777;-0.40500
2580555;-0.41000
2583333;-0.40500
2586110;-0.39500
2588888;-0.38000
2591666;-0.39500
2594444;-0.39500
2597221;-0.40000
2599999;-0.39000
2602777;-0.39500
2605555;-0.38500
2608333;-0.39500
2611110;-0.39500
2613888;-0.39500
2616666;-0.39500
2619444;-0.37500
2622221;-0.37500
2624999;-0.39000
2627777;-0.41500
2630555;-0.40000
2633333;-0.41500
2636110;-0.39000
2638888;-0.39500
2641666;-0.39500
2644444;-0.40500
2647221;-0.40000
2649999;-0.39000
2652777;-0.39500
2655555;-0.38500
2658333;-0.39000
2661110;-0.40000
2663888;-0.41500
2666666;-0.40000
2669444;-0.38000
2672221;-0.37000
2674999;-0.36500
2677777;-0.37000
2680555;-0.38000
2683333;-0.37500
2686110;-0.37500
2688888;-0.37500
2691666;-0.37500
2694444;-0.37500
2697221;-0.38500
2699999;-0.38500
2702777;-0.37500
2705555;-0.33500
2708333;-0.32500
2711110;-0.32000
2713888;-0.32500
2716666;-0.33000
2719444;-0.32000
2722221;-0.31500
2724999;-0.31000
2727777;-0.31000
2730555;-0.31000
2733333;-0.29500
2736110;-0.28500
2738888;-0.26000
2741666;-0.26500
2744444;-0.27500
2747221;-0.30000
2749999;-0.29500
2752777;-0.30000
2755555;-0.29000
2758333;-0.27500
2761110;-0.28000
2763888;-0.28500
2766666;-0.31500
2769444;-0.31500
2772221;-0.31000
2774999;-0.30000
2777777;-0.28500
2780555;-0.28000
2783333;-0.28000
2786110;-0.30500
2788888;-0.32000
2791666;-0.35500
2794444;-0.37000
2797221;-0.40500
2799999;-0.40500
2802777;-0.40000
2805555;-0.40000
2808333;-0.40000
2811110;-0.40500
2813888;-0.41000
2816666;-0.41000
2819444;-0.40000
2822221;-0.40000
2824999;-0.40000
2827777;-0.42000
2830555;-0.43000
2833333;-0.43000
2836110;-0.41500
2838888;-0.41000
2841666;-0.41000
2844444;-0.42000
2847221;-0.42500
2849999;-0.42500
2852777;-0.42500
2855555;-0.41000
2858333;-0.41000
2861110;-0.43000
2863888;-0.45000
2866666;-0.45500
2869444;-0.47000
2872221;-0.47000
2874999;-0.49500
2877777;-0.52500
2880555;-0.55500
2883333;-0.58500
2886110;-0.64000
2888888;-0.65000
2891666;-0.61000
2894444;-0.52500
2897221;-0.43000
2899999;-0.30500
2902777;-0.16500
2905555;0.01000
2908333;0.24500
2911110;0.50000
2913888;0.71500
2916666;0.88000
2919444;0.93500
2922221;0.84000
2924999;0.53500
2927777;0.12500
2930555;-0.24500
2933333;-0.46000
2936110;-0.53000
2938888;-0.52000
2941666;-0.49000
2944444;-0.46000
2947221;-0.46500
2949999;-0.45500
2952777;-0.44500
2955555;-0.44500
2958333;-0.43000
2961110;-0.44000
2963888;-0.45000
2966666;-0.45500
2969444;-0.46000
2972221;-0.45000
2974999;-0.45500
2977777;-0.46000
2980555;-0.46500
2983332;-0.46000
2986110;-0.45000
2988888;-0.43500
2991666;-0.43000
2994444;-0.44000
2997221;-0.45000
2999999;-0.44500
3002777;-0.43500
3005555;-0.42500
3008332;-0.43000
3011110;-0.42500
3013888;-0.44500
3016666;-0.44500
3019444;-0.44500
3022221;-0.45000
3024999;-0.44000
3027777;-0.44000
3030555;-0.45000
3033332;-0.45000
3036110;-0.44500
3038888;-0.45500
3041666;-0.47000
3044444;-0.46500
3047221;-0.46000
3049999;-0.45000
3052777;-0.43000
3055555;-0.43000
3058332;-0.43000
3061110;-0.43500
3063888;-0.45500
3066666;-0.45500
3069444;-0.44500
3072221;-0.45000
3074999;-0.45000
3077777;-0.46500
3080555;-0.46000
3083332;-0.44500
3086110;-0.43000
3088888;-0.42000
3091666;-0.42000
3094444;-0.42500
3097221;-0.43500
3099999;-0.43500
3102777;-0.45000
3105555;-0.45500
3108332;-0.44500
3111110;-0.44500
3113888;-0.46000
3116666;-0.45500
3119444;-0.44000
3122221;-0.41500
3124999;-0.43000
3127777;-0.44000
3130555;-0.46000
3133332;-0.45500
3136110;-0.43500
3138888;-0.41500
3141666;-0.43000
3144444;-0.44000
3147221;-0.45500
3149999;-0.48000
3152777;-0.47000
3155555;-0.47000
3158332;-0.47000
3161110;-0.47000
3163888;-0.49000
3166666;-0.48000
3169444;-0.48000
3172221;-0.48500
3174999;-0.49000
3177777;-0.51000
3180555;-0.52000
3183332;-0.51000
3186110;-0.51000
3188888;-0.49500
3191666;-0.50000
3194444;-0.51000
3197221;-0.51500
3199999;-0.50000
3202777;-0.47500
3205555;-0.46000
3208332;-0.46500
3211110;-0.46000
3213888;-0.46000
3216666;-0.44500
3219444;-0.43500
3222221;-0.43000
3224999;-0.42000
3227777;-0.40000
3230555;-0.39500
3233332;-0.38000
3236110;-0.36500
3238888;-0.36500
3241666;-0.35500
3244444;-0.36000
3247221;-0.36500
3249999;-0.34500
3252777;-0.33000
3255555;-0.31000
3258332;-0.31000
3261110;-0.33500
3263888;-0.34500
3266666;-0.34000
3269444;-0.34000
3272221;-0.32500
3274999;-0.33500
3277777;-0.32500
3280555;-0.33000
3283332;-0.32500
3286110;-0.31500
3288888;-0.30000
3291666;-0.30500
3294444;-0.32000
3297221;-0.33500
3299999;-0.33000
3302777;-0.32500
3305555;-0.32000
3308332;-0.32500
3311110;-0.33000
3313888;-0.33000
3316666;-0.34500
3319444;-0.33500
3322221;-0.32500
3324999;-0.32000
3327777;-0.32000
3330555;-0.33500
3333332;-0.34000
3336110;-0.33500
3338888;-0.33000
3341666;-0.33500
3344444;-0.35500
3347221;-0.35000
3349999;-0.34500
3352777;-0.34500
3355555;-0.33500
3358332;-0.34000
3361110;-0.34500
3363888;-0.36000
3366666;-0.36000
3369444;-0.36000
3372221;-0.35000
3374999;-0.35000
3377777;-0.35000
3380555;-0.35500
3383332;-0.35500
3386110;-0.33500
3388888;-0.35000
3391666;-0.34000
3394443;-0.35500
3397221;-0.36500
3399999;-0.35500
3402777;-0.36000
3405555;-0.35000
3408332;-0.35500
3411110;-0.36000
3413888;-0.37500
3416666;-0.37000
3419443;-0.37000
3422221;-0.35500
3424999;-0.36000
3427777;-0.36000
3430555;-0.37500
3433332;-0.36000
3436110;-0.34500
3438888;-0.34500
3441666;-0.34500
3444443;-0.35000
3447221;-0.36000
3449999;-0.35500
3452777;-0.34000
3455555;-0.34500
3458332;-0.33000
3461110;-0.35000
3463888;-0.34500
3466666;-0.36000
3469443;-0.34500
3472221;-0.34000
3474999;-0.34500
3477777;-0.34000
3480555;-0.35000
3483332;-0.34500
3486110;-0.34500
3488888;-0.32500
3491666;-0.33500
3494443;-0.34500
3497221;-0.34500
3499999;-0.34500
3502777;-0.33000
3505555;-0.33000
3508332;-0.32500
3511110;-0.31500
3513888;-0.33000
3516666;-0.31000
3519443;-0.29000
3522221;-0.27500
3524999;-0.27500
3527777;-0.28000
3530555;-0.29000
3533332;-0.26500
3536110;-0.25000
3538888;-0.23000
3541666;-0.24000
3544443;-0.23000
3547221;-0.23500
3549999;-0.23500
3552777;-0.23000
3555555;-0.22500
3558332;-0.24000
3561110;-0.26000
3563888;-0.26500
3566666;-0.25500
3569443;-0.26000
3572221;-0.26500
3574999;-0.26000
3577777;-0.26000
3580555;-0.25500
3583332;-0.23500
3586110;-0.23000
3588888;-0.25500
3591666;-0.27000
3594443;-0.31000
3597221;-0.32000
3599999;-0.33000
3602777;-0.33000
3605555;-0.33000
3608332;-0.35000
3611110;-0.35000
3613888;-0.37000
3616666;-0.35500
3619443;-0.36000
3622221;-0.35500
3624999;-0.35000
3627777;-0.36000
3630555;-0.36500
3633332;-0.36500
3636110;-0.35500
3638888;-0.36500
3641666;-0.36000
3644443;-0.37500
3647221;-0.38000
3649999;-0.37000
3652777;-0.37000
3655555;-0.36000
3658332;-0.36000
3661110;-0.35500
3663888;-0.38000
3666666;-0.36500
3669443;-0.36000
3672221;-0.38000
3674999;-0.42000
3677777;-0.45500
3680555;-0.48000
3683332;-0.51000
3686110;-0.54500
3688888;-0.55000
3691666;-0.50000
3694443;-0.41500
3697221;-0.30000
3699999;-0.18500
3702777;-0.06000
3705555;0.04500
3708332;0.16000
3711110;0.29500
3713888;0.47500
3716666;0.68500
3719443;0.87000
3722221;1.00000
3724999;1.08500
3727777;1.03500
3730555;0.80500
3733332;0.36500
3736110;-0.06500
3738888;-0.34500
3741666;-0.45000
3744443;-0.45500
3747221;-0.44500
3749999;-0.39500
3752777;-0.36000
3755555;-0.35500
3758332;-0.36500
3761110;-0.37000
3763888;-0.38000
3766666;-0.36500
3769443;-0.35000
3772221;-0.35500
3774999;-0.35500
3777777;-0.36000
3780554;-0.38000
3783332;-0.37500
3786110;-0.36500
3788888;-0.35500
3791666;-0.35500
3794443;-0.36000
3797221;-0.37000
3799999;-0.37500
3802777;-0.36000
3805554;-0.36000
3808332;-0.36000
3811110;-0.37500
3813888;-0.39000
3816666;-0.38000
3819443;-0.37500
3822221;-0.36000
3824999;-0.37500
3827777;-0.38000
3830554;-0.38500
3833332;-0.36500
3836110;-0.37000
3838888;-0.36000
3841666;-0.35500
3844443;-0.35500
3847221;-0.37000
3849999;-0.37500
3852777;-0.36500
3855554;-0.35500
3858332;-0.37000
3861110;-0.37000
3863888;-0.38000
3866666;-0.36500
3869443;-0.36500
3872221;-0.35500
3874999;-0.36000
3877777;-0.36000
3880554;-0.37500
3883332;-0.39000
3886110;-0.37500
3888888;-0.36000
3891666;-0.37500
3894443;-0.38500
3897221;-0.38500
3899999;-0.38500
3902777;-0.36500
3905554;-0.36000
3908332;-0.36000
3911110;-0.36500
3913888;-0.38000
3916666;-0.37000
3919443;-0.36000
3922221;-0.35000
3924999;-0.36500
3927777;-0.36500
3930554;-0.37000
3933332;-0.36000
3936110;-0.36000
3938888;-0.34500
3941666;-0.35500
3944443;-0.37500
3947221;-0.38500
3949999;-0.38000
3952777;-0.39000
3955554;-0.38000
3958332;-0.39500
3961110;-0.39500
3963888;-0.41000
3966666;-0.41000
3969443;-0.40000
3972221;-0.39000
3974999;-0.39500
3977777;-0.40500
3980554;-0.41000
3983332;-0.42000
3986110;-0.41500
3988888;-0.40000
3991666;-0.40000
3994443;-0.41000
3997221;-0.42500
3999999;-0.41500
4002777;-0.41500
4005554;-0.40000
4008332;-0.40500
4011110;-0.40500
4013888;-0.41000
4016666;-0.40000
4019443;-0.37500
4022221;-0.36000
4024999;-0.35000
4027777;-0.34500
4030554;-0.34000
4033332;-0.33000
4036110;-0.30500
4038888;-0.29000
4041666;-0.29000
4044443;-0.29000
4047221;-0.31000
4049999;-0.29000
4052777;-0.26500
4055554;-0.25500
4058332;-0.25000
4061110;-0.25000
4063888;-0.26000
4066666;-0.25500
4069443;-0.23500
4072221;-0.23500
4074999;-0.23500
4077777;-0.24000
4080554;-0.24500
4083332;-0.23000
4086110;-0.22000
4088888;-0.22000
4091666;-0.22000
4094443;-0.24000
4097221;-0.24000
4099999;-0.23500
4102777;-0.22500
4105554;-0.22000
4108332;-0.21500
4111110;-0.23000
4113888;-0.24000
4116666;-0.22500
4119443;-0.22500
4122221;-0.23000
4124999;-0.23500
4127777;-0.24500
4130554;-0.25000
4133332;-0.25000
4136110;-0.24000
4138888;-0.23500
4141666;-0.24000
4144443;-0.25000
4147221;-0.26000
4149999;-0.25000
4152777;-0.24500
4155554;-0.24000
4158332;-0.24000
4161110;-0.23000
4163888;-0.25500
4166666;-0.24000
4169443;-0.24000
4172221;-0.23000
4174999;-0.24500
4177777;-0.24000
4180554;-0.24000
4183332;-0.25000
4186110;-0.24500
4188888;-0.24500
4191665;-0.24000
4194443;-0.25000
4197221;-0.25000
4199999;-0.25500
4202777;-0.25500
4205554;-0.24500
4208332;-0.24500
4211110;-0.27000
4213888;-0.27000
4216665;-0.26500
4219443;-0.26000
4222221;-0.25500
4224999;-0.26500
4227777;-0.24500
4230554;-0.27000
4233332;-0.26000
4236110;-0.24000
4238888;-0.25000
4241665;-0.24000
4244443;-0.25000
4247221;-0.25000
4249999;-0.24500
4252777;-0.24500
4255554;-0.24500
4258332;-0.24000
4261110;-0.24000
4263888;-0.27000
4266665;-0.26000
4269443;-0.25000
4272221;-0.24500
4274999;-0.25000
4277777;-0.26500
4280554;-0.27000
4283332;-0.26000
4286110;-0.27000
4288888;-0.25000
4291665;-0.25000
4294443;-0.25000
4297221;-0.26500
4299999;-0.26000
4302777;-0.25000
4305554;-0.24500
4308332;-0.24500
4311110;-0.25500
4313888;-0.26000
4316665;-0.25500
4319443;-0.23500
4322221;-0.24000
4324999;-0.23500
4327777;-0.24500
4330554;-0.25500
4333332;-0.24500
4336110;-0.23500
4338888;-0.22500
4341665;-0.21500
4344443;-0.21000
4347221;-0.21500
4349999;-0.18500
4352777;-0.18000
4355554;-0.18000
4358332;-0.17500
4361110;-0.18000
4363888;-0.18500
4366665;-0.19500
4369443;-0.18000
4372221;-0.16000
4374999;-0.15000
4377777;-0.14500
4380554;-0.15500
4383332;-0.14000
4386110;-0.13000
4388888;-0.13500
4391665;-0.13500
4394443;-0.15000
4397221;-0.17000
4399999;-0.16500
4402777;-0.17500
4405554;-0.17000
4408332;-0.16500
4411110;-0.17000
4413888;-0.19500
4416665;-0.18500
4419443;-0.17000
4422221;-0.14500
4424999;-0.13000
4427777;-0.13000
4430554;-0.16000
4433332;-0.19500
4436110;-0.19000
4438888;-0.20000
4441665;-0.22000
4444443;-0.24000
4447221;-0.26000
4449999;-0.27000
4452777;-0.27500
4455554;-0.27500
4458332;-0.26000
4461110;-0.27500
4463888;-0.30000
4466665;-0.30000
4469443;-0.29500
4472221;-0.29500
4474999;-0.29500
4477777;-0.29000
4480554;-0.30000
4483332;-0.29000
4486110;-0.28500
4488888;-0.28000
4491665;-0.28500
4494443;-0.29500
4497221;-0.30500
4499999;-0.29500
4502777;-0.29000
4505554;-0.28000
4508332;-0.28500
4511110;-0.31000
4513888;-0.33000
4516665;-0.36500
4519443;-0.40000
4522221;-0.43500
4524999;-0.45000
4527777;-0.48000
4530554;-0.52000
4533332;-0.52500
4536110;-0.44500
4538888;-0.29000
4541665;-0.10500
4544443;0.08000
4547221;0.29000
4549999;0.58500
4552777;0.89000
4555554;1.12000
4558332;1.24000
4561110;1.24000
4563888;1.04500
4566665;0.62000
4569443;0.12500
4572221;-0.24000
4574999;-0.41000
4577776;-0.42500
4580554;-0.39000
4583332;-0.36000
4586110;-0.33000
4588888;-0.29000
4591665;-0.28500
4594443;-0.29500
4597221;-0.32000
4599999;-0.32500
4602776;-0.31500
4605554;-0.31000
4608332;-0.31500
4611110;-0.32500
4613888;-0.34000
4616665;-0.34500
4619443;-0.33500
4622221;-0.33000
4624999;-0.33000
4627776;-0.33500
4630554;-0.35000
4633332;-0.35000
4636110;-0.35500
4638888;-0.33000
4641665;-0.34000
4644443;-0.34000
4647221;-0.34500
4649999;-0.34500
4652776;-0.34500
4655554;-0.33500
4658332;-0.33000
4661110;-0.34000
4663888;-0.34500
4666665;-0.34000
4669443;-0.33500
4672221;-0.32500
4674999;-0.33000
4677776;-0.34500
4680554;-0.35500
4683332;-0.34500
4686110;-0.33000
4688888;-0.31500
4691665;-0.32500
4694443;-0.34500
4697221;-0.34000
4699999;-0.34000
4702776;-0.34000
4705554;-0.33500
4708332;-0.33500
4711110;-0.34000
4713888;-0.35000
4716665;-0.34500
4719443;-0.33500
4722221;-0.33000
4724999;-0.33500
4727776;-0.33500
4730554;-0.34500
4733332;-0.34500
4736110;-0.33000
4738888;-0.32500
4741665;-0.33000
4744443;-0.33000
4747221;-0.34000
4749999;-0.33500
4752776;-0.33500
4755554;-0.33000
4758332;-0.34000
4761110;-0.33500
4763888;-0.34500
4766665;-0.34500
4769443;-0.34500
4772221;-0.33000
4774999;-0.33000
4777776;-0.33500
4780554;-0.35500
4783332;-0.34000
4786110;-0.32500
4788888;-0.33500
4791665;-0.33000
4794443;-0.34500
4797221;-0.35000
4799999;-0.34500
4802776;-0.35000
4805554;-0.35000
4808332;-0.34000
4811110;-0.35500
4813888;-0.36000
4816665;-0.34500
4819443;-0.34000
4822221;-0.33500
4824999;-0.33500
4827776;-0.35000
4830554;-0.35500
4833332;-0.36000
4836110;-0.36500
4838888;-0.35000
4841665;-0.36000
4844443;-0.36500
4847221;-0.37000
4849999;-0.36000
4852776;-0.35500
4855554;-0.34000
4858332;-0.32500
4861110;-0.34000
4863888;-0.33000
4866665;-0.31000
4869443;-0.29500
4872221;-0.27500
4874999;-0.27500
4877776;-0.27500
4880554;-0.27500
4883332;-0.26500
4886110;-0.26000
4888888;-0.24500
4891665;-0.24000
4894443;-0.24500
4897221;-0.24500
4899999;-0.23500
4902776;-0.22500
4905554;-0.22500
4908332;-0.21000
4911110;-0.22500
4913888;-0.23000
4916665;-0.23500
4919443;-0.23000
4922221;-0.22000
4924999;-0.22500
4927776;-0.23500
4930554;-0.24000
4933332;-0.24000
4936110;-0.22500
4938888;-0.23500
4941665;-0.22500
4944443;-0.23000
4947221;-0.25000
4949999;-0.24000
4952776;-0.23500
4955554;-0.22500
4958332;-0.23000
4961110;-0.24500
4963887;-0.25500
4966665;-0.24500
4969443;-0.23500
4972221;-0.23000
4974999;-0.23500
4977776;-0.23500
4980554;-0.24500
4983332;-0.24500
4986110;-0.23500
4988887;-0.24500
4991665;-0.24000
4994443;-0.24000
4997221;-0.26000
4999999;-0.25500
5002776;-0.25500
5005554;-0.26000
5008332;-0.26500
5011110;-0.26000
5013887;-0.27500
5016665;-0.28000
5019443;-0.27000
5022221;-0.25000
5024999;-0.25500
5027776;-0.26500
5030554;-0.28500
5033332;-0.28500
5036110;-0.27500
5038887;-0.26000
5041665;-0.27500
5044443;-0.28500
5047221;-0.29500
5049999;-0.29000
5052776;-0.29000
5055554;-0.28000
5058332;-0.28000
5061110;-0.28000
5063887;-0.29500
5066665;-0.28500
5069443;-0.28500
5072221;-0.28000
5074999;-0.29000
5077776;-0.30500
5080554;-0.31000
5083332;-0.32000
5086110;-0.32000
5088887;-0.30000
5091665;-0.30000
5094443;-0.31000
5097221;-0.32500
5099999;-0.30500
5102776;-0.30000
5105554;-0.28500
5108332;-0.28500
5111110;-0.30000
5113887;-0.31000
5116665;-0.30500
5119443;-0.28500
5122221;-0.28500
5124999;-0.29500
5127776;-0.31000
5130554;-0.29500
5133332;-0.29500
5136110;-0.29000
5138887;-0.29000
5141665;-0.28500
5144443;-0.29000
5147221;-0.30000
5149999;-0.30000
5152776;-0.28500
5155554;-0.28000
5158332;-0.28000
5161110;-0.29500
5163887;-0.30500
5166665;-0.29500
5169443;-0.29500
5172221;-0.28500
5174999;-0.27500
5177776;-0.26500
5180554;-0.28000
5183332;-0.25500
5186110;-0.23000
5188887;-0.22500
5191665;-0.23000
5194443;-0.22500
5197221;-0.22500
5199999;-0.20500
5202776;-0.21500
5205554;-0.19500
5208332;-0.19000
5211110;-0.18000
5213887;-0.19500
5216665;-0.19500
5219443;-0.18500
5222221;-0.18000
5224999;-0.18500
5227776;-0.19500
5230554;-0.21000
5233332;-0.21000
5236110;-0.21000
5238887;-0.19500
5241665;-0.19000
5244443;-0.20000
5247221;-0.22000
5249999;-0.22500
5252776;-0.23500
5255554;-0.21500
5258332;-0.20500
5261110;-0.18500
5263887;-0.19000
5266665;-0.19000
5269443;-0.22000
5272221;-0.23500
5274999;-0.25000
5277776;-0.26500
5280554;-0.28500
5283332;-0.30000
5286110;-0.30000
5288887;-0.29500
5291665;-0.31500
5294443;-0.32000
5297221;-0.33000
5299999;-0.32000
5302776;-0.31500
5305554;-0.31000
5308332;-0.31000
5311110;-0.32000
5313887;-0.33000
5316665;-0.33000
5319443;-0.32000
5322221;-0.30500
5324999;-0.31000
5327776;-0.34000
5330554;-0.34500
5333332;-0.33000
5336110;-0.32500
5338887;-0.31500
5341665;-0.31500
5344443;-0.33000
5347221;-0.33500
5349999;-0.33500
5352776;-0.33000
5355554;-0.34000
5358332;-0.38500
5361110;-0.43500
5363887;-0.47500
5366665;-0.49000
5369443;-0.52000
5372221;-0.53500
5374998;-0.53000
5377776;-0.47000
5380554;-0.33500
5383332;-0.17000
5386110;0.03000
5388887;0.23500
5391665;0.49500
5394443;0.77000
5397221;0.96500
5399998;1.09500
5402776;1.12000
5405554;0.99000
5408332;0.67000
5411110;0.26000
5413887;-0.10000
5416665;-0.35000
5419443;-0.45000
5422221;-0.48500
5424998;-0.48000
5427776;-0.46500
5430554;-0.45000
5433332;-0.41500
5436110;-0.36500
5438887;-0.34000
5441665;-0.34500
5444443;-0.35500
5447221;-0.38000
5449998;-0.37500
5452776;-0.36500
5455554;-0.35000
5458332;-0.36000
5461110;-0.36000
5463887;-0.37500
5466665;-0.38000
5469443;-0.36000
5472221;-0.36500
5474998;-0.36500
5477776;-0.38000
5480554;-0.39000
5483332;-0.37500
5486110;-0.37000
5488887;-0.37000
5491665;-0.36000
5494443;-0.36000
5497221;-0.38000
5499998;-0.38000
5502776;-0.37000
5505554;-0.36000
5508332;-0.37500
5511110;-0.37000
5513887;-0.39500
5516665;-0.38500
5519443;-0.37500
5522221;-0.37000
5524998;-0.36000
5527776;-0.37000
5530554;-0.38500
5533332;-0.36500
5536110;-0.36500
5538887;-0.35000
5541665;-0.36000
5544443;-0.37000
5547221;-0.37500
5549998;-0.36000
5552776;-0.36000
5555554;-0.36000
5558332;-0.36500
5561110;-0.36500
5563887;-0.38000
5566665;-0.36500
5569443;-0.36000
5572221;-0.36000
5574998;-0.35500
5577776;-0.37000
5580554;-0.37500
5583332;-0.36000
5586110;-0.36000
5588887;-0.35500
5591665;-0.35500
5594443;-0.36000
5597221;-0.37000
5599998;-0.36000
5602776;-0.35500
5605554;-0.35000
5608332;-0.35500
5611110;-0.36000
5613887;-0.37000
5616665;-0.37000
5619443;-0.36500
5622221;-0.36000
5624998;-0.35500
5627776;-0.36500
5630554;-0.38000
5633332;-0.38000
5636110;-0.37000
5638887;-0.35500
5641665;-0.37000
5644443;-0.37500
5647221;-0.38000
5649998;-0.38000
5652776;-0.38000
5655554;-0.37000
5658332;-0.38500
5661110;-0.39000
5663887;-0.41000
5666665;-0.39500
5669443;-0.39000
5672221;-0.38500
5674998;-0.38500
5677776;-0.38500
5680554;-0.40500
5683332;-0.40000
5686110;-0.39000
5688887;-0.38500
5691665;-0.38500
5694443;-0.39000
5697221;-0.39500
5699998;-0.39000
5702776;-0.37000
5705554;-0.36500
5708332;-0.36500
5711110;-0.36500
5713887;-0.37000
5716665;-0.33500
5719443;-0.33000
5722221;-0.30500
5724998;-0.30000
5727776;-0.30000
5730554;-0.30000
5733332;-0.29500
5736110;-0.28500
5738887;-0.26000
5741665;-0.26500
5744443;-0.27000
5747221;-0.28500
5749998;-0.28000
5752776;-0.27500
5755554;-0.26000
5758332;-0.26500
5761109;-0.27000
5763887;-0.28500
5766665;-0.28000
5769443;-0.27500
5772221;-0.26000
5774998;-0.25500
5777776;-0.27000
5780554;-0.27000
5783332;-0.28000
5786109;-0.27000
5788887;-0.26500
5791665;-0.26500
5794443;-0.27500
5797221;-0.28000
5799998;-0.27500
5802776;-0.27500
5805554;-0.27000
5808332;-0.28500
5811109;-0.28000
5813887;-0.29000
5816665;-0.29000
5819443;-0.27500
5822221;-0.27500
5824998;-0.28000
5827776;-0.28500
5830554;-0.31000
5833332;-0.30000
5836109;-0.29000
5838887;-0.29500
5841665;-0.29500
5844443;-0.31500
5847221;-0.32000
5849998;-0.31000
5852776;-0.30000
5855554;-0.29500
5858332;-0.28500
5861109;-0.29500
5863887;-0.29500
5866665;-0.28000
5869443;-0.25500
5872221;-0.24500
5874998;-0.24000
5877776;-0.24500
5880554;-0.24500
5883332;-0.23000
5886109;-0.22500
5888887;-0.22000
5891665;-0.23000
5894443;-0.22000
5897221;-0.22500
5899998;-0.23500
5902776;-0.23500
5905554;-0.21500
5908332;-0.20500
5911109;-0.20000
5913887;-0.20500
5916665;-0.22000
5919443;-0.23500
5922221;-0.23000
5924998;-0.25000
5927776;-0.26000
5930554;-0.28500
5933332;-0.29500
5936109;-0.29500
5938887;-0.29000
5941665;-0.29500
5944443;-0.30500
5947221;-0.32500
5949998;-0.33500
5952776;-0.33500
5955554;-0.33000
5958332;-0.34000
5961109;-0.34500
5963887;-0.35000
5966665;-0.36500
5969443;-0.34500
5972221;-0.35000
5974998;-0.34000
5977776;-0.35500
5980554;-0.35500
5983332;-0.36000
5986109;-0.35000
5988887;-0.35000
5991665;-0.36000
5994443;-0.36000
5997221;-0.38000
5999998;-0.38000
6002776;-0.36000
6005554;-0.36000
6008332;-0.36000
6011109;-0.36000
6013887;-0.37500
6016665;-0.37500
6019443;-0.37000
6022221;-0.35500
6024998;-0.35000
6027776;-0.35500
6030554;-0.38000
6033332;-0.37500
6036109;-0.38500
6038887;-0.42500
6041665;-0.47500
6044443;-0.51000
6047221;-0.55500
6049998;-0.58000
6052776;-0.57500
6055554;-0.50000
6058332;-0.34500
6061109;-0.17000
6063887;0.01000
6066665;0.23000
6069443;0.50000
6072221;0.75000
6074998;0.93000
6077776;1.00500
6080554;0.94500
6083332;0.72000
6086109;0.34500
6088887;-0.06500
6091665;-0.35500
6094443;-0.47000
6097221;-0.47500
6099998;-0.42500
6102776;-0.39000
6105554;-0.37000
6108332;-0.37500
6111109;-0.38000
6113887;-0.39500
6116665;-0.38000
6119443;-0.37500
6122221;-0.37500
6124998;-0.38500
6127776;-0.40000
6130554;-0.42000
6133332;-0.41000
6136109;-0.37500
6138887;-0.38500
6141665;-0.40000
6144443;-0.39500
6147221;-0.41000
6149998;-0.41500
6152776;-0.39500
6155554;-0.39500
6158332;-0.39000
6161109;-0.40500
6163887;-0.41500
6166665;-0.41500
6169443;-0.41500
6172220;-0.40500
6174998;-0.41500
6177776;-0.41500
6180554;-0.43000
6183332;-0.42500
6186109;-0.43000
6188887;-0.42000
6191665;-0.42500
6194443;-0.42500
6197220;-0.42500
6199998;-0.42500
6202776;-0.41500
6205554;-0.40000
6208332;-0.40000
6211109;-0.40000
6213887;-0.42000
6216665;-0.40500
6219443;-0.41000
6222220;-0.41000
6224998;-0.41000
6227776;-0.43000
6230554;-0.44000
6233332;-0.44000
6236109;-0.43500
6238887;-0.41500
6241665;-0.43500
6244443;-0.44500
6247220;-0.44500
6249998;-0.45000
6252776;-0.42500
6255554;-0.41500
6258332;-0.42000
6261109;-0.42500
6263887;-0.44000
6266665;-0.45000
6269443;-0.43500
6272220;-0.41000
6274998;-0.41500
6277776;-0.41500
6280554;-0.42500
6283332;-0.42000
6286109;-0.42000
6288887;-0.40500
6291665;-0.40500
6294443;-0.42000
6297220;-0.43500
6299998;-0.42500
6302776;-0.42500
6305554;-0.42500
6308332;-0.43500
6311109;-0.45500
6313887;-0.45500
6316665;-0.45500
6319443;-0.45500
6322220;-0.45500
6324998;-0.46000
6327776;-0.46500
6330554;-0.47000
6333332;-0.47000
6336109;-0.46500
6338887;-0.47000
6341665;-0.48500
6344443;-0.48500
6347220;-0.48500
6349998;-0.48000
6352776;-0.47000
6355554;-0.45000
6358332;-0.44500
6361109;-0.46000
6363887;-0.47500
6366665;-0.46000
6369443;-0.44000
6372220;-0.41500
6374998;-0.40000
6377776;-0.40000
6380554;-0.40500
6383332;-0.39000
6386109;-0.37500
6388887;-0.37500
6391665;-0.37000
6394443;-0.36000
6397220;-0.37000
6399998;-0.36500
6402776;-0.35000
6405554;-0.34500
6408332;-0.35500
6411109;-0.37000
6413887;-0.37500
6416665;-0.36500
6419443;-0.36000
6422220;-0.35500
6424998;-0.36500
6427776;-0.37500
6430554;-0.37000
6433332;-0.35500
6436109;-0.34500
6438887;-0.33500
6441665;-0.35000
6444443;-0.37500
6447220;-0.38000
6449998;-0.37500
6452776;-0.37000
6455554;-0.35500
6458332;-0.37000
6461109;-0.37500
6463887;-0.39000
6466665;-0.37500
6469443;-0.37500
6472220;-0.39000
6474998;-0.39500
6477776;-0.40500
6480554;-0.40000
6483332;-0.40000
6486109;-0.38000
6488887;-0.37000
6491665;-0.38000
6494443;-0.39500
6497220;-0.41000
6499998;-0.40000
6502776;-0.39500
6505554;-0.37500
6508332;-0.36500
6511109;-0.38000
6513887;-0.41000
6516665;-0.40000
6519443;-0.39500
6522220;-0.39000
6524998;-0.38000
6527776;-0.39500
6530554;-0.40500
6533332;-0.40500
6536109;-0.39500
6538887;-0.40500
6541665;-0.41500
6544443;-0.43000
6547220;-0.41500
6549998;-0.43000
6552776;-0.42500
6555554;-0.41000
6558331;-0.41000
6561109;-0.41000
6563887;-0.43000
6566665;-0.41500
6569443;-0.40000
6572220;-0.40500
6574998;-0.41500
6577776;-0.41500
6580554;-0.42000
6583331;-0.41000
6586109;-0.40500
6588887;-0.39500
6591665;-0.39000
6594443;-0.39500
6597220;-0.40500
6599998;-0.40000
6602776;-0.40000
6605554;-0.40000
6608331;-0.41000
6611109;-0.42000
6613887;-0.43500
6616665;-0.43000
6619443;-0.42000
6622220;-0.40500
6624998;-0.40000
6627776;-0.41500
6630554;-0.42000
6633331;-0.42000
6636109;-0.42500
6638887;-0.42000
6641665;-0.42500
6644443;-0.43000
6647220;-0.44000
6649998;-0.43000
6652776;-0.41000
6655554;-0.39000
6658331;-0.40000
6661109;-0.41500
6663887;-0.42500
6666665;-0.43500
6669443;-0.41500
6672220;-0.41000
6674998;-0.41500
6677776;-0.42500
6680554;-0.42500
6683331;-0.43000
6686109;-0.42500
6688887;-0.39500
6691665;-0.40500
6694443;-0.40000
6697220;-0.42500
6699998;-0.41000
6702776;-0.42500
6705554;-0.42500
6708331;-0.43500
6711109;-0.44000
6713887;-0.45000
6716665;-0.44000
6719443;-0.42500
6722220;-0.42000
6724998;-0.40500
6727776;-0.42000
6730554;-0.44500
6733331;-0.44000
6736109;-0.44000
6738887;-0.43000
6741665;-0.44000
6744443;-0.44000
6747220;-0.44000
6749998;-0.44500
6752776;-0.42500
6755554;-0.41000
6758331;-0.41500
6761109;-0.42000
6763887;-0.44000
6766665;-0.44000
6769443;-0.44000
6772220;-0.41500
6774998;-0.41500
6777776;-0.42000
6780554;-0.44000
6783331;-0.43000
6786109;-0.43500
6788887;-0.42500
6791665;-0.43500
6794443;-0.43500
6797220;-0.45500
6799998;-0.45500
6802776;-0.44000
6805554;-0.43500
6808331;-0.43500
6811109;-0.42500
6813887;-0.42000
6816665;-0.40500
6819443;-0.39500
6822220;-0.37500
6824998;-0.36500
6827776;-0.37500
6830554;-0.37500
6833331;-0.36000
6836109;-0.35500
6838887;-0.33500
6841665;-0.32500
6844443;-0.33000
6847220;-0.34000
6849998;-0.35000
6852776;-0.33500
6855554;-0.33000
6858331;-0.31500
6861109;-0.32500
6863887;-0.32500
6866665;-0.33000
6869443;-0.33000
6872220;-0.33500
6874998;-0.34500
6877776;-0.36500
6880554;-0.37000
6883331;-0.36000
6886109;-0.36500
6888887;-0.37000
6891665;-0.38000
6894443;-0.39000
6897220;-0.37000
6899998;-0.35000
6902776;-0.34000
6905554;-0.34500
6908331;-0.36000
6911109;-0.38000
6913887;-0.41500
6916665;-0.43500
6919443;-0.44500
6922220;-0.44000
6924998;-0.44000
6927776;-0.45500
6930554;-0.47500
6933331;-0.47000
6936109;-0.44500
6938887;-0.44500
6941665;-0.43500
6944442;-0.46000
6947220;-0.47000
6949998;-0.47500
6952776;-0.48000
6955554;-0.48000
6958331;-0.47500
6961109;-0.47500
6963887;-0.48500
6966665;-0.48500
6969442;-0.46500
6972220;-0.44500
6974998;-0.45500
6977776;-0.47000
6980554;-0.47000
6983331;-0.49000
6986109;-0.50500
6988887;-0.53000
6991665;-0.55000
6994442;-0.58000
6997220;-0.63500
6999998;-0.68000
7002776;-0.68500
7005554;-0.60500
7008331;-0.51000
7011109;-0.39000
7013887;-0.25500
7016665;-0.07000
7019442;0.15500
7022220;0.42500
7024998;0.66500
7027776;0.83000
7030554;0.90000
7033331;0.80000
7036109;0.47500
7038887;0.00000
7041665;-0.39000
7044442;-0.57000
7047220;-0.60500
7049998;-0.56000
7052776;-0.52000
7055554;-0.50000
7058331;-0.49000
7061109;-0.50000
7063887;-0.50500
7066665;-0.50500
7069442;-0.49000
7072220;-0.48000
7074998;-0.49000
7077776;-0.51000
7080554;-0.51500
7083331;-0.51500
7086109;-0.49500
7088887;-0.48000
7091665;-0.47000
7094442;-0.48500
7097220;-0.52000
7099998;-0.51000
7102776;-0.50500
7105554;-0.49500
7108331;-0.47500
7111109;-0.49500
7113887;-0.51500
7116665;-0.51500
7119442;-0.51500
7122220;-0.50500
7124998;-0.51500
7127776;-0.53000
7130554;-0.52500
7133331;-0.51000
7136109;-0.49500
7138887;-0.48500
7141665;-0.49500
7144442;-0.50000
7147220;-0.51500
7149998;-0.51000
7152776;-0.49500
7155554;-0.50000
7158331;-0.51000
7161109;-0.50500
7163887;-0.51000
7166665;-0.50000
7169442;-0.48500
7172220;-0.49500
7174998;-0.51000
7177776;-0.53500
7180554;-0.54000
7183331;-0.52000
7186109;-0.51000
7188887;-0.48500
7191665;-0.49500
7194442;-0.50000
7197220;-0.51500
7199998;-0.50000
7202776;-0.48500
7205554;-0.47500
7208331;-0.48500
7211109;-0.50000
7213887;-0.50500
7216665;-0.50000
7219442;-0.49000
7222220;-0.48500
7224998;-0.50000
7227776;-0.50000
7230554;-0.51500
7233331;-0.51500
7236109;-0.52500
7238887;-0.52000
7241665;-0.52000
7244442;-0.54000
7247220;-0.55500
7249998;-0.56000
7252776;-0.56000
7255554;-0.56000
7258331;-0.54500
7261109;-0.56500
7263887;-0.58000
7266665;-0.58000
7269442;-0.57500
7272220;-0.57500
7274998;-0.58000
7277776;-0.58500
7280554;-0.60500
7283331;-0.59500
7286109;-0.58500
7288887;-0.57500
7291665;-0.58000
7294442;-0.58000
7297220;-0.59500
7299998;-0.59000
7302776;-0.57000
7305554;-0.54500
7308331;-0.53500
7311109;-0.51500
7313887;-0.49500
7316665;-0.50000
7319442;-0.48500
7322220;-0.46000
7324998;-0.45500
7327776;-0.42500
7330554;-0.42500
7333331;-0.42000
7336109;-0.40000
7338887;-0.39500
7341665;-0.37500
7344442;-0.37500
7347220;-0.38000
7349998;-0.38500
7352776;-0.36500
7355553;-0.35500
7358331;-0.34500
7361109;-0.34500
7363887;-0.37000
7366665;-0.36500
7369442;-0.34000
7372220;-0.34500
7374998;-0.35000
7377776;-0.36000
7380553;-0.36500
7383331;-0.35500
7386109;-0.34500
7388887;-0.35500
7391665;-0.34500
7394442;-0.36000
7397220;-0.37000
7399998;-0.36000
7402776;-0.34000
7405553;-0.34000
7408331;-0.34000
7411109;-0.35500
7413887;-0.35500
7416665;-0.35500
7419442;-0.35500
7422220;-0.33500
7424998;-0.33500
7427776;-0.35000
7430553;-0.36000
7433331;-0.35500
7436109;-0.35500
7438887;-0.35500
7441665;-0.35500
7444442;-0.36500
7447220;-0.37000
7449998;-0.36500
7452776;-0.36500
7455553;-0.35500
7458331;-0.36000
7461109;-0.37000
7463887;-0.39000
7466665;-0.38500
7469442;-0.37000
7472220;-0.36000
7474998;-0.36000
7477776;-0.36500
7480553;-0.36500
7483331;-0.36500
7486109;-0.35500
7488887;-0.35500
7491665;-0.35000
7494442;-0.37000
7497220;-0.37000
7499998;-0.37500
7502776;-0.35500
7505553;-0.35000
7508331;-0.35500
7511109;-0.36000
7513887;-0.37000
7516665;-0.36000
7519442;-0.37000
7522220;-0.35500
7524998;-0.36000
7527776;-0.36000
7530553;-0.37500
7533331;-0.36500
7536109;-0.36000
7538887;-0.35500
7541665;-0.35500
7544442;-0.34500
7547220;-0.36500
7549998;-0.34000
7552776;-0.34500
7555553;-0.33500
7558331;-0.33500
7561109;-0.33000
7563887;-0.35000
7566665;-0.35000
7569442;-0.33000
7572220;-0.31500
7574998;-0.31500
7577776;-0.33500
7580553;-0.35000
7583331;-0.33500
7586109;-0.32500
7588887;-0.32000
7591665;-0.31000
7594442;-0.32000
7597220;-0.34000
7599998;-0.33000
7602776;-0.33000
7605553;-0.32000
7608331;-0.31000
7611109;-0.31500
7613887;-0.31000
7616665;-0.30500
7619442;-0.27500
7622220;-0.26500
7624998;-0.26000
7627776;-0.25500
7630553;-0.27000
7633331;-0.25000
7636109;-0.23500
7638887;-0.22000
7641665;-0.21000
7644442;-0.22500
7647220;-0.23000
7649998;-0.23000
7652776;-0.22500
7655553;-0.21500
7658331;-0.24000
7661109;-0.24500
7663887;-0.25000
7666665;-0.23500
7669442;-0.23000
7672220;-0.23500
7674998;-0.24000
7677776;-0.22500
7680553;-0.21000
7683331;-0.19500
7686109;-0.21500
7688887;-0.24000
7691665;-0.27500
7694442;-0.28500
7697220;-0.31500
7699998;-0.33000
7702776;-0.32500
7705553;-0.32500
7708331;-0.34000
7711109;-0.35000
7713887;-0.35000
7716665;-0.34500
7719442;-0.33500
7722220;-0.33500
7724998;-0.33500
7727776;-0.33500
7730553;-0.34500
7733331;-0.34500
7736109;-0.34500
7738887;-0.33000
7741664;-0.33000
7744442;-0.34500
7747220;-0.35500
7749998;-0.36000
7752776;-0.35500
7755553;-0.34500
7758331;-0.35000
7761109;-0.35000
7763887;-0.36000
7766664;-0.35500
7769442;-0.35500
7772220;-0.38000
7774998;-0.42000
7777776;-0.47000
7780553;-0.50000
7783331;-0.52500
7786109;-0.55500
7788887;-0.50500
7791664;-0.38500
7794442;-0.21500
7797220;-0.04000
7799998;0.17500
7802776;0.41000
7805553;0.67000
7808331;0.88500
7811109;1.02500
7813887;1.11500
7816664;1.20000
7819442;1.27000
7822220;1.29500
7824998;1.13000
7827776;0.77000
7830553;0.27000
7833331;-0.17000
7836109;-0.41000
7838887;-0.47500
7841664;-0.46000
7844442;-0.40500
7847220;-0.37000
7849998;-0.36000
7852776;-0.34500
7855553;-0.34500
7858331;-0.35000
7861109;-0.36000
7863887;-0.37000
7866664;-0.36000
7869442;-0.35500
7872220;-0.35500
7874998;-0.36000
7877776;-0.36000
7880553;-0.36500
7883331;-0.36500
7886109;-0.36000
7888887;-0.35500
7891664;-0.35000
7894442;-0.36000
7897220;-0.37500
7899998;-0.37000
7902776;-0.36000
7905553;-0.34500
7908331;-0.35000
7911109;-0.35000
7913887;-0.36500
7916664;-0.37000
7919442;-0.36000
7922220;-0.34000
7924998;-0.34500
7927776;-0.35500
7930553;-0.36500
7933331;-0.36500
7936109;-0.36500
7938887;-0.34500
7941664;-0.36500
7944442;-0.36000
7947220;-0.37000
7949998;-0.36500
7952776;-0.36000
7955553;-0.35500
7958331;-0.34000
7961109;-0.35500
7963887;-0.36500
7966664;-0.35500
7969442;-0.35000
7972220;-0.34500
7974998;-0.35500
7977776;-0.36500
7980553;-0.37500
7983331;-0.37500
7986109;-0.36000
7988887;-0.36000
7991664;-0.36000
7994442;-0.36000
7997220;-0.38000
7999998;-0.37000
8002776;-0.36000
8005553;-0.35500
8008331;-0.36000
8011109;-0.36500
8013887;-0.37500
8016664;-0.38000
8019442;-0.37500
8022220;-0.36500
8024998;-0.37000
8027776;-0.38000
8030553;-0.39000
8033331;-0.38500
8036109;-0.38500
8038887;-0.39000
8041664;-0.39000
8044442;-0.39000
8047220;-0.40000
8049998;-0.41000
8052776;-0.38500
8055553;-0.39500
8058331;-0.40500
8061109;-0.40500
8063887;-0.42000
8066664;-0.41000
8069442;-0.41000
8072220;-0.39500
8074998;-0.39500
8077776;-0.39500
8080553;-0.40500
8083331;-0.41000
8086109;-0.39000
8088887;-0.37500
8091664;-0.36000
8094442;-0.35000
8097220;-0.35500
8099998;-0.34000
8102776;-0.31000
8105553;-0.29500
8108331;-0.29000
8111109;-0.28500
8113887;-0.29000
8116664;-0.28000
8119442;-0.27000
8122220;-0.24500
8124998;-0.24500
8127776;-0.25500
8130553;-0.26000
8133331;-0.26000
8136109;-0.25500
8138887;-0.25000
8141664;-0.24500
8144442;-0.25500
8147220;-0.26500
8149998;-0.25000
8152775;-0.25000
8155553;-0.24000
8158331;-0.25000
8161109;-0.25500
8163887;-0.26500
8166664;-0.25500
8169442;-0.24500
8172220;-0.23500
8174998;-0.23000
8177775;-0.25500
8180553;-0.27500
8183331;-0.26000
8186109;-0.25500
8188887;-0.25000
8191664;-0.25500
8194442;-0.26500
8197220;-0.27000
8199998;-0.27500
8202775;-0.26000
8205553;-0.25500
8208331;-0.26000
8211109;-0.27500
8213887;-0.29000
8216664;-0.28000
8219442;-0.28000
8222220;-0.26500
8224998;-0.27000
8227775;-0.28500
8230553;-0.29000
8233331;-0.28500
8236109;-0.29500
8238887;-0.27500
8241664;-0.28000
8244442;-0.29000
8247220;-0.30000
8249998;-0.30500
8252775;-0.30500
8255553;-0.29000
8258331;-0.30000
8261109;-0.30500
8263887;-0.31500
8266664;-0.31500
8269442;-0.32000
8272220;-0.30000
8274998;-0.30000
8277775;-0.31000
8280553;-0.32000
8283331;-0.31000
8286109;-0.30500
8288887;-0.29500
8291664;-0.29500
8294442;-0.30500
8297220;-0.32000
8299998;-0.30500
8302775;-0.29500
8305553;-0.29000
8308331;-0.30500
8311109;-0.30500
8313887;-0.30500
8316664;-0.32000
8319442;-0.31000
8322220;-0.29500
8324998;-0.30000
8327775;-0.31500
8330553;-0.31500
8333331;-0.31500
8336109;-0.30000
8338887;-0.29500
8341664;-0.30500
8344442;-0.29500
8347220;-0.31000
8349998;-0.32000
8352775;-0.29500
8355553;-0.28500
8358331;-0.29000
8361109;-0.29500
8363887;-0.30500
8366664;-0.30000
8369442;-0.29500
8372220;-0.28000
8374998;-0.27500
8377775;-0.29000
8380553;-0.30500
8383331;-0.30000
8386109;-0.30000
8388887;-0.29000
8391664;-0.28000
8394442;-0.27000
8397220;-0.25000
8399998;-0.24000
8402775;-0.23000
8405553;-0.21500
8408331;-0.21500
8411109;-0.22000
8413887;-0.22500
8416664;-0.20500
8419442;-0.18500
8422220;-0.17500
8424998;-0.17500
8427775;-0.18000
8430553;-0.18500
8433331;-0.18500
8436109;-0.17500
8438887;-0.18000
8441664;-0.18500
8444442;-0.20500
8447220;-0.20500
8449998;-0.20000
8452775;-0.19500
8455553;-0.19500
8458331;-0.20000
8461109;-0.20000
8463887;-0.18000
8466664;-0.17500
8469442;-0.18500
8472220;-0.21000
8474998;-0.23000
8477775;-0.24500
8480553;-0.26000
8483331;-0.27000
8486109;-0.27000
8488887;-0.27000
8491664;-0.27500
8494442;-0.29500
8497220;-0.32000
8499998;-0.32000
8502775;-0.32000
8505553;-0.30000
8508331;-0.30000
8511109;-0.30500
8513887;-0.32000
8516664;-0.31000
8519442;-0.31500
8522220;-0.30500
8524998;-0.30500
8527775;-0.32000
8530553;-0.33000
8533331;-0.33500
8536109;-0.33000
8538886;-0.32500
8541664;-0.33000
8544442;-0.33500
8547220;-0.34500
8549998;-0.34500
8552775;-0.33000
8555553;-0.32000
8558331;-0.32000
8561109;-0.35000
8563886;-0.39000
8566664;-0.43000
8569442;-0.45500
8572220;-0.47000
8574998;-0.50500
8577775;-0.53000
8580553;-0.51000
8583331;-0.40000
8586109;-0.23000
8588886;-0.04000
8591664;0.16000
8594442;0.40500
8597220;0.68500
8599998;0.94000
8602775;1.09500
8605553;1.10000
8608331;0.88000
8611109;0.45000
8613886;-0.05000
8616664;-0.38500
8619442;-0.46500
8622220;-0.39500
8624998;-0.33500
8627775;-0.31000
8630553;-0.34000
8633331;-0.35000
8636109;-0.34000
8638886;-0.32500
8641664;-0.33500
8644442;-0.34500
8647220;-0.36000
8649998;-0.35500
8652775;-0.35500
8655553;-0.35000
8658331;-0.35000
8661109;-0.35500
8663886;-0.37500
8666664;-0.36500
8669442;-0.36000
8672220;-0.35500
8674998;-0.34000
8677775;-0.35500
8680553;-0.37000
8683331;-0.37500
8686109;-0.36500
8688886;-0.35000
8691664;-0.36000
8694442;-0.37000
8697220;-0.38500
8699998;-0.38000
8702775;-0.37000
8705553;-0.35000
8708331;-0.35000
8711109;-0.36500
8713886;-0.37000
8716664;-0.37000
8719442;-0.36000
8722220;-0.34500
8724998;-0.35500
8727775;-0.36000
8730553;-0.36500
8733331;-0.37000
8736109;-0.36000
8738886;-0.35500
8741664;-0.35000
8744442;-0.35000
8747220;-0.36500
8749998;-0.36000
8752775;-0.35500
8755553;-0.35000
8758331;-0.35000
8761109;-0.35500
8763886;-0.36500
8766664;-0.37500
8769442;-0.37000
8772220;-0.35000
8774998;-0.35500
8777775;-0.36500
8780553;-0.38000
8783331;-0.36000
8786109;-0.36000
8788886;-0.35500
8791664;-0.34500
8794442;-0.36000
8797220;-0.37000
8799998;-0.37000
8802775;-0.36000
8805553;-0.35500
8808331;-0.36000
8811109;-0.36500
8813886;-0.37000
8816664;-0.38000
8819442;-0.37500
8822220;-0.36000
8824998;-0.35500
8827775;-0.36000
8830553;-0.38500
8833331;-0.38500
8836109;-0.38500
8838886;-0.38000
8841664;-0.38000
8844442;-0.40000
8847220;-0.40500
8849998;-0.41000
8852775;-0.39500
8855553;-0.38500
8858331;-0.38500
8861109;-0.39000
8863886;-0.39500
8866664;-0.39500
8869442;-0.38000
8872220;-0.36500
8874998;-0.37500
8877775;-0.36500
8880553;-0.37000
8883331;-0.35500
8886109;-0.34500
8888886;-0.32000
8891664;-0.30500
8894442;-0.31000
8897220;-0.31000
8899998;-0.31000
8902775;-0.30000
8905553;-0.28500
8908331;-0.27500
8911109;-0.26500
8913886;-0.27000
8916664;-0.26500
8919442;-0.26000
8922220;-0.25000
8924998;-0.26500
8927775;-0.26500
8930553;-0.27000
8933331;-0.27000
8936109;-0.26000
8938886;-0.24500
8941664;-0.24500
8944442;-0.25000
8947220;-0.26000
8949997;-0.24500
8952775;-0.24500
8955553;-0.25500
8958331;-0.25500
8961109;-0.27000
8963886;-0.27000
8966664;-0.27000
8969442;-0.27000
8972220;-0.25500
8974997;-0.25500
8977775;-0.25500
8980553;-0.27000
8983331;-0.26500
8986109;-0.25000
8988886;-0.25000
8991664;-0.26500
8994442;-0.28000
8997220;-0.28500
8999997;-0.28500
9002775;-0.27500
9005553;-0.27000
9008331;-0.28000
9011109;-0.29000
9013886;-0.31000
9016664;-0.30500
9019442;-0.29000
9022220;-0.29000
9024997;-0.28500
9027775;-0.30500
9030553;-0.30500
9033331;-0.30500
9036109;-0.30000
9038886;-0.28000
9041664;-0.29500
9044442;-0.30500
9047220;-0.31500
9049997;-0.30500
9052775;-0.30500
9055553;-0.29500
9058331;-0.29000
9061109;-0.32000
9063886;-0.33000
9066664;-0.32000
9069442;-0.30000
9072220;-0.29000
9074997;-0.29000
9077775;-0.31000
9080553;-0.32500
9083331;-0.31500
9086109;-0.31000
9088886;-0.30500
9091664;-0.30500
9094442;-0.33000
9097220;-0.33000
9099997;-0.32000
9102775;-0.32000
9105553;-0.32000
9108331;-0.31500
9111109;-0.32000
9113886;-0.32500
9116664;-0.32500
9119442;-0.32000
9122220;-0.31000
9124997;-0.30500
9127775;-0.31500
9130553;-0.31000
9133331;-0.33000
9136109;-0.30500
9138886;-0.30000
9141664;-0.30000
9144442;-0.30500
9147220;-0.32000
9149997;-0.30500
9152775;-0.30500
9155553;-0.31000
9158331;-0.31000
9161109;-0.30500
9163886;-0.32000
9166664;-0.32000
9169442;-0.30500
9172220;-0.30000
9174997;-0.30000
9177775;-0.30500
9180553;-0.31500
9183331;-0.29500
9186109;-0.27500
9188886;-0.25500
9191664;-0.24500
9194442;-0.23500
9197220;-0.24000
9199997;-0.24000
9202775;-0.23000
9205553;-0.22000
9208331;-0.21000
9211109;-0.21000
9213886;-0.20500
9216664;-0.20500
9219442;-0.18500
9222220;-0.18000
9224997;-0.18000
9227775;-0.19500
9230553;-0.21000
9233331;-0.20500
9236109;-0.20000
9238886;-0.20000
9241664;-0.21500
9244442;-0.22500
9247220;-0.23500
9249997;-0.23000
9252775;-0.22500
9255553;-0.20500
9258331;-0.21500
9261109;-0.22000
9263886;-0.24500
9266664;-0.23000
9269442;-0.22000
9272220;-0.19500
9274997;-0.17500
9277775;-0.20000
9280553;-0.23500
9283331;-0.25500
9286109;-0.27000
9288886;-0.27000
9291664;-0.28000
9294442;-0.30000
9297220;-0.31000
9299997;-0.31500
9302775;-0.32500
9305553;-0.32000
9308331;-0.31500
9311109;-0.32000
9313886;-0.33000
9316664;-0.32000
9319442;-0.32000
9322220;-0.31000
9324997;-0.32000
9327775;-0.32500
9330553;-0.34500
9333331;-0.34000
9336108;-0.33500
9338886;-0.32000
9341664;-0.33000
9344442;-0.34000
9347220;-0.34500
9349997;-0.35000
9352775;-0.34500
9355553;-0.33500
9358331;-0.32500
9361108;-0.34500
9363886;-0.36000
9366664;-0.36000
9369442;-0.39000
9372220;-0.41500
9374997;-0.46000
9377775;-0.49000
9380553;-0.53000
9383331;-0.56500
9386108;-0.55000
9388886;-0.46500
9391664;-0.31500
9394442;-0.16500
9397220;-0.00500
9399997;0.22500
9402775;0.49500
9405553;0.77000
9408331;0.96500
9411108;1.05000
9413886;0.96000
9416664;0.69500
9419442;0.28500
9422220;-0.13000
9424997;-0.39000
9427775;-0.46500
9430553;-0.46000
9433331;-0.40500
9436108;-0.35000
9438886;-0.35000
9441664;-0.34500
9444442;-0.37500
9447220;-0.38000
9449997;-0.37000
9452775;-0.36500
9455553;-0.36500
9458331;-0.36500
9461108;-0.37500
9463886;-0.38500
9466664;-0.39000
9469442;-0.36500
9472220;-0.37500
9474997;-0.36500
9477775;-0.38000
9480553;-0.38000
9483331;-0.36500
9486108;-0.36000
9488886;-0.35000
9491664;-0.35500
9494442;-0.36000
9497220;-0.37000
9499997;-0.37500
9502775;-0.36500
9505553;-0.36500
9508331;-0.36500
9511108;-0.37000
9513886;-0.39000
9516664;-0.38500
9519442;-0.37500
9522220;-0.38000
9524997;-0.36500
9527775;-0.37000
9530553;-0.38500
9533331;-0.37000
9536108;-0.36500
9538886;-0.36000
9541664;-0.35500
9544442;-0.36000
9547220;-0.38000
9549997;-0.37500
9552775;-0.36500
9555553;-0.36500
9558331;-0.36000
9561108;-0.36000
9563886;-0.36500
9566664;-0.36500
9569442;-0.36000
9572220;-0.35500
9574997;-0.35500
9577775;-0.35500
9580553;-0.38000
9583331;-0.36500
9586108;-0.37500
9588886;-0.35500
9591664;-0.35000
9594442;-0.37000
9597220;-0.38500
9599997;-0.37500
9602775;-0.37000
9605553;-0.36000
9608331;-0.36000
9611108;-0.35000
9613886;-0.37500
9616664;-0.37500
9619442;-0.36000
9622220;-0.34500
9624997;-0.35000
9627775;-0.35500
9630553;-0.38000
9633331;-0.38000
9636108;-0.35500
9638886;-0.35000
9641664;-0.36500
9644442;-0.37000
9647220;-0.38500
9649997;-0.37500
9652775;-0.37500
9655553;-0.36000
9658331;-0.37500
9661108;-0.38500
9663886;-0.41500
9666664;-0.41000
9669442;-0.39500
9672220;-0.38500
9674997;-0.38000
9677775;-0.40000
9680553;-0.41500
9683331;-0.40000
9686108;-0.39500
9688886;-0.40000
9691664;-0.38500
9694442;-0.39000
9697220;-0.39500
9699997;-0.38500
9702775;-0.36500
9705553;-0.35500
9708331;-0.34500
9711108;-0.34000
9713886;-0.34000
9716664;-0.34500
9719442;-0.33500
9722220;-0.31500
9724997;-0.32000
9727775;-0.30500
9730553;-0.31000
9733331;-0.30000
9736108;-0.30000
9738886;-0.29500
9741664;-0.29500
9744442;-0.31000
9747219;-0.30500
9749997;-0.30000
9752775;-0.28000
9755553;-0.27500
9758331;-0.27500
9761108;-0.28500
9763886;-0.29500
9766664;-0.29500
9769442;-0.28500
9772219;-0.29500
9774997;-0.29000
9777775;-0.30000
9780553;-0.30500
9783331;-0.29500
9786108;-0.28500
9788886;-0.28500
9791664;-0.29000
9794442;-0.30000
9797219;-0.31000
9799997;-0.29000
9802775;-0.30000
9805553;-0.29500
9808331;-0.30500
9811108;-0.31500
9813886;-0.33500
9816664;-0.33500
9819442;-0.32500
9822219;-0.31500
9824997;-0.33500
9827775;-0.33500
9830553;-0.33000
9833331;-0.33000
9836108;-0.33000
9838886;-0.32000
9841664;-0.32000
9844442;-0.33500
9847219;-0.33500
9849997;-0.32500
9852775;-0.33000
9855553;-0.32000
9858331;-0.33000
9861108;-0.35000
9863886;-0.36500
9866664;-0.36500
9869442;-0.36500
9872219;-0.34500
9874997;-0.35000
9877775;-0.34000
9880553;-0.36000
9883331;-0.36000
9886108;-0.36000
9888886;-0.34500
9891664;-0.34000
9894442;-0.35500
9897219;-0.36500
9899997;-0.36500
9902775;-0.36500
9905553;-0.37500
9908331;-0.37500
9911108;-0.38000
9913886;-0.39000
9916664;-0.39000
9919442;-0.37000
9922219;-0.37000
9924997;-0.37500
9927775;-0.38500
9930553;-0.39500
9933331;-0.38000
9936108;-0.37500
9938886;-0.36000
9941664;-0.36000
9944442;-0.37000
9947219;-0.37500
9949997;-0.37500
9952775;-0.37500
9955553;-0.36000
9958331;-0.36000
9961108;-0.37500
9963886;-0.37500
9966664;-0.38500
9969442;-0.38000
9972219;-0.37500
9974997;-0.38000
9977775;-0.38000
9980553;-0.40000
9983331;-0.39500
9986108;-0.37500
9988886;-0.37500
9991664;-0.36500
9994442;-0.36500
9997219;-0.37000
9999997;-0.37000
10002775;-0.37000
10005553;-0.36000
10008331;-0.36000
10011108;-0.35500
10013886;-0.35000
10016664;-0.34000
10019442;-0.34500
10022219;-0.32000
10024997;-0.32000
10027775;-0.30500
10030553;-0.32000
10033331;-0.30500
10036108;-0.30500
10038886;-0.30000
10041664;-0.29500
10044442;-0.28500
10047219;-0.29000
10049997;-0.29000
10052775;-0.26500
10055553;-0.25500
10058331;-0.24000
10061108;-0.26500
10063886;-0.26000
10066664;-0.26500
10069442;-0.26000
10072219;-0.27500
10074997;-0.28500
10077775;-0.28000
10080553;-0.28000
10083331;-0.28500
10086108;-0.29000
10088886;-0.29000
10091664;-0.28500
10094442;-0.29000
10097219;-0.27500
10099997;-0.26500
10102775;-0.27000
10105553;-0.30000
10108331;-0.32000
10111108;-0.33000
10113886;-0.35000
10116664;-0.37000
10119442;-0.37000
10122219;-0.35500
10124997;-0.36500
10127775;-0.38500
10130553;-0.39500
10133330;-0.41000
10136108;-0.40500
10138886;-0.40000
10141664;-0.40500
10144442;-0.41500
10147219;-0.41500
10149997;-0.41000
10152775;-0.40500
10155553;-0.38500
10158330;-0.39500
10161108;-0.40000
10163886;-0.41500
10166664;-0.41000
10169442;-0.40000
10172219;-0.39500
10174997;-0.39000
10177775;-0.39500
10180553;-0.41000
10183330;-0.40000
10186108;-0.40000
10188886;-0.40000
10191664;-0.40500
10194442;-0.40500
10197219;-0.44000
10199997;-0.48500
10202775;-0.50500
10205553;-0.52000
10208330;-0.55000
10211108;-0.61500
10213886;-0.63500
10216664;-0.60000
10219442;-0.48000
10222219;-0.33000
10224997;-0.17000
10227775;0.00500
10230553;0.23500
10233330;0.50000
10236108;0.73500
10238886;0.89500
10241664;0.98500
10244442;1.00000
10247219;0.90500
10249997;0.68000
10252775;0.38000
10255553;0.08500
10258330;-0.18500
10261108;-0.36000
10263886;-0.49500
10266664;-0.55500
10269442;-0.56500
10272219;-0.54000
10274997;-0.47500
10277775;-0.46500
10280553;-0.47000
10283330;-0.48000
10286108;-0.46000
10288886;-0.44500
10291664;-0.44000
10294442;-0.43000
10297219;-0.44000
10299997;-0.44000
10302775;-0.44000
10305553;-0.43500
10308330;-0.45500
10311108;-0.46500
10313886;-0.46500
10316664;-0.49000
10319442;-0.47000
10322219;-0.46000
10324997;-0.46500
10327775;-0.46500
10330553;-0.48500
10333330;-0.48000
10336108;-0.47000
10338886;-0.46000
10341664;-0.46000
10344442;-0.47000
10347219;-0.48500
10349997;-0.48000
10352775;-0.46500
10355553;-0.45000
10358330;-0.44500
10361108;-0.46000
10363886;-0.47000
10366664;-0.47000
10369442;-0.45500
10372219;-0.46000
10374997;-0.47500
10377775;-0.47500
10380553;-0.47000
10383330;-0.47500
10386108;-0.46000
10388886;-0.45500
10391664;-0.44500
10394442;-0.45500
10397219;-0.47000
10399997;-0.47000
10402775;-0.48000
10405553;-0.46000
10408330;-0.47500
10411108;-0.46500
10413886;-0.49000
10416664;-0.49500
10419442;-0.48000
10422219;-0.47500
10424997;-0.48000
10427775;-0.48000
10430553;-0.48500
10433330;-0.47500
10436108;-0.47500
10438886;-0.46000
10441664;-0.46500
10444442;-0.47500
10447219;-0.48500
10449997;-0.48500
10452775;-0.48000
10455553;-0.47500
10458330;-0.48000
10461108;-0.50000
10463886;-0.53000
10466664;-0.51500
10469442;-0.51000
10472219;-0.49000
10474997;-0.49500
10477775;-0.50500
10480553;-0.52000
10483330;-0.52000
10486108;-0.52000
10488886;-0.52000
10491664;-0.53000
10494442;-0.52000
10497219;-0.53500
10499997;-0.55000
10502775;-0.55000
10505553;-0.53000
10508330;-0.53500
10511108;-0.53500
10513886;-0.56000
10516664;-0.55000
10519441;-0.53500
10522219;-0.53000
10524997;-0.54000
10527775;-0.54500
10530553;-0.54500
10533330;-0.54000
10536108;-0.53500
10538886;-0.53500
10541664;-0.53500
10544441;-0.54000
10547219;-0.53500
10549997;-0.53000
10552775;-0.51500
10555553;-0.50500
10558330;-0.49500
10561108;-0.48500
10563886;-0.47500
10566664;-0.45500
10569441;-0.44000
10572219;-0.42000
10574997;-0.41500
10577775;-0.41000
10580553;-0.42000
10583330;-0.41000
10586108;-0.40500
10588886;-0.41000
10591664;-0.39500
10594441;-0.38500
10597219;-0.37000
10599997;-0.37500
10602775;-0.37500
10605553;-0.37000
10608330;-0.37500
10611108;-0.38000
10613886;-0.40500
10616664;-0.39000
10619441;-0.37500
10622219;-0.36500
10624997;-0.36500
10627775;-0.38500
10630553;-0.40000
10633330;-0.40000
10636108;-0.37500
10638886;-0.35500
10641664;-0.37000
10644441;-0.39500
10647219;-0.41000
10649997;-0.41500
10652775;-0.40500
10655553;-0.40000
10658330;-0.39000
10661108;-0.38000
10663886;-0.39500
10666664;-0.39000
10669441;-0.39500
10672219;-0.39000
10674997;-0.38500
10677775;-0.39000
10680553;-0.41000
10683330;-0.43000
10686108;-0.45500
10688886;-0.42000
10691664;-0.40500
10694441;-0.40000
10697219;-0.40000
10699997;-0.40000
10702775;-0.40000
10705553;-0.40000
10708330;-0.41000
10711108;-0.43000
10713886;-0.44000
10716664;-0.44000
10719441;-0.41000
10722219;-0.40500
10724997;-0.41500
10727775;-0.41000
10730553;-0.41500
10733330;-0.41500
10736108;-0.41500
10738886;-0.41500
10741664;-0.42500
10744441;-0.42500
10747219;-0.42500
10749997;-0.43500
10752775;-0.42500
10755553;-0.42000
10758330;-0.42000
10761108;-0.43000
10763886;-0.43000
10766664;-0.43000
10769441;-0.42000
10772219;-0.40500
10774997;-0.41500
10777775;-0.42500
10780553;-0.42500
10783330;-0.41000
10786108;-0.40500
10788886;-0.39500
10791664;-0.40000
10794441;-0.41000
10797219;-0.42500
10799997;-0.42500
10802775;-0.42000
10805553;-0.42000
10808330;-0.42500
10811108;-0.41000
10813886;-0.42000
10816664;-0.42500
10819441;-0.44000
10822219;-0.43000
10824997;-0.42000
10827775;-0.42500
10830553;-0.41500
10833330;-0.42000
10836108;-0.40500
10838886;-0.40000
10841664;-0.39500
10844441;-0.40500
10847219;-0.41500
10849997;-0.42000
10852775;-0.41500
10855553;-0.38500
10858330;-0.37500
10861108;-0.37500
10863886;-0.35000
10866664;-0.34000
10869441;-0.33000
10872219;-0.34000
10874997;-0.34000
10877775;-0.33500
10880553;-0.31500
10883330;-0.31500
10886108;-0.30500
10888886;-0.30500
10891664;-0.30500
10894441;-0.32000
10897219;-0.33000
10899997;-0.33500
10902775;-0.31000
10905553;-0.30500
10908330;-0.32500
10911108;-0.34500
10913886;-0.34000
10916664;-0.36000
10919441;-0.36500
10922219;-0.35000
10924997;-0.32500
10927775;-0.30000
10930552;-0.29500
10933330;-0.31000
10936108;-0.33000
10938886;-0.35000
10941664;-0.37500
10944441;-0.37500
10947219;-0.38000
10949997;-0.39000
10952775;-0.40500
10955552;-0.40000
10958330;-0.41500
10961108;-0.44000
10963886;-0.45000
10966664;-0.44000
10969441;-0.43000
10972219;-0.42000
10974997;-0.44000
10977775;-0.46000
10980552;-0.47500
10983330;-0.46000
10986108;-0.44500
10988886;-0.43000
10991664;-0.42500
10994441;-0.44000
10997219;-0.45500
10999997;-0.45000
11002775;-0.45500
11005552;-0.44000
11008330;-0.43500
11011108;-0.43000
11013886;-0.43000
11016664;-0.44500
11019441;-0.44500
11022219;-0.44500
11024997;-0.44000
11027775;-0.46000
11030552;-0.48000
11033330;-0.52000
11036108;-0.54500
11038886;-0.56500
11041664;-0.60000
11044441;-0.62500
11047219;-0.62500
11049997;-0.54500
11052775;-0.40500
11055552;-0.23000
11058330;-0.05000
11061108;0.15500
11063886;0.40500
11066664;0.63500
11069441;0.82000
11072219;0.92000
11074997;0.90000
11077775;0.68000
11080552;0.31000
11083330;-0.11000
11086108;-0.40000
11088886;-0.51000
11091664;-0.54000
11094441;-0.54500
11097219;-0.54500
11099997;-0.51500
11102775;-0.47500
11105552;-0.46500
11108330;-0.46000
11111108;-0.47500
11113886;-0.49000
11116664;-0.50000
11119441;-0.47500
11122219;-0.46000
11124997;-0.46000
11127775;-0.46500
11130552;-0.47000
11133330;-0.46500
11136108;-0.44500
11138886;-0.44500
11141664;-0.46000
11144441;-0.48500
11147219;-0.49000
11149997;-0.48500
11152775;-0.46000
11155552;-0.45000
11158330;-0.46000
11161108;-0.47000
11163886;-0.47000
11166664;-0.46500
11169441;-0.46000
11172219;-0.47000
11174997;-0.48500
11177775;-0.48500
11180552;-0.48500
11183330;-0.48000
11186108;-0.44000
11188886;-0.43000
11191664;-0.44500
11194441;-0.47000
11197219;-0.48000
11199997;-0.48500
11202775;-0.46500
11205552;-0.46000
11208330;-0.48000
11211108;-0.49000
11213886;-0.50000
11216664;-0.49000
11219441;-0.47500
11222219;-0.45500
11224997;-0.46500
11227775;-0.48500
11230552;-0.48000
11233330;-0.47500
11236108;-0.44500
11238886;-0.45000
11241664;-0.47000
11244441;-0.45000
11247219;-0.44000
11249997;-0.44000
11252775;-0.43500
11255552;-0.45000
11258330;-0.46500
11261108;-0.49000
11263886;-0.49000
11266664;-0.47500
11269441;-0.45000
11272219;-0.44000
11274997;-0.44000
11277775;-0.45000
11280552;-0.47000
11283330;-0.46500
11286108;-0.44500
11288886;-0.42000
11291664;-0.42000
11294441;-0.43500
11297219;-0.47500
11299997;-0.50000
11302775;-0.49500
11305552;-0.45500
11308330;-0.45500
11311108;-0.46000
11313886;-0.49500
11316663;-0.50000
11319441;-0.49000
11322219;-0.48000
11324997;-0.48500
11327775;-0.48500
11330552;-0.51000
11333330;-0.54000
11336108;-0.54500
11338886;-0.52000
11341663;-0.51500
11344441;-0.49000
11347219;-0.50500
11349997;-0.52000
11352775;-0.54000
11355552;-0.53000
11358330;-0.54000
11361108;-0.54000
11363886;-0.54000
11366663;-0.54000
11369441;-0.51500
11372219;-0.52000
11374997;-0.53000
11377775;-0.51500
11380552;-0.49500
11383330;-0.46000
11386108;-0.45000
11388886;-0.44500
11391663;-0.43500
11394441;-0.42500
11397219;-0.41500
11399997;-0.38000
11402775;-0.34000
11405552;-0.32000
11408330;-0.34500
11411108;-0.34000
11413886;-0.35500
11416663;-0.35000
11419441;-0.33500
11422219;-0.30500
11424997;-0.31500
11427775;-0.30500
11430552;-0.29000
11433330;-0.28000
11436108;-0.26500
11438886;-0.28000
11441663;-0.29000
11444441;-0.30000
11447219;-0.30500
11449997;-0.29500
11452775;-0.28500
11455552;-0.28500
11458330;-0.32500
11461108;-0.34000
11463886;-0.34000
11466663;-0.33000
11469441;-0.28500
11472219;-0.27000
11474997;-0.28500
11477775;-0.30000
11480552;-0.34000
11483330;-0.33500
11486108;-0.31500
11488886;-0.30000
11491663;-0.31000
11494441;-0.31500
11497219;-0.31500
11499997;-0.30000
11502775;-0.28500
11505552;-0.26000
11508330;-0.26500
11511108;-0.28500
11513886;-0.31000
11516663;-0.31000
11519441;-0.29000
11522219;-0.26500
11524997;-0.26500
11527775;-0.28000
11530552;-0.31500
11533330;-0.33000
11536108;-0.31500
11538886;-0.30500
11541663;-0.29500
11544441;-0.29000
11547219;-0.30500
11549997;-0.33000
11552775;-0.34500
11555552;-0.34500
11558330;-0.33500
11561108;-0.33500
11563886;-0.31000
11566663;-0.30000
11569441;-0.28500
11572219;-0.28500
11574997;-0.29000
11577775;-0.30000
11580552;-0.32000
11583330;-0.33500
11586108;-0.32500
11588886;-0.32500
11591663;-0.33000
11594441;-0.32000
11597219;-0.30000
11599997;-0.31000
11602775;-0.31000
11605552;-0.31500
11608330;-0.31000
11611108;-0.29000
11613886;-0.30000
11616663;-0.31500
11619441;-0.32000
11622219;-0.31500
11624997;-0.30500
11627775;-0.32000
11630552;-0.32000
11633330;-0.32500
11636108;-0.31500
11638886;-0.30000
11641663;-0.29500
11644441;-0.30500
11647219;-0.33000
11649997;-0.33000
11652775;-0.31000
11655552;-0.30000
11658330;-0.31000
11661108;-0.32000
11663886;-0.32000
11666663;-0.33000
11669441;-0.31500
11672219;-0.28500
11674997;-0.28500
11677775;-0.28500
11680552;-0.29500
11683330;-0.29000
11686108;-0.28000
11688886;-0.25500
11691663;-0.24500
11694441;-0.24500
11697219;-0.25500
11699997;-0.25500
11702775;-0.25000
11705552;-0.23000
11708330;-0.22500
11711108;-0.22000
11713886;-0.22500
11716663;-0.21500
11719441;-0.20500
11722219;-0.20000
11724997;-0.19500
11727774;-0.21500
11730552;-0.23000
11733330;-0.23000
11736108;-0.23000
11738886;-0.22000
11741663;-0.22500
11744441;-0.22000
11747219;-0.23000
11749997;-0.24000
11752774;-0.25000
11755552;-0.24000
11758330;-0.23000
11761108;-0.23000
11763886;-0.24000
11766663;-0.26500
11769441;-0.28500
11772219;-0.29500
11774997;-0.30500
11777774;-0.33000
11780552;-0.34500
11783330;-0.35000
11786108;-0.34500
11788886;-0.33000
11791663;-0.33500
11794441;-0.33500
11797219;-0.34000
11799997;-0.34000
11802774;-0.34000
11805552;-0.34000
11808330;-0.34000
11811108;-0.34500
11813886;-0.36000
11816663;-0.36000
11819441;-0.35500
11822219;-0.36000
11824997;-0.35000
11827774;-0.36000
11830552;-0.36000
11833330;-0.37000
11836108;-0.35500
11838886;-0.35500
11841663;-0.35500
11844441;-0.37000
11847219;-0.37000
11849997;-0.36500
11852774;-0.37500
11855552;-0.38000
11858330;-0.43000
11861108;-0.46000
11863886;-0.48500
11866663;-0.52000
11869441;-0.55000
11872219;-0.51500
11874997;-0.43500
11877774;-0.28000
11880552;-0.10000
11883330;0.10000
11886108;0.33500
11888886;0.59000
11891663;0.82000
11894441;0.99000
11897219;1.10000
11899997;1.09500
11902774;0.88500
11905552;0.45000
11908330;-0.06000
11911108;-0.41000
11913886;-0.52500
11916663;-0.50000
11919441;-0.43000
11922219;-0.39500
11924997;-0.37500
11927774;-0.38000
11930552;-0.39000
11933330;-0.39500
11936108;-0.39000
11938886;-0.38000
11941663;-0.37500
11944441;-0.38000
11947219;-0.39000
11949997;-0.39000
11952774;-0.39500
11955552;-0.38000
11958330;-0.39000
11961108;-0.39000
11963886;-0.40500
11966663;-0.41500
11969441;-0.41000
11972219;-0.39000
11974997;-0.40500
11977774;-0.41000
11980552;-0.41500
11983330;-0.41500
11986108;-0.40500
11988886;-0.40000
11991663;-0.41000
11994441;-0.42500
11997219;-0.42000
11999997;-0.42000
12002774;-0.41500
12005552;-0.40000
12008330;-0.40000
12011108;-0.40000
12013886;-0.39500
12016663;-0.41000
12019441;-0.39000
12022219;-0.38500
12024997;-0.39500
12027774;-0.40500
12030552;-0.40000
12033330;-0.41000
12036108;-0.40000
12038886;-0.39000
12041663;-0.40000
12044441;-0.40500
12047219;-0.41000
12049997;-0.41500
12052774;-0.40500
12055552;-0.39000
12058330;-0.40000
12061108;-0.41000
12063886;-0.41500
12066663;-0.42500
12069441;-0.42000
12072219;-0.41500
12074997;-0.41000
12077774;-0.43500
12080552;-0.43000
12083330;-0.42500
12086108;-0.42500
12088886;-0.40000
12091663;-0.40500
12094441;-0.40500
12097219;-0.41500
12099997;-0.41500
12102774;-0.40500
12105552;-0.39500
12108330;-0.41000
12111108;-0.42500
12113885;-0.44000
12116663;-0.43500
12119441;-0.42500
12122219;-0.40500
12124997;-0.41500
12127774;-0.42000
12130552;-0.42500
12133330;-0.44000
12136108;-0.44500
12138885;-0.44000
12141663;-0.44000
12144441;-0.46000
12147219;-0.48500
12149997;-0.49500
12152774;-0.49500
12155552;-0.46500
12158330;-0.47500
12161108;-0.48000
12163885;-0.49000
12166663;-0.48000
12169441;-0.48000
12172219;-0.46500
12174997;-0.46000
12177774;-0.45000
12180552;-0.46500
12183330;-0.46000
12186108;-0.43500
12188885;-0.41500
12191663;-0.42500
12194441;-0.41000
12197219;-0.40000
12199997;-0.38000
12202774;-0.37500
12205552;-0.34000
12208330;-0.33500
12211108;-0.33000
12213885;-0.32500
12216663;-0.31500
12219441;-0.30000
12222219;-0.27500
12224997;-0.28500
12227774;-0.29000
12230552;-0.28500
12233330;-0.30000
12236108;-0.28000
12238885;-0.26500
12241663;-0.27500
12244441;-0.28000
12247219;-0.28000
12249997;-0.29000
12252774;-0.27500
12255552;-0.27000
12258330;-0.25000
12261108;-0.26500
12263885;-0.26500
12266663;-0.28000
12269441;-0.26000
12272219;-0.26000
12274997;-0.25500
12277774;-0.26000
12280552;-0.29000
12283330;-0.27000
12286108;-0.26500
12288885;-0.26000
12291663;-0.25500
12294441;-0.25500
12297219;-0.27000
12299997;-0.26500
12302774;-0.26000
12305552;-0.25500
12308330;-0.26000
12311108;-0.27000
12313885;-0.28500
12316663;-0.29000
12319441;-0.29000
12322219;-0.27500
12324997;-0.27000
12327774;-0.28500
12330552;-0.29000
12333330;-0.29500
12336108;-0.29000
12338885;-0.28500
12341663;-0.28500
12344441;-0.30000
12347219;-0.31500
12349997;-0.30500
12352774;-0.29000
12355552;-0.28500
12358330;-0.29000
12361108;-0.30000
12363885;-0.32000
12366663;-0.30500
12369441;-0.30000
12372219;-0.30000
12374997;-0.29000
12377774;-0.30000
12380552;-0.30500
12383330;-0.32500
12386108;-0.30500
12388885;-0.29500
12391663;-0.30000
12394441;-0.31000
12397219;-0.31500
12399997;-0.33500
12402774;-0.32000
12405552;-0.31000
12408330;-0.31500
12411108;-0.32000
12413885;-0.33500
12416663;-0.33500
12419441;-0.32500
12422219;-0.31500
12424997;-0.32000
12427774;-0.33000
12430552;-0.33000
12433330;-0.33000
12436108;-0.31500
12438885;-0.30000
12441663;-0.31000
12444441;-0.30000
12447219;-0.31500
12449997;-0.32000
12452774;-0.30500
12455552;-0.29500
12458330;-0.30000
12461108;-0.32000
12463885;-0.32000
12466663;-0.30500
12469441;-0.30500
12472219;-0.30500
12474997;-0.30000
12477774;-0.31000
12480552;-0.32000
12483330;-0.31500
12486108;-0.29500
12488885;-0.27500
12491663;-0.27000
12494441;-0.26000
12497219;-0.26500
12499996;-0.26000
12502774;-0.24500
12505552;-0.23000
12508330;-0.23000
12511108;-0.22500
12513885;-0.22000
12516663;-0.21000
12519441;-0.19500
12522219;-0.19500
12524996;-0.20000
12527774;-0.20000
12530552;-0.21500
12533330;-0.21500
12536108;-0.21500
12538885;-0.20500
12541663;-0.20500
12544441;-0.23000
12547219;-0.24000
12549996;-0.23500
12552774;-0.22500
12555552;-0.22000
12558330;-0.22000
12561108;-0.24000
12563885;-0.25000
12566663;-0.24500
12569441;-0.21000
12572219;-0.18500
12574996;-0.18000
12577774;-0.21000
12580552;-0.25000
12583330;-0.29000
12586108;-0.29000
12588885;-0.28000
12591663;-0.30500
12594441;-0.32000
12597219;-0.33000
12599996;-0.34500
12602774;-0.33500
12605552;-0.32000
12608330;-0.33000
12611108;-0.33500
12613885;-0.34500
12616663;-0.35500
12619441;-0.36000
12622219;-0.35000
12624996;-0.35000
12627774;-0.36500
12630552;-0.36500
12633330;-0.37000
12636108;-0.35500
12638885;-0.35000
12641663;-0.36000
12644441;-0.35000
12647219;-0.36000
12649996;-0.36000
12652774;-0.34500
12655552;-0.35000
12658330;-0.35000
12661108;-0.37500
12663885;-0.42500
12666663;-0.46000
12669441;-0.48000
12672219;-0.50500
12674996;-0.52500
12677774;-0.56000
12680552;-0.52500
12683330;-0.38000
12686108;-0.16500
12688885;0.07000
12691663;0.29000
12694441;0.54000
12697219;0.81000
12699996;1.05500
12702774;1.23000
12705552;1.33500
12708330;1.37500
12711108;1.29500
12713885;0.98500
12716663;0.48000
12719441;-0.01000
12722219;-0.34000
12724996;-0.47000
12727774;-0.47000
12730552;-0.42500
12733330;-0.37000
12736108;-0.33500
12738885;-0.32500
12741663;-0.35000
12744441;-0.35000
12747219;-0.36000
12749996;-0.37500
12752774;-0.37500
12755552;-0.37000
12758330;-0.37500
12761108;-0.38500
12763885;-0.40000
12766663;-0.40500
12769441;-0.40000
12772219;-0.39500
12774996;-0.40000
12777774;-0.41000
12780552;-0.41000
12783330;-0.42500
12786108;-0.40500
12788885;-0.40000
12791663;-0.41000
12794441;-0.40500
12797219;-0.41500
12799996;-0.41500
12802774;-0.42000
12805552;-0.39500
12808330;-0.40000
12811108;-0.41500
12813885;-0.40000
12816663;-0.41000
12819441;-0.39500
12822219;-0.39500
12824996;-0.38500
12827774;-0.40000
12830552;-0.40500
12833330;-0.41000
12836108;-0.39500
12838885;-0.39000
12841663;-0.39000
12844441;-0.39500
12847219;-0.40500
12849996;-0.40000
12852774;-0.40000
12855552;-0.38500
12858330;-0.39000
12861108;-0.40000
12863885;-0.40500
12866663;-0.42000
12869441;-0.40000
12872219;-0.40500
12874996;-0.40500
12877774;-0.40500
12880552;-0.41500
12883330;-0.42000
12886108;-0.41500
12888885;-0.40500
12891663;-0.40000
12894441;-0.39500
12897219;-0.40500
12899996;-0.42000
12902774;-0.40500
12905552;-0.40000
12908330;-0.40000
12911107;-0.40000
12913885;-0.41500
12916663;-0.42500
12919441;-0.40500
12922219;-0.39500
12924996;-0.40000
12927774;-0.41000
12930552;-0.43000
12933330;-0.42500
12936107;-0.41500
12938885;-0.41000
12941663;-0.41500
12944441;-0.43500
12947219;-0.45500
12949996;-0.45500
12952774;-0.44000
12955552;-0.43500
12958330;-0.43500
12961107;-0.43000
12963885;-0.44000
12966663;-0.44500
12969441;-0.43000
12972219;-0.41500
12974996;-0.42500
12977774;-0.42500
12980552;-0.43000
12983330;-0.43000
12986107;-0.41000
12988885;-0.40000
12991663;-0.40500
12994441;-0.40000
12997219;-0.39500
12999996;-0.37500
13002774;-0.35000
13005552;-0.34000
13008330;-0.33000
13011107;-0.32500
13013885;-0.33500
13016663;-0.32000
13019441;-0.31500
13022219;-0.30500
13024996;-0.30500
13027774;-0.29500
13030552;-0.30000
13033330;-0.31000
13036107;-0.30000
13038885;-0.29000
13041663;-0.28000
13044441;-0.29500
13047219;-0.29500
13049996;-0.29000
13052774;-0.28500
13055552;-0.27500
13058330;-0.27000
13061107;-0.27500
13063885;-0.27500
13066663;-0.29500
13069441;-0.27500
13072219;-0.27500
13074996;-0.28000
13077774;-0.28000
13080552;-0.28500
13083330;-0.29000
13086107;-0.28500
13088885;-0.28000
13091663;-0.27000
13094441;-0.29000
13097219;-0.29500
13099996;-0.30000
13102774;-0.29500
13105552;-0.29000
13108330;-0.29500
13111107;-0.31000
13113885;-0.31000
13116663;-0.31500
13119441;-0.30500
13122219;-0.30500
13124996;-0.31000
13127774;-0.31000
13130552;-0.32500
13133330;-0.32500
13136107;-0.32000
13138885;-0.31500
13141663;-0.30500
13144441;-0.31000
13147219;-0.32500
13149996;-0.32500
13152774;-0.32500
13155552;-0.31500
13158330;-0.31500
13161107;-0.32500
13163885;-0.33000
13166663;-0.34000
13169441;-0.33000
13172219;-0.31000
13174996;-0.31000
13177774;-0.32000
13180552;-0.32000
13183330;-0.33000
13186107;-0.32000
13188885;-0.33000
13191663;-0.31500
13194441;-0.33000
13197219;-0.35000
13199996;-0.35500
13202774;-0.35000
13205552;-0.33500
13208330;-0.33000
13211107;-0.34500
13213885;-0.35500
13216663;-0.35500
13219441;-0.33500
13222219;-0.33000
13224996;-0.33000
13227774;-0.34000
13230552;-0.34000
13233330;-0.33500
13236107;-0.33500
13238885;-0.32500
13241663;-0.33000
13244441;-0.32000
13247219;-0.33000
13249996;-0.34000
13252774;-0.32500
13255552;-0.32000
13258330;-0.33000
13261107;-0.32500
13263885;-0.34000
13266663;-0.33000
13269441;-0.33000
13272219;-0.32000
13274996;-0.32000
13277774;-0.33000
13280552;-0.33000
13283330;-0.33000
13286107;-0.31000
13288885;-0.28000
13291663;-0.27500
13294441;-0.26000
13297218;-0.26000
13299996;-0.25500
13302774;-0.24000
13305552;-0.23000
13308330;-0.23500
13311107;-0.22500
13313885;-0.24000
13316663;-0.22500
13319441;-0.21500
13322218;-0.20000
13324996;-0.21500
13327774;-0.21500
13330552;-0.21500
13333330;-0.23500
13336107;-0.23500
13338885;-0.23500
13341663;-0.21500
13344441;-0.23000
13347218;-0.24000
13349996;-0.24500
13352774;-0.24000
13355552;-0.23000
13358330;-0.23500
13361107;-0.23500
13363885;-0.24000
13366663;-0.24500
13369441;-0.22000
13372218;-0.19000
13374996;-0.19000
13377774;-0.21500
13380552;-0.25500
13383330;-0.28000
13386107;-0.28000
13388885;-0.28500
13391663;-0.30000
13394441;-0.33500
13397218;-0.34000
13399996;-0.36000
13402774;-0.34500
13405552;-0.33500
13408330;-0.33500
13411107;-0.35000
13413885;-0.35500
13416663;-0.36500
13419441;-0.34500
13422218;-0.34000
13424996;-0.34000
13427774;-0.35500
13430552;-0.36000
13433330;-0.36000
13436107;-0.35500
13438885;-0.35000
13441663;-0.35500
13444441;-0.34500
13447218;-0.35500
13449996;-0.35500
13452774;-0.35000
13455552;-0.35000
13458330;-0.37000
13461107;-0.41000
13463885;-0.47500
13466663;-0.49000
13469441;-0.51500
13472218;-0.55500
13474996;-0.56500
13477774;-0.49000
13480552;-0.35000
13483330;-0.16000
13486107;0.06000
13488885;0.32000
13491663;0.62000
13494441;0.88500
13497218;1.03000
13499996;1.02500
13502774;0.82500
13505552;0.41500
13508330;-0.06500
13511107;-0.40500
13513885;-0.53000
13516663;-0.50000
13519441;-0.45500
13522218;-0.40500
13524996;-0.38500
13527774;-0.38000
13530552;-0.38500
13533330;-0.39000
13536107;-0.38500
13538885;-0.38500
13541663;-0.38000
13544441;-0.39500
13547218;-0.40500
13549996;-0.42500
13552774;-0.41500
13555552;-0.41000
13558330;-0.41500
13561107;-0.42500
13563885;-0.42000
13566663;-0.42000
13569441;-0.42500
13572218;-0.42000
13574996;-0.40500
13577774;-0.40500
13580552;-0.42000
13583330;-0.42000
13586107;-0.41000
13588885;-0.40000
13591663;-0.40000
13594441;-0.41000
13597218;-0.41500
13599996;-0.42000
13602774;-0.41000
13605552;-0.39500
13608330;-0.40000
13611107;-0.39500
13613885;-0.41500
13616663;-0.42500
13619441;-0.40000
13622218;-0.39500
13624996;-0.39500
13627774;-0.39500
13630552;-0.41500
13633330;-0.41500
13636107;-0.42000
13638885;-0.40000
13641663;-0.40000
13644441;-0.40500
13647218;-0.42000
13649996;-0.41500
13652774;-0.41000
13655552;-0.40000
13658330;-0.39500
13661107;-0.40000
13663885;-0.41500
13666663;-0.40000
13669441;-0.39500
13672218;-0.38500
13674996;-0.38500
13677774;-0.40000
13680552;-0.39500
13683330;-0.41500
13686107;-0.40000
13688885;-0.38000
13691663;-0.38000
13694441;-0.38500
13697218;-0.39000
13699996;-0.40500
13702774;-0.38500
13705552;-0.38000
13708329;-0.37500
13711107;-0.39500
13713885;-0.39000
13716663;-0.40000
13719441;-0.39000
13722218;-0.39500
13724996;-0.39000
13727774;-0.41000
13730552;-0.41000
13733329;-0.41500
13736107;-0.40000
13738885;-0.40000
13741663;-0.41000
13744441;-0.40500
13747218;-0.40500
13749996;-0.40500
13752774;-0.38500
13755552;-0.37500
13758329;-0.39500
13761107;-0.39500
13763885;-0.39500
13766663;-0.38000
13769441;-0.38000
13772218;-0.36000
13774996;-0.36500
13777774;-0.36500
13780552;-0.38500
13783329;-0.37000
13786107;-0.35500
13788885;-0.33000
13791663;-0.32500
13794441;-0.32500
13797218;-0.32500
13799996;-0.32500
13802774;-0.30000
13805552;-0.28500
13808329;-0.27500
13811107;-0.27500
13813885;-0.27000
13816663;-0.27500
13819441;-0.27000
13822218;-0.24000
13824996;-0.23500
13827774;-0.25500
13830552;-0.26000
13833329;-0.26500
13836107;-0.25500
13838885;-0.25500
13841663;-0.25500
13844441;-0.27000
13847218;-0.27000
13849996;-0.26000
13852774;-0.26000
13855552;-0.27000
13858329;-0.26500
13861107;-0.28000
13863885;-0.28000
13866663;-0.28500
13869441;-0.28000
13872218;-0.28000
13874996;-0.26500
13877774;-0.29500
13880552;-0.30500
13883329;-0.30000
13886107;-0.28500
13888885;-0.27000
13891663;-0.28000
13894441;-0.27500
13897218;-0.28500
13899996;-0.30000
13902774;-0.29000
13905552;-0.29500
13908329;-0.31000
13911107;-0.32000
13913885;-0.33000
13916663;-0.33500
13919441;-0.31000
13922218;-0.31500
13924996;-0.31500
13927774;-0.32000
13930552;-0.32500
13933329;-0.31500
13936107;-0.33500
13938885;-0.33000
13941663;-0.34500
13944441;-0.35500
13947218;-0.36000
13949996;-0.36000
13952774;-0.34500
13955552;-0.33000
13958329;-0.32500
13961107;-0.33500
13963885;-0.34500
13966663;-0.34500
13969441;-0.33500
13972218;-0.32500
13974996;-0.34000
13977774;-0.35000
13980552;-0.38000
13983329;-0.39000
13986107;-0.39000
13988885;-0.37500
13991663;-0.36000
13994441;-0.36000
13997218;-0.36500
13999996;-0.37000
14002774;-0.36500
14005552;-0.34500
14008329;-0.35500
14011107;-0.34500
14013885;-0.34500
14016663;-0.34000
14019441;-0.33500
14022218;-0.34000
14024996;-0.34500
14027774;-0.34500
14030552;-0.35000
14033329;-0.36000
14036107;-0.36000
14038885;-0.35500
14041663;-0.35000
14044441;-0.35000
14047218;-0.35500
14049996;-0.36000
14052774;-0.37500
14055552;-0.35500
14058329;-0.34500
14061107;-0.35500
14063885;-0.36000
14066663;-0.34500
14069441;-0.33000
14072218;-0.30000
14074996;-0.29000
14077774;-0.27500
14080552;-0.29500
14083329;-0.30000
14086107;-0.28500
14088885;-0.28500
14091663;-0.27000
14094440;-0.27500
14097218;-0.27500
14099996;-0.28000
14102774;-0.27000
14105552;-0.26000
14108329;-0.26500
14111107;-0.28500
14113885;-0.30500
14116663;-0.32000
14119440;-0.30500
14122218;-0.30500
14124996;-0.32500
14127774;-0.30500
14130552;-0.28000
14133329;-0.27000
14136107;-0.28500
14138885;-0.31500
14141663;-0.34000
14144440;-0.35500
14147218;-0.38000
14149996;-0.39500
14152774;-0.42000
14155552;-0.42500
14158329;-0.43500
14161107;-0.45500
14163885;-0.45500
14166663;-0.45500
14169440;-0.45000
14172218;-0.43000
14174996;-0.40500
14177774;-0.41000
14180552;-0.42000
14183329;-0.43000
14186107;-0.42000
14188885;-0.42500
14191663;-0.44500
14194440;-0.44000
14197218;-0.43000
14199996;-0.43000
14202774;-0.41000
14205552;-0.41000
14208329;-0.43000
14211107;-0.44500
14213885;-0.47000
14216663;-0.47000
14219440;-0.46000
14222218;-0.46500
14224996;-0.46500
14227774;-0.51500
14230552;-0.54500
14233329;-0.58500
14236107;-0.60000
14238885;-0.62000
14241663;-0.58500
14244440;-0.49000
14247218;-0.36500
14249996;-0.19500
14252774;0.04000
14255552;0.32000
14258329;0.60000
14261107;0.79000
14263885;0.88500
14266663;0.81000
14269440;0.55000
14272218;0.15000
14274996;-0.25500
14277774;-0.49500
14280552;-0.59000
14283329;-0.57500
14286107;-0.51500
14288885;-0.47500
14291663;-0.47000
14294440;-0.48000
14297218;-0.50000
14299996;-0.50000
14302774;-0.49000
14305552;-0.46500
14308329;-0.46000
14311107;-0.46000
14313885;-0.47000
14316663;-0.46500
14319440;-0.46000
14322218;-0.48000
14324996;-0.47000
14327774;-0.46000
14330552;-0.44500
14333329;-0.43500
14336107;-0.45500
14338885;-0.46500
14341663;-0.47000
14344440;-0.48000
14347218;-0.47500
14349996;-0.49000
14352774;-0.46000
14355552;-0.44500
14358329;-0.45500
14361107;-0.48500
14363885;-0.49500
14366663;-0.51000
14369440;-0.50500
14372218;-0.47500
14374996;-0.46500
14377774;-0.47500
14380552;-0.49000
14383329;-0.52000
14386107;-0.50000
14388885;-0.46500
14391663;-0.44000
14394440;-0.46000
14397218;-0.50500
