time_ms;ecg_value
0;-0.50500
2778;-0.51000
5556;-0.53000
8333;-0.53000
11111;-0.54500
13889;-0.52500
16667;-0.51000
19444;-0.50500
22222;-0.52000
25000;-0.53000
27778;-0.52000
30556;-0.51000
33333;-0.51500
36111;-0.51500
38889;-0.50500
41667;-0.50500
44444;-0.50000
47222;-0.50500
50000;-0.50500
52778;-0.51000
55556;-0.52000
58333;-0.54000
61111;-0.54000
63889;-0.54500
66667;-0.54000
69444;-0.56000
72222;-0.57000
75000;-0.58500
77778;-0.58500
80556;-0.57500
83333;-0.58000
86111;-0.58500
88889;-0.59500
91667;-0.60000
94444;-0.59500
97222;-0.58500
100000;-0.58500
102778;-0.58000
105556;-0.56500
108333;-0.57000
111111;-0.56500
113889;-0.54500
116667;-0.53500
119444;-0.51500
122222;-0.50500
125000;-0.50500
127778;-0.47500
130556;-0.45000
133333;-0.43000
136111;-0.43000
138889;-0.43500
141667;-0.45000
144444;-0.44500
147222;-0.42000
150000;-0.41000
152778;-0.41500
155556;-0.41500
158333;-0.41000
161111;-0.40500
163889;-0.39500
166667;-0.39500
169444;-0.39000
172222;-0.40000
175000;-0.41000
177778;-0.40500
180556;-0.37000
183333;-0.38000
186111;-0.37000
188889;-0.39500
191667;-0.40500
194444;-0.41000
197222;-0.40500
200000;-0.40500
202778;-0.40000
205555;-0.42000
208333;-0.42000
211111;-0.41000
213889;-0.39000
216667;-0.39500
219444;-0.39500
222222;-0.40000
225000;-0.40500
227778;-0.40500
230555;-0.39500
233333;-0.39000
236111;-0.40000
238889;-0.41500
241667;-0.43500
244444;-0.41500
247222;-0.40500
250000;-0.41000
252778;-0.41500
255555;-0.41000
258333;-0.41500
261111;-0.40000
263889;-0.41500
266667;-0.42000
269444;-0.43500
272222;-0.46000
275000;-0.44500
277778;-0.44000
280555;-0.44500
283333;-0.45000
286111;-0.45000
288889;-0.46000
291667;-0.47500
294444;-0.47000
297222;-0.46000
300000;-0.45500
302778;-0.45000
305555;-0.44500
308333;-0.44500
311111;-0.44500
313889;-0.44500
316667;-0.44500
319444;-0.44500
322222;-0.45500
325000;-0.46000
327778;-0.45500
330555;-0.44000
333333;-0.43500
336111;-0.44500
338889;-0.45500
341667;-0.47000
344444;-0.46500
347222;-0.46000
350000;-0.45500
352778;-0.46000
355555;-0.46500
358333;-0.46500
361111;-0.45000
363889;-0.45000
366667;-0.44500
369444;-0.45000
372222;-0.46000
375000;-0.45500
377778;-0.44000
380555;-0.43500
383333;-0.43500
386111;-0.43000
388889;-0.43000
391667;-0.43000
394444;-0.41000
397222;-0.40000
400000;-0.39500
402778;-0.38000
405555;-0.38000
408333;-0.38500
411111;-0.37500
413889;-0.36000
416667;-0.34500
419444;-0.34500
422222;-0.35000
425000;-0.35500
427778;-0.33500
430555;-0.32500
433333;-0.31500
436111;-0.33000
438889;-0.34000
441667;-0.34000
444444;-0.32500
447222;-0.33000
450000;-0.33000
452778;-0.32500
455555;-0.33000
458333;-0.34500
461111;-0.35500
463889;-0.35500
466667;-0.35000
469444;-0.33000
472222;-0.32000
475000;-0.32000
477778;-0.33500
480555;-0.35500
483333;-0.37000
486111;-0.38000
488889;-0.43000
491667;-0.43500
494444;-0.43000
497222;-0.42500
500000;-0.43000
502778;-0.44000
505555;-0.45000
508333;-0.45500
511111;-0.44500
513889;-0.43500
516667;-0.44000
519444;-0.45000
522222;-0.45500
525000;-0.46500
527778;-0.45500
530555;-0.44500
533333;-0.44000
536111;-0.45500
538889;-0.46500
541667;-0.47000
544444;-0.47000
547222;-0.45000
550000;-0.44500
552778;-0.44000
555555;-0.45500
558333;-0.46000
561111;-0.45500
563889;-0.47000
566667;-0.51000
569444;-0.54000
572222;-0.56500
575000;-0.60000
577778;-0.61000
580555;-0.63500
583333;-0.67500
586111;-0.67500
588889;-0.64000
591667;-0.59000
594444;-0.47000
597222;-0.33500
600000;-0.19000
602778;-0.02000
605555;0.18000
608333;0.42000
611111;0.67500
613889;0.85500
616666;0.95000
619444;0.88500
622222;0.63500
625000;0.22000
627778;-0.19500
630555;-0.45000
633333;-0.54000
636111;-0.54000
638889;-0.52000
641666;-0.48500
644444;-0.45500
647222;-0.44500
650000;-0.43500
652778;-0.45500
655555;-0.46000
658333;-0.45500
661111;-0.45500
663889;-0.45000
666666;-0.44000
669444;-0.45500
672222;-0.47000
675000;-0.46500
677778;-0.47000
680555;-0.46000
683333;-0.46000
686111;-0.46000
688889;-0.47000
691666;-0.47500
694444;-0.46000
697222;-0.45500
700000;-0.46000
702778;-0.45500
705555;-0.46500
708333;-0.47500
711111;-0.46500
713889;-0.46000
716666;-0.45500
719444;-0.46000
722222;-0.45500
725000;-0.46000
727778;-0.45500
730555;-0.44000
733333;-0.43500
736111;-0.44500
738889;-0.45500
741666;-0.45000
744444;-0.45000
747222;-0.44000
750000;-0.43500
752778;-0.44000
755555;-0.46000
758333;-0.46000
761111;-0.45000
763889;-0.44000
766666;-0.44000
769444;-0.45000
772222;-0.45500
775000;-0.46500
777778;-0.46000
780555;-0.44500
783333;-0.44500
786111;-0.45000
788889;-0.46500
791666;-0.46500
794444;-0.44500
797222;-0.44000
800000;-0.43000
802778;-0.43500
805555;-0.44500
808333;-0.44500
811111;-0.44000
813889;-0.43500
816666;-0.43500
819444;-0.45000
822222;-0.44500
825000;-0.46000
827778;-0.45500
830555;-0.44500
833333;-0.45000
836111;-0.46500
838889;-0.46500
841666;-0.47000
844444;-0.45500
847222;-0.45000
850000;-0.44500
852778;-0.46500
855555;-0.48500
858333;-0.48000
861111;-0.48000
863889;-0.46500
866666;-0.47000
869444;-0.46000
872222;-0.47500
875000;-0.48500
877778;-0.48500
880555;-0.47500
883333;-0.46500
886111;-0.47500
888889;-0.50000
891666;-0.50000
894444;-0.48500
897222;-0.47500
900000;-0.47000
902778;-0.47000
905555;-0.47000
908333;-0.46000
911111;-0.44000
913889;-0.42000
916666;-0.40500
919444;-0.40500
922222;-0.40500
925000;-0.39500
927778;-0.38000
930555;-0.36000
933333;-0.35500
936111;-0.34500
938889;-0.34500
941666;-0.34500
944444;-0.34500
947222;-0.33000
950000;-0.34000
952778;-0.33000
955555;-0.33000
958333;-0.32500
961111;-0.32000
963889;-0.30500
966666;-0.31500
969444;-0.31000
972222;-0.31500
975000;-0.32500
977778;-0.31500
980555;-0.31000
983333;-0.31000
986111;-0.31500
988889;-0.32500
991666;-0.34500
994444;-0.33500
997222;-0.32000
1000000;-0.31500
1002777;-0.32500
1005555;-0.33500
1008333;-0.34000
1011111;-0.33500
1013889;-0.32500
1016666;-0.32000
1019444;-0.32500
1022222;-0.33500
1025000;-0.33000
1027777;-0.32500
1030555;-0.33000
1033333;-0.32500
1036111;-0.32000
1038889;-0.33000
1041666;-0.33500
1044444;-0.32000
1047222;-0.32500
1050000;-0.32500
1052777;-0.32500
1055555;-0.34000
1058333;-0.34000
1061111;-0.34000
1063889;-0.34000
1066666;-0.33500
1069444;-0.34500
1072222;-0.35000
1075000;-0.35500
1077777;-0.35000
1080555;-0.36500
1083333;-0.35000
1086111;-0.34500
1088889;-0.35000
1091666;-0.36000
1094444;-0.35500
1097222;-0.34000
1100000;-0.33500
1102777;-0.34500
1105555;-0.35500
1108333;-0.36000
1111111;-0.36500
1113889;-0.36000
1116666;-0.34000
1119444;-0.34500
1122222;-0.35500
1125000;-0.36000
1127777;-0.35000
1130555;-0.34500
1133333;-0.35000
1136111;-0.35500
1138889;-0.35500
1141666;-0.36500
1144444;-0.36000
1147222;-0.33500
1150000;-0.33500
1152777;-0.33500
1155555;-0.34500
1158333;-0.34500
1161111;-0.34500
1163889;-0.34500
1166666;-0.33500
1169444;-0.34000
1172222;-0.34500
1175000;-0.34500
1177777;-0.33000
1180555;-0.32000
1183333;-0.33500
1186111;-0.34000
1188889;-0.34000
1191666;-0.35000
1194444;-0.35000
1197222;-0.34500
1200000;-0.34500
1202777;-0.35500
1205555;-0.36000
1208333;-0.36000
1211111;-0.36000
1213889;-0.34000
1216666;-0.35000
1219444;-0.34500
1222222;-0.34000
1225000;-0.35500
1227777;-0.34500
1230555;-0.33000
1233333;-0.33000
1236111;-0.31500
1238889;-0.31000
1241666;-0.31000
1244444;-0.27500
1247222;-0.27000
1250000;-0.26500
1252777;-0.25500
1255555;-0.26000
1258333;-0.26500
1261111;-0.25500
1263889;-0.23500
1266666;-0.24000
1269444;-0.24000
1272222;-0.23500
1275000;-0.23500
1277777;-0.22500
1280555;-0.22500
1283333;-0.23500
1286111;-0.23500
1288889;-0.26000
1291666;-0.27000
1294444;-0.26500
1297222;-0.26000
1300000;-0.23500
1302777;-0.25000
1305555;-0.26500
1308333;-0.28000
1311111;-0.26000
1313889;-0.22500
1316666;-0.20500
1319444;-0.20500
1322222;-0.21500
1325000;-0.25000
1327777;-0.27500
1330555;-0.27000
1333333;-0.28000
1336111;-0.28000
1338889;-0.30000
1341666;-0.32000
1344444;-0.33000
1347222;-0.32500
1350000;-0.33000
1352777;-0.34000
1355555;-0.35000
1358333;-0.35500
1361111;-0.35500
1363889;-0.34000
1366666;-0.34000
1369444;-0.34500
1372222;-0.35000
1375000;-0.37000
1377777;-0.36500
1380555;-0.36000
1383333;-0.35500
1386111;-0.36000
1388888;-0.36500
1391666;-0.38500
1394444;-0.37500
1397222;-0.36000
1400000;-0.35500
1402777;-0.36000
1405555;-0.36500
1408333;-0.38000
1411111;-0.36000
1413888;-0.35500
1416666;-0.35000
1419444;-0.36500
1422222;-0.37500
1425000;-0.41000
1427777;-0.44500
1430555;-0.47500
1433333;-0.49000
1436111;-0.51000
1438888;-0.55500
1441666;-0.56500
1444444;-0.51000
1447222;-0.40000
1450000;-0.24500
1452777;-0.08500
1455555;0.07500
1458333;0.28500
1461111;0.55500
1463888;0.82500
1466666;1.01000
1469444;1.12000
1472222;1.14000
1475000;1.00000
1477777;0.68000
1480555;0.24000
1483333;-0.17000
1486111;-0.40500
1488888;-0.47500
1491666;-0.43500
1494444;-0.37500
1497222;-0.34500
1500000;-0.35000
1502777;-0.37500
1505555;-0.37000
1508333;-0.38000
1511111;-0.37500
1513888;-0.37000
1516666;-0.38000
1519444;-0.38000
1522222;-0.38500
1525000;-0.39000
1527777;-0.38500
1530555;-0.37000
1533333;-0.37500
1536111;-0.37500
1538888;-0.40500
1541666;-0.40500
1544444;-0.40500
1547222;-0.40000
1550000;-0.39500
1552777;-0.39500
1555555;-0.40000
1558333;-0.41000
1561111;-0.40500
1563888;-0.40000
1566666;-0.40500
1569444;-0.40000
1572222;-0.41500
1575000;-0.42000
1577777;-0.40500
1580555;-0.39500
1583333;-0.40000
1586111;-0.38500
1588888;-0.39500
1591666;-0.41000
1594444;-0.40500
1597222;-0.40000
1600000;-0.39500
1602777;-0.40000
1605555;-0.39500
1608333;-0.41500
1611111;-0.41500
1613888;-0.39000
1616666;-0.39500
1619444;-0.40000
1622222;-0.40000
1625000;-0.40500
1627777;-0.40000
1630555;-0.39000
1633333;-0.39000
1636111;-0.39500
1638888;-0.42000
1641666;-0.42500
1644444;-0.40500
1647222;-0.40000
1650000;-0.40500
1652777;-0.41000
1655555;-0.40500
1658333;-0.40500
1661111;-0.40500
1663888;-0.38000
1666666;-0.38500
1669444;-0.38500
1672222;-0.39500
1675000;-0.38500
1677777;-0.39500
1680555;-0.39000
1683333;-0.39500
1686111;-0.39500
1688888;-0.40500
1691666;-0.41500
1694444;-0.40500
1697222;-0.40500
1700000;-0.40500
1702777;-0.40000
1705555;-0.41000
1708333;-0.41500
1711111;-0.41000
1713888;-0.40500
1716666;-0.39000
1719444;-0.39500
1722222;-0.40500
1725000;-0.40500
1727777;-0.39000
1730555;-0.38500
1733333;-0.38000
1736111;-0.39500
1738888;-0.39500
1741666;-0.41000
1744444;-0.39500
1747222;-0.39000
1750000;-0.38500
1752777;-0.40000
1755555;-0.40500
1758333;-0.42000
1761111;-0.42000
1763888;-0.40500
1766666;-0.40000
1769444;-0.41500
1772222;-0.41500
1775000;-0.42000
1777777;-0.41500
1780555;-0.38500
1783333;-0.38500
1786111;-0.37500
1788888;-0.37000
1791666;-0.37500
1794444;-0.35500
1797222;-0.33500
1799999;-0.31500
1802777;-0.32000
1805555;-0.32000
1808333;-0.32000
1811111;-0.30000
1813888;-0.28500
1816666;-0.28000
1819444;-0.27500
1822222;-0.28000
1824999;-0.30000
1827777;-0.28500
1830555;-0.27500
1833333;-0.27500
1836111;-0.27500
1838888;-0.28500
1841666;-0.29500
1844444;-0.27500
1847222;-0.28500
1849999;-0.27500
1852777;-0.27000
1855555;-0.28500
1858333;-0.30000
1861111;-0.29500
1863888;-0.27500
1866666;-0.28500
1869444;-0.29000
1872222;-0.29500
1874999;-0.29500
1877777;-0.29000
1880555;-0.28500
1883333;-0.27000
1886111;-0.29500
1888888;-0.29000
1891666;-0.29500
1894444;-0.29000
1897222;-0.28000
1899999;-0.28000
1902777;-0.27500
1905555;-0.29000
1908333;-0.31500
1911111;-0.30500
1913888;-0.29000
1916666;-0.29000
1919444;-0.30500
1922222;-0.32500
1924999;-0.33500
1927777;-0.32500
1930555;-0.30000
1933333;-0.30000
1936111;-0.31500
1938888;-0.32500
1941666;-0.32500
1944444;-0.32000
1947222;-0.32000
1949999;-0.31000
1952777;-0.32500
1955555;-0.32000
1958333;-0.33500
1961111;-0.33000
1963888;-0.32000
1966666;-0.31000
1969444;-0.31000
1972222;-0.32500
1974999;-0.31500
1977777;-0.31000
1980555;-0.31000
1983333;-0.30500
1986111;-0.31500
1988888;-0.33000
1991666;-0.33000
1994444;-0.32000
1997222;-0.31000
1999999;-0.31000
2002777;-0.32500
2005555;-0.33000
2008333;-0.35000
2011111;-0.34000
2013888;-0.33000
2016666;-0.33000
2019444;-0.33000
2022222;-0.34000
2024999;-0.35000
2027777;-0.33000
2030555;-0.32500
2033333;-0.32500
2036111;-0.32000
2038888;-0.33500
2041666;-0.33500
2044444;-0.32000
2047222;-0.32000
2049999;-0.31000
2052777;-0.32000
2055555;-0.32500
2058333;-0.33000
2061111;-0.32500
2063888;-0.31500
2066666;-0.32500
2069444;-0.31500
2072222;-0.33500
2074999;-0.32500
2077777;-0.32000
2080555;-0.30500
2083333;-0.29000
2086111;-0.29000
2088888;-0.27000
2091666;-0.26500
2094444;-0.25500
2097222;-0.25500
2099999;-0.25500
2102777;-0.24500
2105555;-0.24000
2108333;-0.23500
2111111;-0.21500
2113888;-0.21500
2116666;-0.20000
2119444;-0.19500
2122222;-0.19500
2124999;-0.20000
2127777;-0.20000
2130555;-0.20500
2133333;-0.20000
2136111;-0.21000
2138888;-0.23000
2141666;-0.22500
2144444;-0.21500
2147222;-0.21500
2149999;-0.23000
2152777;-0.24000
2155555;-0.22500
2158333;-0.20000
2161111;-0.19000
2163888;-0.22000
2166666;-0.24500
2169444;-0.26000
2172222;-0.27500
2174999;-0.29000
2177777;-0.30500
2180555;-0.31000
2183333;-0.30500
2186110;-0.32000
2188888;-0.33500
2191666;-0.34000
2194444;-0.34500
2197222;-0.33500
2199999;-0.33000
2202777;-0.33000
2205555;-0.34500
2208333;-0.34000
2211110;-0.33000
2213888;-0.32500
2216666;-0.33500
2219444;-0.34000
2222222;-0.34500
2224999;-0.35500
2227777;-0.35000
2230555;-0.35500
2233333;-0.34500
2236110;-0.35500
2238888;-0.36000
2241666;-0.36500
2244444;-0.36000
2247222;-0.34500
2249999;-0.34500
2252777;-0.35000
2255555;-0.36500
2258333;-0.41000
2261110;-0.43500
2263888;-0.46500
2266666;-0.49000
2269444;-0.51500
2272222;-0.55500
2274999;-0.57500
2277777;-0.50500
2280555;-0.37000
2283333;-0.20000
2286110;-0.03500
2288888;0.14500
2291666;0.40500
2294444;0.71000
2297222;0.94000
2299999;1.07500
2302777;1.06000
2305555;0.86500
2308333;0.47000
2311110;0.02500
2313888;-0.29000
2316666;-0.43500
2319444;-0.45500
2322222;-0.41000
2324999;-0.38500
2327777;-0.35000
2330555;-0.35000
2333333;-0.36000
2336110;-0.37500
2338888;-0.37500
2341666;-0.38500
2344444;-0.38500
2347222;-0.37500
2349999;-0.37000
2352777;-0.38500
2355555;-0.39500
2358333;-0.39000
2361110;-0.38500
2363888;-0.37000
2366666;-0.38000
2369444;-0.37500
2372222;-0.38000
2374999;-0.39000
2377777;-0.38000
2380555;-0.36500
2383333;-0.36500
2386110;-0.37500
2388888;-0.38000
2391666;-0.38000
2394444;-0.38000
2397222;-0.37000
2399999;-0.37500
2402777;-0.38000
2405555;-0.37500
2408333;-0.38500
2411110;-0.38500
2413888;-0.38000
2416666;-0.38000
2419444;-0.39500
2422222;-0.40000
2424999;-0.39500
2427777;-0.40000
2430555;-0.38500
2433333;-0.37500
2436110;-0.38500
2438888;-0.39000
2441666;-0.39000
2444444;-0.39000
2447222;-0.38500
2449999;-0.38000
2452777;-0.38000
2455555;-0.39000
2458333;-0.39500
2461110;-0.38000
2463888;-0.37500
2466666;-0.36000
2469444;-0.37000
2472222;-0.38000
2474999;-0.38000
2477777;-0.37500
2480555;-0.37000
2483333;-0.37000
2486110;-0.38000
2488888;-0.38000
2491666;-0.39000
2494444;-0.38500
2497222;-0.36500
2499999;-0.38500
2502777;-0.38500
2505555;-0.38500
2508333;-0.39000
2511110;-0.38000
2513888;-0.37500
2516666;-0.38000
2519444;-0.39500
2522222;-0.39500
2524999;-0.39500
2527777;-0.39000
2530555;-0.37500
2533333;-0.37500
2536110;-0.37500
2538888;-0.38500
2541666;-0.39500
2544444;-0.38000
2547222;-0.37000
2549999;-0.37500
2552777;-0.38500
2555555;-0.39500
2558333;-0.41000
2561110;-0.41000
2563888;-0.40000
2566666;-0.40000
2569444;-0.41000
2572222;-0.41000
2574999;-0.42500
2577777;-0.41000
2580555;-0.40000
2583333;-0.39000
2586110;-0.38500
2588888;-0.38000
2591666;-0.39500
2594444;-0.37500
2597221;-0.36500
2599999;-0.36000
2602777;-0.35000
2605555;-0.36000
2608333;-0.35500
2611110;-0.34500
2613888;-0.33500
2616666;-0.32500
2619444;-0.32500
2622221;-0.33000
2624999;-0.32000
2627777;-0.31000
2630555;-0.30000
2633333;-0.28000
2636110;-0.29000
2638888;-0.29000
2641666;-0.30000
2644444;-0.30000
2647221;-0.29000
2649999;-0.29000
2652777;-0.29500
2655555;-0.30000
2658333;-0.30000
2661110;-0.29500
2663888;-0.28000
2666666;-0.27500
2669444;-0.27500
2672221;-0.28500
2674999;-0.31000
2677777;-0.30000
2680555;-0.28500
2683333;-0.27500
2686110;-0.27500
2688888;-0.29000
2691666;-0.30000
2694444;-0.28500
2697221;-0.28500
2699999;-0.27000
2702777;-0.27000
2705555;-0.28000
2708333;-0.30500
2711110;-0.30000
2713888;-0.29500
2716666;-0.29500
2719444;-0.30000
2722221;-0.32000
2724999;-0.31500
2727777;-0.31500
2730555;-0.31000
2733333;-0.31000
2736110;-0.31000
2738888;-0.31500
2741666;-0.32500
2744444;-0.32000
2747221;-0.34000
2749999;-0.33000
2752777;-0.34000
2755555;-0.33500
2758333;-0.35000
2761110;-0.34500
2763888;-0.33500
2766666;-0.32500
2769444;-0.32500
2772221;-0.32500
2774999;-0.33500
2777777;-0.33000
2780555;-0.33000
2783333;-0.32500
2786110;-0.33500
2788888;-0.35500
2791666;-0.36000
2794444;-0.35500
2797221;-0.34000
2799999;-0.34000
2802777;-0.33500
2805555;-0.33500
2808333;-0.36000
2811110;-0.34000
2813888;-0.34500
2816666;-0.35000
2819444;-0.35500
2822221;-0.36000
2824999;-0.36000
2827777;-0.35000
2830555;-0.34000
2833333;-0.34000
2836110;-0.34500
2838888;-0.35500
2841666;-0.36500
2844444;-0.37500
2847221;-0.36000
2849999;-0.34000
2852777;-0.34000
2855555;-0.34500
2858333;-0.33500
2861110;-0.34500
2863888;-0.34000
2866666;-0.33000
2869444;-0.33000
2872221;-0.34000
2874999;-0.34000
2877777;-0.34000
2880555;-0.33000
2883333;-0.32000
2886110;-0.33500
2888888;-0.34000
2891666;-0.33000
2894444;-0.31000
2897221;-0.29000
2899999;-0.27500
2902777;-0.27500
2905555;-0.28500
2908333;-0.30500
2911110;-0.30000
2913888;-0.28500
2916666;-0.26500
2919444;-0.25000
2922221;-0.24500
2924999;-0.25000
2927777;-0.23000
2930555;-0.22500
2933333;-0.22500
2936110;-0.22500
2938888;-0.24000
2941666;-0.26000
2944444;-0.25500
2947221;-0.26000
2949999;-0.24500
2952777;-0.24000
2955555;-0.26000
2958333;-0.30000
2961110;-0.28500
2963888;-0.25000
2966666;-0.23500
2969444;-0.25500
2972221;-0.29000
2974999;-0.31500
2977777;-0.32500
2980555;-0.32500
2983332;-0.33000
2986110;-0.34000
2988888;-0.35000
2991666;-0.35500
2994444;-0.36000
2997221;-0.36000
2999999;-0.34000
3002777;-0.34000
3005555;-0.35000
3008332;-0.34500
3011110;-0.34500
3013888;-0.35000
3016666;-0.34500
3019444;-0.35500
3022221;-0.36500
3024999;-0.36000
3027777;-0.36500
3030555;-0.38000
3033332;-0.39000
3036110;-0.38500
3038888;-0.39500
3041666;-0.40000
3044444;-0.38500
3047221;-0.38000
3049999;-0.38500
3052777;-0.39000
3055555;-0.39000
3058332;-0.39000
3061110;-0.37500
3063888;-0.38000
3066666;-0.40000
3069444;-0.45500
3072221;-0.49000
3074999;-0.51000
3077777;-0.54000
3080555;-0.57500
3083332;-0.52500
3086110;-0.43000
3088888;-0.29000
3091666;-0.14000
3094444;0.08000
3097221;0.37000
3099999;0.65500
3102777;0.87000
3105555;0.96000
3108332;0.86500
3111110;0.55500
3113888;0.13500
3116666;-0.21500
3119444;-0.43000
3122221;-0.49500
3124999;-0.49500
3127777;-0.45500
3130555;-0.41500
3133332;-0.39000
3136110;-0.40000
3138888;-0.40500
3141666;-0.40000
3144444;-0.39500
3147221;-0.37500
3149999;-0.38500
3152777;-0.38000
3155555;-0.39000
3158332;-0.39000
3161110;-0.39000
3163888;-0.38500
3166666;-0.38000
3169444;-0.40000
3172221;-0.41000
3174999;-0.41500
3177777;-0.40000
3180555;-0.40000
3183332;-0.38000
3186110;-0.39500
3188888;-0.40000
3191666;-0.43500
3194444;-0.42000
3197221;-0.41000
3199999;-0.40000
3202777;-0.41000
3205555;-0.42500
3208332;-0.43000
3211110;-0.42000
3213888;-0.40500
3216666;-0.40500
3219444;-0.40500
3222221;-0.42000
3224999;-0.41000
3227777;-0.41000
3230555;-0.40000
3233332;-0.39500
3236110;-0.40000
3238888;-0.41500
3241666;-0.42500
3244444;-0.41000
3247221;-0.40000
3249999;-0.40500
3252777;-0.42000
3255555;-0.43000
3258332;-0.43500
3261110;-0.43000
3263888;-0.43000
3266666;-0.42500
3269444;-0.42500
3272221;-0.41500
3274999;-0.42500
3277777;-0.40500
3280555;-0.40000
3283332;-0.41000
3286110;-0.40500
3288888;-0.42000
3291666;-0.43500
3294444;-0.42500
3297221;-0.41500
3299999;-0.40500
3302777;-0.39500
3305555;-0.40500
3308332;-0.40500
3311110;-0.39500
3313888;-0.38500
3316666;-0.38500
3319444;-0.39000
3322221;-0.41500
3324999;-0.43500
3327777;-0.43500
3330555;-0.43000
3333332;-0.42000
3336110;-0.43500
3338888;-0.45000
3341666;-0.46000
3344444;-0.46000
3347221;-0.44500
3349999;-0.44000
3352777;-0.44500
3355555;-0.46500
3358332;-0.48500
3361110;-0.48500
3363888;-0.47500
3366666;-0.46500
3369444;-0.46500
3372221;-0.47500
3374999;-0.48000
3377777;-0.48500
3380555;-0.46000
3383332;-0.46000
3386110;-0.46500
3388888;-0.46000
3391666;-0.45000
3394443;-0.43500
3397221;-0.42500
3399999;-0.41000
3402777;-0.40000
3405555;-0.39500
3408332;-0.37500
3411110;-0.36500
3413888;-0.36000
3416666;-0.36500
3419443;-0.37000
3422221;-0.35000
3424999;-0.34500
3427777;-0.34000
3430555;-0.33000
3433332;-0.32000
3436110;-0.31500
3438888;-0.31500
3441666;-0.32000
3444443;-0.30500
3447221;-0.30500
3449999;-0.31000
3452777;-0.32500
3455555;-0.33000
3458332;-0.33000
3461110;-0.33000
3463888;-0.31500
3466666;-0.30500
3469443;-0.30500
3472221;-0.30000
3474999;-0.31500
3477777;-0.29500
3480555;-0.29000
3483332;-0.29000
3486110;-0.30000
3488888;-0.30500
3491666;-0.31000
3494443;-0.31000
3497221;-0.31500
3499999;-0.29500
3502777;-0.31500
3505555;-0.32000
3508332;-0.33000
3511110;-0.32000
3513888;-0.33500
3516666;-0.33500
3519443;-0.33000
3522221;-0.35000
3524999;-0.35000
3527777;-0.34500
3530555;-0.34500
3533332;-0.33500
3536110;-0.34500
3538888;-0.34500
3541666;-0.34500
3544443;-0.33500
3547221;-0.32500
3549999;-0.32000
3552777;-0.33500
3555555;-0.36000
3558332;-0.37000
3561110;-0.37000
3563888;-0.35000
3566666;-0.34000
3569443;-0.33500
3572221;-0.35000
3574999;-0.35500
3577777;-0.35000
3580555;-0.34000
3583332;-0.35500
3586110;-0.36000
3588888;-0.36500
3591666;-0.37000
3594443;-0.36500
3597221;-0.35000
3599999;-0.34500
3602777;-0.35000
3605555;-0.37000
3608332;-0.36000
3611110;-0.35500
3613888;-0.35000
3616666;-0.36000
3619443;-0.35000
3622221;-0.35500
3624999;-0.37000
3627777;-0.36000
3630555;-0.34500
3633332;-0.34500
3636110;-0.35000
3638888;-0.35000
3641666;-0.36500
3644443;-0.36500
3647221;-0.35500
3649999;-0.34000
3652777;-0.34500
3655555;-0.35500
3658332;-0.36500
3661110;-0.36500
3663888;-0.35500
3666666;-0.33500
3669443;-0.33500
3672221;-0.34500
3674999;-0.35000
3677777;-0.33000
3680555;-0.31500
3683332;-0.30000
3686110;-0.30000
3688888;-0.29500
3691666;-0.30500
3694443;-0.28000
3697221;-0.26000
3699999;-0.25500
3702777;-0.24000
3705555;-0.26000
3708332;-0.25500
3711110;-0.24500
3713888;-0.23500
3716666;-0.24000
3719443;-0.23000
3722221;-0.23000
3724999;-0.25500
3727777;-0.25000
3730555;-0.25500
3733332;-0.25500
3736110;-0.26500
3738888;-0.27000
3741666;-0.27500
3744443;-0.27500
3747221;-0.28000
3749999;-0.27500
3752777;-0.25500
3755555;-0.25500
3758332;-0.25000
3761110;-0.26000
3763888;-0.27000
3766666;-0.29500
3769443;-0.31000
3772221;-0.35000
3774999;-0.36000
3777777;-0.36000
3780554;-0.35500
3783332;-0.35000
3786110;-0.35500
3788888;-0.34500
3791666;-0.36000
3794443;-0.35500
3797221;-0.35500
3799999;-0.35500
3802777;-0.35000
3805554;-0.37000
3808332;-0.38000
3811110;-0.37500
3813888;-0.37000
3816666;-0.36500
3819443;-0.36500
3822221;-0.38000
3824999;-0.39500
3827777;-0.38000
3830554;-0.37500
3833332;-0.36500
3836110;-0.36500
3838888;-0.37000
3841666;-0.39000
3844443;-0.42000
3847221;-0.45000
3849999;-0.46500
3852777;-0.49500
3855554;-0.55500
3858332;-0.56000
3861110;-0.48500
3863888;-0.35500
3866666;-0.18500
3869443;-0.00500
3872221;0.20000
3874999;0.46500
3877777;0.73500
3880554;0.94000
3883332;1.07500
3886110;1.15000
3888888;1.19500
3891666;1.15000
3894443;0.99500
3897221;0.73000
3899999;0.35000
3902777;-0.05500
3905554;-0.34000
3908332;-0.49500
3911110;-0.49000
3913888;-0.46500
3916666;-0.43500
3919443;-0.39500
3922221;-0.39000
3924999;-0.40500
3927777;-0.40000
3930554;-0.38500
3933332;-0.39000
3936110;-0.40000
3938888;-0.39500
3941666;-0.41000
3944443;-0.41000
3947221;-0.40000
3949999;-0.39500
3952777;-0.40500
3955554;-0.41000
3958332;-0.42500
3961110;-0.41500
3963888;-0.40500
3966666;-0.39000
3969443;-0.40000
3972221;-0.40500
3974999;-0.42000
3977777;-0.41500
3980554;-0.40500
3983332;-0.39500
3986110;-0.39500
3988888;-0.40000
3991666;-0.42000
3994443;-0.40000
3997221;-0.39000
3999999;-0.40000
4002777;-0.40000
4005554;-0.41000
4008332;-0.41000
4011110;-0.41000
4013888;-0.39500
4016666;-0.40500
4019443;-0.40500
4022221;-0.41000
4024999;-0.42500
4027777;-0.42000
4030554;-0.41000
4033332;-0.40500
4036110;-0.41500
4038888;-0.41000
4041666;-0.43000
4044443;-0.42000
4047221;-0.40500
4049999;-0.40500
4052777;-0.40500
4055554;-0.41000
4058332;-0.42000
4061110;-0.41000
4063888;-0.39500
4066666;-0.39500
4069443;-0.40000
4072221;-0.40000
4074999;-0.41500
4077777;-0.40500
4080554;-0.40500
4083332;-0.40000
4086110;-0.41000
4088888;-0.40500
4091666;-0.41000
4094443;-0.40500
4097221;-0.39000
4099999;-0.38000
4102777;-0.38500
4105554;-0.40000
4108332;-0.42000
4111110;-0.41000
4113888;-0.41500
4116666;-0.40500
4119443;-0.41500
4122221;-0.42000
4124999;-0.44000
4127777;-0.43000
4130554;-0.43000
4133332;-0.43000
4136110;-0.43500
4138888;-0.44500
4141666;-0.44500
4144443;-0.45000
4147221;-0.44000
4149999;-0.43000
4152777;-0.42500
4155554;-0.44000
4158332;-0.45500
4161110;-0.43000
4163888;-0.43000
4166666;-0.42500
4169443;-0.42000
4172221;-0.41500
4174999;-0.41000
4177777;-0.39500
4180554;-0.37500
4183332;-0.35500
4186110;-0.36500
4188888;-0.35000
4191665;-0.35000
4194443;-0.33500
4197221;-0.31500
4199999;-0.29500
4202777;-0.28500
4205554;-0.29500
4208332;-0.30000
4211110;-0.29000
4213888;-0.27000
4216665;-0.25500
4219443;-0.25500
4222221;-0.26000
4224999;-0.27500
4227777;-0.27000
4230554;-0.26500
4233332;-0.25500
4236110;-0.26500
4238888;-0.27500
4241665;-0.29000
4244443;-0.28500
4247221;-0.28500
4249999;-0.28000
4252777;-0.26500
4255554;-0.27500
4258332;-0.29000
4261110;-0.29000
4263888;-0.28500
4266665;-0.27000
4269443;-0.28000
4272221;-0.28500
4274999;-0.28500
4277777;-0.29000
4280554;-0.27500
4283332;-0.26500
4286110;-0.27500
4288888;-0.28000
4291665;-0.30000
4294443;-0.29500
4297221;-0.28500
4299999;-0.27000
4302777;-0.26500
4305554;-0.28500
4308332;-0.29000
4311110;-0.29000
4313888;-0.28500
4316665;-0.28500
4319443;-0.28000
4322221;-0.30000
4324999;-0.31000
4327777;-0.32000
4330554;-0.30500
4333332;-0.29500
4336110;-0.30500
4338888;-0.31000
4341665;-0.31500
4344443;-0.31000
4347221;-0.30000
4349999;-0.30500
4352777;-0.31000
4355554;-0.32000
4358332;-0.32000
4361110;-0.31000
4363888;-0.31500
4366665;-0.30000
4369443;-0.29500
4372221;-0.31500
4374999;-0.31500
4377777;-0.31500
4380554;-0.30500
4383332;-0.30000
4386110;-0.30000
4388888;-0.32000
4391665;-0.31500
4394443;-0.32000
4397221;-0.32000
4399999;-0.31000
4402777;-0.30500
4405554;-0.31500
4408332;-0.32500
4411110;-0.31500
4413888;-0.32500
4416665;-0.31000
4419443;-0.31000
4422221;-0.30500
4424999;-0.32000
4427777;-0.32000
4430554;-0.31000
4433332;-0.30500
4436110;-0.29500
4438888;-0.31000
4441665;-0.32000
4444443;-0.32500
4447221;-0.30000
4449999;-0.29000
4452777;-0.29500
4455554;-0.31000
4458332;-0.30000
4461110;-0.29500
4463888;-0.28500
4466665;-0.27000
4469443;-0.26500
4472221;-0.26500
4474999;-0.27000
4477777;-0.25500
4480554;-0.23500
4483332;-0.23000
4486110;-0.23500
4488888;-0.23000
4491665;-0.24000
4494443;-0.21500
4497221;-0.19000
4499999;-0.18500
4502777;-0.19000
4505554;-0.19500
4508332;-0.20500
4511110;-0.20500
4513888;-0.20000
4516665;-0.19500
4519443;-0.20500
4522221;-0.20000
4524999;-0.22500
4527777;-0.23000
4530554;-0.22500
4533332;-0.21500
4536110;-0.21000
4538888;-0.21000
4541665;-0.22000
4544443;-0.22000
4547221;-0.18500
4549999;-0.17000
4552777;-0.16000
4555554;-0.20000
4558332;-0.25000
4561110;-0.26000
4563888;-0.26500
4566665;-0.28500
4569443;-0.28500
4572221;-0.32000
4574999;-0.33500
4577776;-0.34000
4580554;-0.31500
4583332;-0.31000
4586110;-0.32000
4588888;-0.31500
4591665;-0.34500
4594443;-0.34000
4597221;-0.33000
4599999;-0.32000
4602776;-0.32000
4605554;-0.34500
4608332;-0.35000
4611110;-0.34500
4613888;-0.33500
4616665;-0.32500
4619443;-0.34000
4622221;-0.34000
4624999;-0.36000
4627776;-0.37500
4630554;-0.40000
4633332;-0.43000
4636110;-0.46500
4638888;-0.49500
4641665;-0.54500
4644443;-0.55500
4647221;-0.50500
4649999;-0.36000
4652776;-0.16000
4655554;0.05000
4658332;0.29000
4661110;0.62000
4663888;0.93500
4666665;1.11500
4669443;1.17500
4672221;1.04000
4674999;0.66000
4677776;0.13500
4680554;-0.27500
4683332;-0.45000
4686110;-0.43000
4688888;-0.36500
4691665;-0.33000
4694443;-0.32500
4697221;-0.33500
4699999;-0.35000
4702776;-0.34000
4705554;-0.34500
4708332;-0.37500
4711110;-0.37000
4713888;-0.36000
4716665;-0.36000
4719443;-0.37000
4722221;-0.38500
4724999;-0.39500
4727776;-0.39000
4730554;-0.38000
4733332;-0.37000
4736110;-0.37500
4738888;-0.37500
4741665;-0.38500
4744443;-0.37500
4747221;-0.37500
4749999;-0.36500
4752776;-0.36500
4755554;-0.38000
4758332;-0.38000
4761110;-0.39500
4763888;-0.38500
4766665;-0.38500
4769443;-0.38500
4772221;-0.38000
4774999;-0.39500
4777776;-0.38500
4780554;-0.38500
4783332;-0.38000
4786110;-0.38500
4788888;-0.38000
4791665;-0.39000
4794443;-0.38000
4797221;-0.38000
4799999;-0.37500
4802776;-0.38000
4805554;-0.38000
4808332;-0.39500
4811110;-0.38000
4813888;-0.37500
4816665;-0.37000
4819443;-0.37000
4822221;-0.37000
4824999;-0.38500
4827776;-0.37500
4830554;-0.37500
4833332;-0.36500
4836110;-0.37500
4838888;-0.38500
4841665;-0.38500
4844443;-0.38500
4847221;-0.38500
4849999;-0.38000
4852776;-0.38000
4855554;-0.40500
4858332;-0.40500
4861110;-0.39500
4863888;-0.38500
4866665;-0.38000
4869443;-0.38000
4872221;-0.38000
4874999;-0.41000
4877776;-0.39000
4880554;-0.38500
4883332;-0.38000
4886110;-0.38000
4888888;-0.38000
4891665;-0.40000
4894443;-0.39000
4897221;-0.38500
4899999;-0.37000
4902776;-0.36500
4905554;-0.38000
4908332;-0.39500
4911110;-0.39000
4913888;-0.38000
4916665;-0.38500
4919443;-0.38500
4922221;-0.39500
4924999;-0.40000
4927776;-0.40500
4930554;-0.38500
4933332;-0.38000
4936110;-0.38000
4938888;-0.39000
4941665;-0.38500
4944443;-0.38000
4947221;-0.36500
4949999;-0.34500
4952776;-0.34000
4955554;-0.35500
4958332;-0.33000
4961110;-0.31500
4963887;-0.30000
4966665;-0.29000
4969443;-0.28500
4972221;-0.28000
4974999;-0.29000
4977776;-0.27000
4980554;-0.27000
4983332;-0.26000
4986110;-0.26500
4988887;-0.27000
4991665;-0.28500
4994443;-0.27000
4997221;-0.26000
4999999;-0.26000
5002776;-0.26000
5005554;-0.26000
5008332;-0.27500
5011110;-0.27000
5013887;-0.26000
5016665;-0.25000
5019443;-0.25000
5022221;-0.26000
5024999;-0.27000
5027776;-0.27500
5030554;-0.26500
5033332;-0.25000
5036110;-0.25500
5038887;-0.25500
5041665;-0.27500
5044443;-0.26500
5047221;-0.26000
5049999;-0.26500
5052776;-0.27000
5055554;-0.28500
5058332;-0.29000
5061110;-0.28000
5063887;-0.28500
5066665;-0.27000
5069443;-0.28000
5072221;-0.29000
5074999;-0.30000
5077776;-0.29500
5080554;-0.29500
5083332;-0.28500
5086110;-0.29000
5088887;-0.31000
5091665;-0.31500
5094443;-0.31500
5097221;-0.30000
5099999;-0.29500
5102776;-0.30000
5105554;-0.30500
5108332;-0.31500
5111110;-0.31000
5113887;-0.30000
5116665;-0.29500
5119443;-0.30500
5122221;-0.30000
5124999;-0.32500
5127776;-0.32000
5130554;-0.30000
5133332;-0.30000
5136110;-0.30000
5138887;-0.31000
5141665;-0.32500
5144443;-0.33000
5147221;-0.31500
5149999;-0.31000
5152776;-0.31500
5155554;-0.31500
5158332;-0.33500
5161110;-0.33500
5163887;-0.32000
5166665;-0.31000
5169443;-0.32000
5172221;-0.32000
5174999;-0.33000
5177776;-0.33000
5180554;-0.31500
5183332;-0.31500
5186110;-0.31000
5188887;-0.31500
5191665;-0.33500
5194443;-0.32000
5197221;-0.31500
5199999;-0.30000
5202776;-0.31500
5205554;-0.32000
5208332;-0.33000
5211110;-0.33000
5213887;-0.32500
5216665;-0.32000
5219443;-0.30500
5222221;-0.32000
5224999;-0.33500
5227776;-0.33500
5230554;-0.31500
5233332;-0.30000
5236110;-0.29000
5238887;-0.29500
5241665;-0.28000
5244443;-0.27000
5247221;-0.25500
5249999;-0.24000
5252776;-0.23500
5255554;-0.24000
5258332;-0.24000
5261110;-0.23000
5263887;-0.20000
5266665;-0.20000
5269443;-0.19000
5272221;-0.20500
5274999;-0.20500
5277776;-0.20000
5280554;-0.20500
5283332;-0.20500
5286110;-0.21500
5288887;-0.24500
5291665;-0.26000
5294443;-0.26500
5297221;-0.25000
5299999;-0.23000
5302776;-0.22500
5305554;-0.23500
5308332;-0.25000
5311110;-0.25500
5313887;-0.24500
5316665;-0.21000
5319443;-0.19500
5322221;-0.19500
5324999;-0.24000
5327776;-0.25500
5330554;-0.26500
5333332;-0.27000
5336110;-0.27500
5338887;-0.30000
5341665;-0.31500
5344443;-0.32000
5347221;-0.32500
5349999;-0.32000
5352776;-0.33000
5355554;-0.33000
5358332;-0.35000
5361110;-0.34500
5363887;-0.33500
5366665;-0.32500
5369443;-0.33500
5372221;-0.34000
5374998;-0.35500
5377776;-0.35000
5380554;-0.34000
5383332;-0.34500
5386110;-0.35500
5388887;-0.35500
5391665;-0.36500
5394443;-0.36500
5397221;-0.35000
5399998;-0.34500
5402776;-0.35000
5405554;-0.36000
5408332;-0.38000
5411110;-0.41500
5413887;-0.45000
5416665;-0.47000
5419443;-0.50000
5422221;-0.54000
5424998;-0.57000
5427776;-0.50000
5430554;-0.35500
5433332;-0.18000
5436110;0.00000
5438887;0.21000
5441665;0.46500
5444443;0.75500
5447221;0.98500
5449998;1.08500
5452776;1.04000
5455554;0.79500
5458332;0.32500
5461110;-0.14500
5463887;-0.41000
5466665;-0.47000
5469443;-0.43000
5472221;-0.38000
5474998;-0.37000
5477776;-0.36000
5480554;-0.36500
5483332;-0.35500
5486110;-0.35000
5488887;-0.35500
5491665;-0.37000
5494443;-0.38500
5497221;-0.37500
5499998;-0.37500
5502776;-0.37000
5505554;-0.39000
5508332;-0.39000
5511110;-0.39000
5513887;-0.37500
5516665;-0.38500
5519443;-0.39500
5522221;-0.39500
5524998;-0.41000
5527776;-0.39000
5530554;-0.38000
5533332;-0.37000
5536110;-0.37500
5538887;-0.38000
5541665;-0.38500
5544443;-0.38500
5547221;-0.39000
5549998;-0.38000
5552776;-0.38500
5555554;-0.38000
5558332;-0.39500
5561110;-0.40000
5563887;-0.38000
5566665;-0.37000
5569443;-0.38500
5572221;-0.38500
5574998;-0.39500
5577776;-0.38000
5580554;-0.39000
5583332;-0.37500
5586110;-0.38000
5588887;-0.38500
5591665;-0.40000
5594443;-0.39500
5597221;-0.39000
5599998;-0.38500
5602776;-0.38500
5605554;-0.39500
5608332;-0.41500
5611110;-0.41000
5613887;-0.40000
5616665;-0.38500
5619443;-0.38500
5622221;-0.40000
5624998;-0.40500
5627776;-0.40000
5630554;-0.39000
5633332;-0.38000
5636110;-0.37500
5638887;-0.37500
5641665;-0.39000
5644443;-0.40500
5647221;-0.39000
5649998;-0.38000
5652776;-0.38500
5655554;-0.38500
5658332;-0.40000
5661110;-0.40000
5663887;-0.38500
5666665;-0.39000
5669443;-0.39500
5672221;-0.40500
5674998;-0.40500
5677776;-0.41000
5680554;-0.41000
5683332;-0.41000
5686110;-0.40000
5688887;-0.41500
5691665;-0.42500
5694443;-0.41500
5697221;-0.40500
5699998;-0.40500
5702776;-0.38500
5705554;-0.39000
5708332;-0.40500
5711110;-0.39000
5713887;-0.39000
5716665;-0.38000
5719443;-0.38000
5722221;-0.39000
5724998;-0.39500
5727776;-0.39500
5730554;-0.38500
5733332;-0.36500
5736110;-0.37000
5738887;-0.36000
5741665;-0.35000
5744443;-0.33500
5747221;-0.32500
5749998;-0.31000
5752776;-0.31000
5755554;-0.31500
5758332;-0.31000
5761109;-0.31500
5763887;-0.30000
5766665;-0.28500
5769443;-0.29000
5772221;-0.28000
5774998;-0.30000
5777776;-0.28500
5780554;-0.28500
5783332;-0.27500
5786109;-0.27000
5788887;-0.27000
5791665;-0.28000
5794443;-0.27000
5797221;-0.26000
5799998;-0.25500
5802776;-0.27000
5805554;-0.27000
5808332;-0.28500
5811109;-0.29000
5813887;-0.27500
5816665;-0.26500
5819443;-0.28000
5822221;-0.29000
5824998;-0.30500
5827776;-0.29500
5830554;-0.29000
5833332;-0.28500
5836109;-0.28500
5838887;-0.29500
5841665;-0.31500
5844443;-0.31500
5847221;-0.30000
5849998;-0.29000
5852776;-0.28500
5855554;-0.30500
5858332;-0.31000
5861109;-0.31000
5863887;-0.30000
5866665;-0.29500
5869443;-0.30000
5872221;-0.30500
5874998;-0.31500
5877776;-0.32500
5880554;-0.32500
5883332;-0.31000
5886109;-0.31500
5888887;-0.32500
5891665;-0.33000
5894443;-0.33000
5897221;-0.32000
5899998;-0.32000
5902776;-0.31500
5905554;-0.32500
5908332;-0.34000
5911109;-0.34000
5913887;-0.34500
5916665;-0.35000
5919443;-0.35500
5922221;-0.36500
5924998;-0.37000
5927776;-0.35500
5930554;-0.35500
5933332;-0.35000
5936109;-0.35500
5938887;-0.35000
5941665;-0.36000
5944443;-0.35500
5947221;-0.34000
5949998;-0.34000
5952776;-0.34500
5955554;-0.35500
5958332;-0.36000
5961109;-0.36000
5963887;-0.35500
5966665;-0.35000
5969443;-0.34500
5972221;-0.35000
5974998;-0.35000
5977776;-0.34500
5980554;-0.34000
5983332;-0.33500
5986109;-0.33500
5988887;-0.35000
5991665;-0.37000
5994443;-0.37000
5997221;-0.35500
5999998;-0.35000
6002776;-0.34000
6005554;-0.34500
6008332;-0.35500
6011109;-0.35000
6013887;-0.34000
6016665;-0.34000
6019443;-0.35000
6022221;-0.36000
6024998;-0.35500
6027776;-0.34500
6030554;-0.32500
6033332;-0.31500
6036109;-0.31000
6038887;-0.30500
6041665;-0.31000
6044443;-0.29500
6047221;-0.29000
6049998;-0.26500
6052776;-0.26500
6055554;-0.27000
6058332;-0.28000
6061109;-0.26500
6063887;-0.25500
6066665;-0.25000
6069443;-0.25000
6072221;-0.25000
6074998;-0.24500
6077776;-0.25000
6080554;-0.25000
6083332;-0.24500
6086109;-0.25000
6088887;-0.26000
6091665;-0.26500
6094443;-0.26000
6097221;-0.25000
6099998;-0.26000
6102776;-0.26000
6105554;-0.27500
6108332;-0.26500
6111109;-0.24000
6113887;-0.22000
6116665;-0.22000
6119443;-0.25500
6122221;-0.27500
6124998;-0.30500
6127776;-0.31000
6130554;-0.33500
6133332;-0.34500
6136109;-0.35000
6138887;-0.36500
6141665;-0.39000
6144443;-0.39500
6147221;-0.39000
6149998;-0.36000
6152776;-0.36000
6155554;-0.37000
6158332;-0.37000
6161109;-0.37000
6163887;-0.36000
6166665;-0.35500
6169443;-0.35000
6172220;-0.35500
6174998;-0.38000
6177776;-0.37000
6180554;-0.37500
6183332;-0.37000
6186109;-0.37000
6188887;-0.40500
6191665;-0.39500
6194443;-0.39000
6197220;-0.36500
6199998;-0.34500
6202776;-0.36500
6205554;-0.38500
6208332;-0.40500
6211109;-0.43000
6213887;-0.47000
6216665;-0.48500
6219443;-0.51500
6222220;-0.55500
6224998;-0.59000
6227776;-0.59500
6230554;-0.50000
6233332;-0.36500
6236109;-0.21000
6238887;-0.04500
6241665;0.16500
6244443;0.46000
6247220;0.72500
6249998;0.89000
6252776;0.93500
6255554;0.83000
6258332;0.52500
6261109;0.11500
6263887;-0.23000
6266665;-0.42000
6269443;-0.48500
6272220;-0.48000
6274998;-0.43000
6277776;-0.41000
6280554;-0.41000
6283332;-0.40500
6286109;-0.41500
6288887;-0.41500
6291665;-0.43500
6294443;-0.42500
6297220;-0.41000
6299998;-0.40000
6302776;-0.40000
6305554;-0.41000
6308332;-0.42500
6311109;-0.42500
6313887;-0.42000
6316665;-0.40500
6319443;-0.41000
6322220;-0.42500
6324998;-0.43500
6327776;-0.43500
6330554;-0.42000
6333332;-0.40500
6336109;-0.40000
6338887;-0.40500
6341665;-0.42000
6344443;-0.42500
6347220;-0.40000
6349998;-0.40500
6352776;-0.41000
6355554;-0.42500
6358332;-0.42500
6361109;-0.42000
6363887;-0.41000
6366665;-0.41000
6369443;-0.41500
6372220;-0.41500
6374998;-0.43500
6377776;-0.43500
6380554;-0.41500
6383332;-0.40500
6386109;-0.41500
6388887;-0.41000
6391665;-0.44000
6394443;-0.43000
6397220;-0.41500
6399998;-0.40500
6402776;-0.40500
6405554;-0.41000
6408332;-0.43000
6411109;-0.42500
6413887;-0.39500
6416665;-0.40000
6419443;-0.40500
6422220;-0.40000
6424998;-0.41000
6427776;-0.40000
6430554;-0.40000
6433332;-0.40000
6436109;-0.40000
6438887;-0.41500
6441665;-0.43000
6444443;-0.41500
6447220;-0.40000
6449998;-0.39000
6452776;-0.39500
6455554;-0.40000
6458332;-0.41500
6461109;-0.41500
6463887;-0.41500
6466665;-0.42000
6469443;-0.44000
6472220;-0.43000
6474998;-0.44500
6477776;-0.44000
6480554;-0.44000
6483332;-0.43000
6486109;-0.43500
6488887;-0.44000
6491665;-0.46000
6494443;-0.45500
6497220;-0.44500
6499998;-0.43500
6502776;-0.43500
6505554;-0.45000
6508332;-0.47000
6511109;-0.45500
6513887;-0.44500
6516665;-0.45000
6519443;-0.46000
6522220;-0.45500
6524998;-0.46500
6527776;-0.45500
6530554;-0.46500
6533332;-0.45000
6536109;-0.46000
6538887;-0.46000
6541665;-0.44500
6544443;-0.42500
6547220;-0.40500
6549998;-0.37500
6552776;-0.36500
6555554;-0.36500
6558331;-0.36500
6561109;-0.34500
6563887;-0.33500
6566665;-0.32500
6569443;-0.32000
6572220;-0.32000
6574998;-0.34000
6577776;-0.31500
6580554;-0.30500
6583331;-0.28500
6586109;-0.30500
6588887;-0.29500
6591665;-0.31500
6594443;-0.30000
6597220;-0.28500
6599998;-0.28500
6602776;-0.27500
6605554;-0.30000
6608331;-0.32000
6611109;-0.32500
6613887;-0.31000
6616665;-0.32000
6619443;-0.31000
6622220;-0.31500
6624998;-0.32000
6627776;-0.32000
6630554;-0.32000
6633331;-0.31000
6636109;-0.30500
6638887;-0.33000
6641665;-0.34000
6644443;-0.31500
6647220;-0.31500
6649998;-0.32000
6652776;-0.33000
6655554;-0.34000
6658331;-0.34500
6661109;-0.34500
6663887;-0.33000
6666665;-0.32500
6669443;-0.32500
6672220;-0.33500
6674998;-0.34500
6677776;-0.34500
6680554;-0.34500
6683331;-0.33500
6686109;-0.35000
6688887;-0.36000
6691665;-0.37500
6694443;-0.37000
6697220;-0.35500
6699998;-0.34000
6702776;-0.32500
6705554;-0.33000
6708331;-0.33500
6711109;-0.34500
6713887;-0.34500
6716665;-0.34500
6719443;-0.34500
6722220;-0.34500
6724998;-0.35500
6727776;-0.35500
6730554;-0.34500
6733331;-0.35000
6736109;-0.33500
6738887;-0.35500
6741665;-0.38000
6744443;-0.38000
6747220;-0.37500
6749998;-0.35000
6752776;-0.34500
6755554;-0.35000
6758331;-0.36000
6761109;-0.37000
6763887;-0.37500
6766665;-0.37000
6769443;-0.35000
6772220;-0.36000
6774998;-0.37500
6777776;-0.36000
6780554;-0.34000
6783331;-0.32500
6786109;-0.33000
6788887;-0.33000
6791665;-0.35500
6794443;-0.35000
6797220;-0.35000
6799998;-0.33500
6802776;-0.34000
6805554;-0.35500
6808331;-0.38000
6811109;-0.36500
6813887;-0.36000
6816665;-0.34500
6819443;-0.33500
6822220;-0.35500
6824998;-0.35500
6827776;-0.34000
6830554;-0.32000
6833331;-0.29500
6836109;-0.28500
6838887;-0.30500
6841665;-0.30500
6844443;-0.30000
6847220;-0.29500
6849998;-0.27000
6852776;-0.26500
6855554;-0.27500
6858331;-0.27000
6861109;-0.25500
6863887;-0.23500
6866665;-0.23000
6869443;-0.23500
6872220;-0.25000
6874998;-0.26000
6877776;-0.26000
6880554;-0.26500
6883331;-0.27000
6886109;-0.26000
6888887;-0.28000
6891665;-0.28500
6894443;-0.29000
6897220;-0.28500
6899998;-0.26000
6902776;-0.24000
6905554;-0.23500
6908331;-0.25000
6911109;-0.24500
6913887;-0.24500
6916665;-0.26000
6919443;-0.27500
6922220;-0.29500
6924998;-0.32000
6927776;-0.35000
6930554;-0.35500
6933331;-0.35500
6936109;-0.35000
6938887;-0.36500
6941665;-0.36500
6944442;-0.36500
6947220;-0.36500
6949998;-0.37000
6952776;-0.38000
6955554;-0.38000
6958331;-0.39000
6961109;-0.39000
6963887;-0.38000
6966665;-0.38000
6969442;-0.37000
6972220;-0.38000
6974998;-0.40000
6977776;-0.39500
6980554;-0.39000
6983331;-0.38500
6986109;-0.37500
6988887;-0.38000
6991665;-0.38500
6994442;-0.38500
6997220;-0.38000
6999998;-0.37000
7002776;-0.37500
7005554;-0.40000
7008331;-0.41500
7011109;-0.44500
7013887;-0.47000
7016665;-0.48500
7019442;-0.51000
7022220;-0.54000
7024998;-0.58000
7027776;-0.57500
7030554;-0.48500
7033331;-0.36000
7036109;-0.20000
7038887;-0.03500
7041665;0.15500
7044442;0.43500
7047220;0.71000
7049998;0.89000
7052776;0.99000
7055554;0.95000
7058331;0.73500
7061109;0.35000
7063887;-0.05000
7066665;-0.32000
7069442;-0.45500
7072220;-0.50000
7074998;-0.48500
7077776;-0.45000
7080554;-0.41500
7083331;-0.40500
7086109;-0.39500
7088887;-0.41000
7091665;-0.42000
7094442;-0.42500
7097220;-0.40500
7099998;-0.39000
7102776;-0.39500
7105554;-0.40500
7108331;-0.42500
7111109;-0.42000
7113887;-0.41000
7116665;-0.41000
7119442;-0.40500
7122220;-0.41000
7124998;-0.43000
7127776;-0.42000
7130554;-0.40500
7133331;-0.39500
7136109;-0.39000
7138887;-0.40000
7141665;-0.40500
7144442;-0.40000
7147220;-0.39000
7149998;-0.39000
7152776;-0.38500
7155554;-0.40000
7158331;-0.41500
7161109;-0.42500
7163887;-0.41000
7166665;-0.40000
7169442;-0.40500
7172220;-0.41000
7174998;-0.43000
7177776;-0.42500
7180554;-0.41500
7183331;-0.40500
7186109;-0.40500
7188887;-0.41000
7191665;-0.42500
7194442;-0.42500
7197220;-0.41000
7199998;-0.40500
7202776;-0.41000
7205554;-0.41000
7208331;-0.41500
7211109;-0.41000
7213887;-0.40000
7216665;-0.38500
7219442;-0.39000
7222220;-0.38000
7224998;-0.41000
7227776;-0.41000
7230554;-0.39500
7233331;-0.40500
7236109;-0.39500
7238887;-0.40500
7241665;-0.42000
7244442;-0.41000
7247220;-0.40500
7249998;-0.39000
7252776;-0.40000
7255554;-0.40500
7258331;-0.42000
7261109;-0.41000
7263887;-0.40500
7266665;-0.40000
7269442;-0.40000
7272220;-0.40500
7274998;-0.41500
7277776;-0.42000
7280554;-0.41500
7283331;-0.41000
7286109;-0.41000
7288887;-0.42000
7291665;-0.44000
7294442;-0.43500
7297220;-0.43500
7299998;-0.42500
7302776;-0.42000
7305554;-0.44000
7308331;-0.45000
7311109;-0.45500
7313887;-0.45000
7316665;-0.44500
7319442;-0.44500
7322220;-0.45500
7324998;-0.45500
7327776;-0.45000
7330554;-0.45000
7333331;-0.45500
7336109;-0.44500
7338887;-0.45000
7341665;-0.45500
7344442;-0.44500
7347220;-0.43000
7349998;-0.41500
7352776;-0.40500
7355553;-0.40000
7358331;-0.40000
7361109;-0.38500
7363887;-0.35500
7366665;-0.34000
7369442;-0.33000
7372220;-0.33500
7374998;-0.34000
7377776;-0.32000
7380553;-0.29500
7383331;-0.27500
7386109;-0.28500
7388887;-0.29000
7391665;-0.30000
7394442;-0.29500
7397220;-0.28000
7399998;-0.27500
7402776;-0.27500
7405553;-0.28500
7408331;-0.29000
7411109;-0.28500
7413887;-0.28500
7416665;-0.27000
7419442;-0.27500
7422220;-0.28500
7424998;-0.30000
7427776;-0.28000
7430553;-0.28000
7433331;-0.27000
7436109;-0.26500
7438887;-0.27000
7441665;-0.28000
7444442;-0.28000
7447220;-0.26000
7449998;-0.26500
7452776;-0.27000
7455553;-0.28000
7458331;-0.29500
7461109;-0.28000
7463887;-0.28000
7466665;-0.27000
7469442;-0.27500
7472220;-0.27500
7474998;-0.29500
7477776;-0.30000
7480553;-0.28500
7483331;-0.29000
7486109;-0.29000
7488887;-0.28500
7491665;-0.30500
7494442;-0.31000
7497220;-0.30500
7499998;-0.28500
7502776;-0.29000
7505553;-0.30500
7508331;-0.31500
7511109;-0.30500
7513887;-0.30000
7516665;-0.29000
7519442;-0.29000
7522220;-0.29500
7524998;-0.31000
7527776;-0.30500
7530553;-0.29500
7533331;-0.29500
7536109;-0.29500
7538887;-0.29500
7541665;-0.29500
7544442;-0.29000
7547220;-0.27500
7549998;-0.27000
7552776;-0.28000
7555553;-0.29000
7558331;-0.30500
7561109;-0.30000
7563887;-0.31000
7566665;-0.29500
7569442;-0.30000
7572220;-0.30500
7574998;-0.31500
7577776;-0.32000
7580553;-0.30500
7583331;-0.30000
7586109;-0.31500
7588887;-0.32000
7591665;-0.31500
7594442;-0.31000
7597220;-0.31000
7599998;-0.31000
7602776;-0.30500
7605553;-0.32000
7608331;-0.31500
7611109;-0.31000
7613887;-0.30000
7616665;-0.28500
7619442;-0.29500
7622220;-0.30500
7624998;-0.31000
7627776;-0.31500
7630553;-0.30500
7633331;-0.29500
7636109;-0.31500
7638887;-0.31500
7641665;-0.32000
7644442;-0.31000
7647220;-0.30500
7649998;-0.29500
7652776;-0.29500
7655553;-0.29500
7658331;-0.30000
7661109;-0.29500
7663887;-0.27000
7666665;-0.25500
7669442;-0.23500
7672220;-0.24000
7674998;-0.24500
7677776;-0.23500
7680553;-0.22500
7683331;-0.21000
7686109;-0.20500
7688887;-0.19500
7691665;-0.19500
7694442;-0.18500
7697220;-0.17500
7699998;-0.17000
7702776;-0.17500
7705553;-0.19000
7708331;-0.20500
7711109;-0.22000
7713887;-0.21500
7716665;-0.20500
7719442;-0.21500
7722220;-0.21500
7724998;-0.23000
7727776;-0.23000
7730553;-0.22000
7733331;-0.20000
7736109;-0.19500
7738887;-0.18500
7741664;-0.19500
7744442;-0.21000
7747220;-0.22500
7749998;-0.23000
7752776;-0.24000
7755553;-0.25500
7758331;-0.27500
7761109;-0.28500
7763887;-0.27500
7766664;-0.27500
7769442;-0.27500
7772220;-0.28500
7774998;-0.30500
7777776;-0.32000
7780553;-0.32000
7783331;-0.30000
7786109;-0.30500
7788887;-0.33000
7791664;-0.33000
7794442;-0.33500
7797220;-0.33000
7799998;-0.32500
7802776;-0.33500
7805553;-0.32500
7808331;-0.34000
7811109;-0.34000
7813887;-0.34000
7816664;-0.32000
7819442;-0.32000
7822220;-0.33500
7824998;-0.33500
7827776;-0.32500
7830553;-0.31500
7833331;-0.32000
7836109;-0.31500
7838887;-0.33000
7841664;-0.35500
7844442;-0.38000
7847220;-0.41500
7849998;-0.45000
7852776;-0.47000
7855553;-0.50000
7858331;-0.53000
7861109;-0.50500
7863887;-0.40000
7866664;-0.24000
7869442;-0.08000
7872220;0.10500
7874998;0.33000
7877776;0.60500
7880553;0.90000
7883331;1.09500
7886109;1.18500
7888887;1.13500
7891664;0.88000
7894442;0.41000
7897220;-0.05000
7899998;-0.34500
7902776;-0.42500
7905553;-0.40000
7908331;-0.34500
7911109;-0.32000
7913887;-0.30500
7916664;-0.30500
7919442;-0.31500
7922220;-0.33000
7924998;-0.35000
7927776;-0.34500
7930553;-0.34500
7933331;-0.34000
7936109;-0.35000
7938887;-0.36000
7941664;-0.37500
7944442;-0.36000
7947220;-0.36500
7949998;-0.35000
7952776;-0.35500
7955553;-0.36000
7958331;-0.37000
7961109;-0.36500
7963887;-0.35500
7966664;-0.34500
7969442;-0.34000
7972220;-0.35000
7974998;-0.36000
7977776;-0.37500
7980553;-0.35500
7983331;-0.34500
7986109;-0.36000
7988887;-0.36000
7991664;-0.36500
7994442;-0.36500
7997220;-0.36000
7999998;-0.36000
8002776;-0.36000
8005553;-0.36000
8008331;-0.37500
8011109;-0.37500
8013887;-0.35500
8016664;-0.34500
8019442;-0.34500
8022220;-0.36000
8024998;-0.36500
8027776;-0.36500
8030553;-0.35500
8033331;-0.34500
8036109;-0.34500
8038887;-0.35500
8041664;-0.35500
8044442;-0.35500
8047220;-0.35500
8049998;-0.35000
8052776;-0.34000
8055553;-0.35500
8058331;-0.36000
8061109;-0.36000
8063887;-0.35500
8066664;-0.35500
8069442;-0.35000
8072220;-0.37000
8074998;-0.36000
8077776;-0.35500
8080553;-0.34000
8083331;-0.33000
8086109;-0.33000
8088887;-0.33500
8091664;-0.34500
8094442;-0.34500
8097220;-0.33500
8099998;-0.32000
8102776;-0.32500
8105553;-0.32500
8108331;-0.35000
8111109;-0.34000
8113887;-0.34000
8116664;-0.33500
8119442;-0.34000
8122220;-0.35500
8124998;-0.37000
8127776;-0.36500
8130553;-0.34500
8133331;-0.35000
8136109;-0.35000
8138887;-0.37500
8141664;-0.36500
8144442;-0.37500
8147220;-0.36500
8149998;-0.34500
8152775;-0.35000
8155553;-0.36000
8158331;-0.36500
8161109;-0.36000
8163887;-0.35500
8166664;-0.35000
8169442;-0.36500
8172220;-0.36000
8174998;-0.36500
8177775;-0.35500
8180553;-0.34500
8183331;-0.32500
8186109;-0.33000
8188887;-0.32500
8191664;-0.32000
8194442;-0.30500
8197220;-0.29500
8199998;-0.27000
8202775;-0.26500
8205553;-0.26500
8208331;-0.26500
8211109;-0.27000
8213887;-0.25000
8216664;-0.23000
8219442;-0.23500
8222220;-0.23000
8224998;-0.23000
8227775;-0.23000
8230553;-0.22500
8233331;-0.22000
8236109;-0.21500
8238887;-0.21000
8241664;-0.22000
8244442;-0.22000
8247220;-0.22000
8249998;-0.21500
8252775;-0.20500
8255553;-0.22000
8258331;-0.23500
8261109;-0.23500
8263887;-0.21500
8266664;-0.21000
8269442;-0.20500
8272220;-0.21000
8274998;-0.22000
8277775;-0.20000
8280553;-0.19500
8283331;-0.17500
8286109;-0.18000
8288887;-0.17500
8291664;-0.17500
8294442;-0.16500
8297220;-0.14000
8299998;-0.15000
8302775;-0.14500
8305553;-0.15000
8308331;-0.15000
8311109;-0.15000
8313887;-0.13500
8316664;-0.12500
8319442;-0.11000
8322220;-0.10500
8324998;-0.12000
8327775;-0.11500
8330553;-0.12500
8333331;-0.14000
8336109;-0.14500
8338887;-0.16000
8341664;-0.19500
8344442;-0.20000
8347220;-0.22000
8349998;-0.22000
8352775;-0.23000
8355553;-0.25500
8358331;-0.25500
8361109;-0.26500
8363887;-0.25500
8366664;-0.26000
8369442;-0.28500
8372220;-0.28500
8374998;-0.30000
8377775;-0.29000
8380553;-0.28000
8383331;-0.27500
8386109;-0.28500
8388887;-0.29500
8391664;-0.31500
8394442;-0.30500
8397220;-0.31500
8399998;-0.30500
8402775;-0.30500
8405553;-0.32000
8408331;-0.32500
8411109;-0.33000
8413887;-0.32000
8416664;-0.30000
8419442;-0.32000
8422220;-0.34000
8424998;-0.34500
8427775;-0.33500
8430553;-0.33000
8433331;-0.32000
8436109;-0.32000
8438887;-0.32500
8441664;-0.32500
8444442;-0.33000
8447220;-0.34000
8449998;-0.34500
8452775;-0.38500
8455553;-0.42500
8458331;-0.46500
8461109;-0.51000
8463887;-0.54000
8466664;-0.54000
8469442;-0.48000
8472220;-0.35000
8474998;-0.17500
8477775;0.02000
8480553;0.22500
8483331;0.45500
8486109;0.72000
8488887;0.95000
8491664;1.09000
8494442;1.14000
8497220;1.04000
8499998;0.76500
8502775;0.33000
8505553;-0.09500
8508331;-0.37500
8511109;-0.44500
8513887;-0.41500
8516664;-0.36000
8519442;-0.35000
8522220;-0.33000
8524998;-0.31000
8527775;-0.31500
8530553;-0.31000
8533331;-0.31000
8536109;-0.32000
8538886;-0.32500
8541664;-0.34000
8544442;-0.34000
8547220;-0.33500
8549998;-0.32500
8552775;-0.33500
8555553;-0.33500
8558331;-0.35500
8561109;-0.35000
8563886;-0.34500
8566664;-0.33000
8569442;-0.33500
8572220;-0.35500
8574998;-0.35500
8577775;-0.35000
8580553;-0.35000
8583331;-0.36000
8586109;-0.34500
8588886;-0.35500
8591664;-0.36500
8594442;-0.36500
8597220;-0.35500
8599998;-0.34000
8602775;-0.36000
8605553;-0.35000
8608331;-0.36000
8611109;-0.35500
8613886;-0.34500
8616664;-0.33500
8619442;-0.33500
8622220;-0.34500
8624998;-0.34500
8627775;-0.34500
8630553;-0.34500
8633331;-0.33500
8636109;-0.33500
8638886;-0.34000
8641664;-0.35000
8644442;-0.36000
8647220;-0.35000
8649998;-0.34500
8652775;-0.33500
8655553;-0.34500
8658331;-0.35500
8661109;-0.35500
8663886;-0.34000
8666664;-0.34000
8669442;-0.33500
8672220;-0.34000
8674998;-0.35000
8677775;-0.34000
8680553;-0.33000
8683331;-0.32000
8686109;-0.32500
8688886;-0.34500
8691664;-0.35000
8694442;-0.34500
8697220;-0.33500
8699998;-0.32000
8702775;-0.32000
8705553;-0.33000
8708331;-0.36000
8711109;-0.35000
8713886;-0.35500
8716664;-0.35000
8719442;-0.34500
8722220;-0.36000
8724998;-0.35000
8727775;-0.37000
8730553;-0.36500
8733331;-0.35000
8736109;-0.37000
8738886;-0.37000
8741664;-0.38500
8744442;-0.37000
8747220;-0.37500
8749998;-0.34500
8752775;-0.36000
8755553;-0.36000
8758331;-0.37000
8761109;-0.36500
8763886;-0.36500
8766664;-0.35000
8769442;-0.35000
8772220;-0.35000
8774998;-0.35500
8777775;-0.36000
8780553;-0.35000
8783331;-0.33500
8786109;-0.33500
8788886;-0.34500
8791664;-0.34500
8794442;-0.36000
8797220;-0.33500
8799998;-0.32000
8802775;-0.31500
8805553;-0.32000
8808331;-0.32000
8811109;-0.31000
8813886;-0.29500
8816664;-0.28000
8819442;-0.28500
8822220;-0.27500
8824998;-0.27000
8827775;-0.26500
8830553;-0.25000
8833331;-0.25000
8836109;-0.25500
8838886;-0.25000
8841664;-0.26000
8844442;-0.25000
8847220;-0.24500
8849998;-0.22500
8852775;-0.23500
8855553;-0.23500
8858331;-0.24500
8861109;-0.25000
8863886;-0.23500
8866664;-0.24000
8869442;-0.23500
8872220;-0.25000
8874998;-0.26500
8877775;-0.27500
8880553;-0.25500
8883331;-0.25000
8886109;-0.25000
8888886;-0.26500
8891664;-0.27500
8894442;-0.28000
8897220;-0.26500
8899998;-0.24500
8902775;-0.26500
8905553;-0.26500
8908331;-0.27500
8911109;-0.28000
8913886;-0.27500
8916664;-0.26500
8919442;-0.25500
8922220;-0.26500
8924998;-0.28500
8927775;-0.28000
8930553;-0.27500
8933331;-0.27500
8936109;-0.29000
8938886;-0.29500
8941664;-0.30500
8944442;-0.30000
8947220;-0.30000
8949997;-0.28000
8952775;-0.29000
8955553;-0.29000
8958331;-0.30000
8961109;-0.30000
8963886;-0.29500
8966664;-0.28500
8969442;-0.29000
8972220;-0.29000
8974997;-0.29500
8977775;-0.28000
8980553;-0.28000
8983331;-0.26000
8986109;-0.26500
8988886;-0.27000
8991664;-0.29000
8994442;-0.28500
8997220;-0.28000
8999997;-0.27000
9002775;-0.26500
9005553;-0.28000
9008331;-0.28000
9011109;-0.29000
9013886;-0.30000
9016664;-0.29000
9019442;-0.28000
9022220;-0.28500
9024997;-0.29500
9027775;-0.28000
9030553;-0.28500
9033331;-0.26000
9036109;-0.27500
9038886;-0.27500
9041664;-0.27500
9044442;-0.28500
9047220;-0.27500
9049997;-0.27000
9052775;-0.27000
9055553;-0.28500
9058331;-0.27500
9061109;-0.27000
9063886;-0.26500
9066664;-0.26500
9069442;-0.25500
9072220;-0.27000
9074997;-0.26500
9077775;-0.28000
9080553;-0.28000
9083331;-0.26000
9086109;-0.26000
9088886;-0.28500
9091664;-0.28000
9094442;-0.28500
9097220;-0.27500
9099997;-0.25000
9102775;-0.25500
9105553;-0.27000
9108331;-0.27500
9111109;-0.28000
9113886;-0.27000
9116664;-0.26500
9119442;-0.26500
9122220;-0.27000
9124997;-0.27500
9127775;-0.28000
9130553;-0.27500
9133331;-0.25500
9136109;-0.25500
9138886;-0.25000
9141664;-0.26000
9144442;-0.26500
9147220;-0.26000
9149997;-0.24500
9152775;-0.24500
9155553;-0.25500
9158331;-0.25500
9161109;-0.26500
9163886;-0.25000
9166664;-0.25000
9169442;-0.24500
9172220;-0.25000
9174997;-0.26500
9177775;-0.26500
9180553;-0.26000
9183331;-0.25500
9186109;-0.24500
9188886;-0.26000
9191664;-0.27000
9194442;-0.28500
9197220;-0.26500
9199997;-0.25500
9202775;-0.24000
9205553;-0.25500
9208331;-0.26000
9211109;-0.26000
9213886;-0.25000
9216664;-0.24000
9219442;-0.25000
9222220;-0.24500
9224997;-0.25500
9227775;-0.26500
9230553;-0.25500
9233331;-0.25000
9236109;-0.26000
9238886;-0.25000
9241664;-0.26500
9244442;-0.27500
9247220;-0.25000
9249997;-0.23500
9252775;-0.25000
9255553;-0.26000
9258331;-0.27000
9261109;-0.26000
9263886;-0.24500
9266664;-0.22000
9269442;-0.23000
9272220;-0.23000
9274997;-0.23000
9277775;-0.22000
9280553;-0.20500
9283331;-0.18500
9286109;-0.18000
9288886;-0.19500
9291664;-0.20000
9294442;-0.20000
9297220;-0.19000
9299997;-0.18500
9302775;-0.18000
9305553;-0.17500
9308331;-0.18500
9311109;-0.17500
9313886;-0.18000
9316664;-0.15000
9319442;-0.15000
9322220;-0.15500
9324997;-0.17500
9327775;-0.19000
9330553;-0.17000
9333331;-0.17000
9336108;-0.16000
9338886;-0.18500
9341664;-0.20000
9344442;-0.20500
9347220;-0.19000
9349997;-0.15000
9352775;-0.15000
9355553;-0.16000
9358331;-0.20000
9361108;-0.21000
9363886;-0.21500
9366664;-0.23000
9369442;-0.25000
9372220;-0.25500
9374997;-0.28000
9377775;-0.28500
9380553;-0.30500
9383331;-0.28000
9386108;-0.29000
9388886;-0.29000
9391664;-0.29500
9394442;-0.30500
9397220;-0.29500
9399997;-0.28500
9402775;-0.29500
9405553;-0.30500
9408331;-0.30500
9411108;-0.30500
9413886;-0.29500
9416664;-0.29500
9419442;-0.28500
9422220;-0.28500
9424997;-0.29000
9427775;-0.30500
9430553;-0.30000
9433331;-0.30000
9436108;-0.31500
9438886;-0.34000
9441664;-0.38500
9444442;-0.40000
9447220;-0.39000
9449997;-0.40000
9452775;-0.44000
9455553;-0.50000
9458331;-0.51500
9461108;-0.45000
9463886;-0.30000
9466664;-0.13000
9469442;0.03500
9472220;0.26000
9474997;0.52000
9477775;0.81500
9480553;1.02500
9483331;1.09500
9486108;0.96000
9488886;0.61000
9491664;0.17000
9494442;-0.21500
9497220;-0.40000
9499997;-0.42500
9502775;-0.39500
9505553;-0.35500
9508331;-0.33000
9511108;-0.33000
9513886;-0.32500
9516664;-0.31000
9519442;-0.32500
9522220;-0.33500
9524997;-0.34000
9527775;-0.34000
9530553;-0.32500
9533331;-0.34000
9536108;-0.35000
9538886;-0.36000
9541664;-0.36500
9544442;-0.37000
9547220;-0.36000
9549997;-0.34500
9552775;-0.35500
9555553;-0.35000
9558331;-0.35500
9561108;-0.34000
9563886;-0.33500
9566664;-0.33000
9569442;-0.33500
9572220;-0.33500
9574997;-0.34500
9577775;-0.34500
9580553;-0.33500
9583331;-0.32500
9586108;-0.33000
9588886;-0.33500
9591664;-0.34000
9594442;-0.34000
9597220;-0.33500
9599997;-0.33500
9602775;-0.33000
9605553;-0.34000
9608331;-0.34500
9611108;-0.34500
9613886;-0.32000
9616664;-0.32000
9619442;-0.32000
9622220;-0.33500
9624997;-0.35500
9627775;-0.36000
9630553;-0.36000
9633331;-0.35000
9636108;-0.34000
9638886;-0.36500
9641664;-0.37000
9644442;-0.36000
9647220;-0.34500
9649997;-0.33500
9652775;-0.35000
9655553;-0.35500
9658331;-0.35500
9661108;-0.35500
9663886;-0.35500
9666664;-0.34500
9669442;-0.33500
9672220;-0.34500
9674997;-0.35500
9677775;-0.36000
9680553;-0.34000
9683331;-0.32000
9686108;-0.33000
9688886;-0.33500
9691664;-0.35000
9694442;-0.35500
9697220;-0.36000
9699997;-0.34500
9702775;-0.34500
9705553;-0.35500
9708331;-0.36500
9711108;-0.36500
9713886;-0.36500
9716664;-0.36000
9719442;-0.39000
9722220;-0.39000
9724997;-0.38500
9727775;-0.39000
9730553;-0.38500
9733331;-0.37500
9736108;-0.38500
9738886;-0.39000
9741664;-0.39500
9744442;-0.39000
9747219;-0.38500
9749997;-0.37000
9752775;-0.38500
9755553;-0.38000
9758331;-0.38500
9761108;-0.40500
9763886;-0.38000
9766664;-0.36000
9769442;-0.37500
9772219;-0.36000
9774997;-0.37000
9777775;-0.35500
9780553;-0.33500
9783331;-0.31500
9786108;-0.31000
9788886;-0.29500
9791664;-0.29000
9794442;-0.29500
9797219;-0.26000
9799997;-0.25000
9802775;-0.25000
9805553;-0.25000
9808331;-0.25000
9811108;-0.24500
9813886;-0.23500
9816664;-0.22000
9819442;-0.23000
9822219;-0.23000
9824997;-0.23000
9827775;-0.24500
9830553;-0.23000
9833331;-0.22500
9836108;-0.23500
9838886;-0.23500
9841664;-0.24500
9844442;-0.23500
9847219;-0.23000
9849997;-0.22500
9852775;-0.22500
9855553;-0.23000
9858331;-0.23000
9861108;-0.22500
9863886;-0.21000
9866664;-0.20000
9869442;-0.20500
9872219;-0.22000
9874997;-0.23500
9877775;-0.25500
9880553;-0.25000
9883331;-0.24500
9886108;-0.24500
9888886;-0.26000
9891664;-0.25500
9894442;-0.26000
9897219;-0.26000
9899997;-0.25500
9902775;-0.26000
9905553;-0.25000
9908331;-0.25000
9911108;-0.25500
9913886;-0.24000
9916664;-0.24500
9919442;-0.25000
9922219;-0.26000
9924997;-0.26000
9927775;-0.25500
9930553;-0.24500
9933331;-0.24000
9936108;-0.25000
9938886;-0.27000
9941664;-0.28500
9944442;-0.29000
9947219;-0.28000
9949997;-0.28000
9952775;-0.29000
9955553;-0.28500
9958331;-0.29500
9961108;-0.30000
9963886;-0.28000
9966664;-0.27000
9969442;-0.27500
9972219;-0.31000
9974997;-0.31500
9977775;-0.31000
9980553;-0.29500
9983331;-0.30500
9986108;-0.30000
9988886;-0.32000
9991664;-0.32500
9994442;-0.33000
9997219;-0.31000
9999997;-0.28500
10002775;-0.28500
10005553;-0.27500
10008331;-0.28000
10011108;-0.29000
10013886;-0.30500
10016664;-0.29000
10019442;-0.29500
10022219;-0.29500
10024997;-0.30500
10027775;-0.30500
10030553;-0.30000
10033331;-0.29000
10036108;-0.30500
10038886;-0.29500
10041664;-0.30500
10044442;-0.31000
10047219;-0.31000
10049997;-0.29000
10052775;-0.29000
10055553;-0.29500
10058331;-0.31000
10061108;-0.32000
10063886;-0.30000
10066664;-0.27000
10069442;-0.26000
10072219;-0.25000
10074997;-0.25500
10077775;-0.25000
10080553;-0.23000
10083331;-0.21500
10086108;-0.21500
10088886;-0.21000
10091664;-0.21500
10094442;-0.21500
10097219;-0.20500
10099997;-0.18000
10102775;-0.17500
10105553;-0.17500
10108331;-0.20500
10111108;-0.22000
10113886;-0.21500
10116664;-0.21500
10119442;-0.23500
10122219;-0.22000
10124997;-0.22000
10127775;-0.21000
10130553;-0.21000
10133330;-0.21500
10136108;-0.21500
10138886;-0.20000
10141664;-0.20500
10144442;-0.22500
10147219;-0.25500
10149997;-0.25500
10152775;-0.27000
10155553;-0.29500
10158330;-0.29500
10161108;-0.31500
10163886;-0.31500
10166664;-0.29500
10169442;-0.32000
10172219;-0.30500
10174997;-0.31000
10177775;-0.31500
10180553;-0.30500
10183330;-0.30000
10186108;-0.32000
10188886;-0.31000
10191664;-0.32000
10194442;-0.33500
10197219;-0.32500
10199997;-0.33500
10202775;-0.35500
10205553;-0.35000
10208330;-0.35000
10211108;-0.36500
10213886;-0.34000
10216664;-0.33500
10219442;-0.35000
10222219;-0.34500
10224997;-0.33000
10227775;-0.35000
10230553;-0.37500
10233330;-0.40000
10236108;-0.43500
10238886;-0.45500
10241664;-0.48000
10244442;-0.52000
10247219;-0.50500
10249997;-0.41500
10252775;-0.26500
10255553;-0.07500
10258330;0.13500
10261108;0.42500
10263886;0.72000
10266664;0.94500
10269442;1.02500
10272219;0.90000
10274997;0.55000
10277775;0.06000
10280553;-0.29000
10283330;-0.43000
10286108;-0.45000
10288886;-0.42000
10291664;-0.38500
10294442;-0.36500
10297219;-0.35000
10299997;-0.35500
10302775;-0.35500
10305553;-0.34500
10308330;-0.34500
10311108;-0.35500
10313886;-0.36000
10316664;-0.35000
10319442;-0.36000
10322219;-0.37000
10324997;-0.38000
10327775;-0.36500
10330553;-0.35500
10333330;-0.35000
10336108;-0.36000
10338886;-0.37500
10341664;-0.37000
10344442;-0.38500
10347219;-0.37000
10349997;-0.35500
10352775;-0.36500
10355553;-0.36500
10358330;-0.39500
10361108;-0.39000
10363886;-0.37500
10366664;-0.35000
10369442;-0.36000
10372219;-0.37500
10374997;-0.39500
10377775;-0.38000
10380553;-0.36500
10383330;-0.35000
10386108;-0.35500
10388886;-0.37000
10391664;-0.39000
10394442;-0.39500
10397219;-0.38000
10399997;-0.36500
10402775;-0.36000
10405553;-0.36500
10408330;-0.36500
10411108;-0.36000
10413886;-0.36500
10416664;-0.35000
10419442;-0.37000
10422219;-0.37500
10424997;-0.39000
10427775;-0.39000
10430553;-0.38000
10433330;-0.36500
10436108;-0.36000
10438886;-0.37000
10441664;-0.38000
10444442;-0.38000
10447219;-0.36500
10449997;-0.36000
10452775;-0.36000
10455553;-0.37500
10458330;-0.38000
10461108;-0.38000
10463886;-0.37500
10466664;-0.36000
10469442;-0.37500
10472219;-0.39500
10474997;-0.39500
10477775;-0.39500
10480553;-0.38500
10483330;-0.38500
10486108;-0.39500
10488886;-0.40500
10491664;-0.40000
10494442;-0.41000
10497219;-0.41000
10499997;-0.40000
10502775;-0.41500
10505553;-0.42000
10508330;-0.44000
10511108;-0.44000
10513886;-0.43500
10516664;-0.43500
10519441;-0.43000
10522219;-0.44000
10524997;-0.45000
10527775;-0.43500
10530553;-0.43000
10533330;-0.41000
10536108;-0.40500
10538886;-0.41500
10541664;-0.40500
10544441;-0.39500
10547219;-0.38000
10549997;-0.35500
10552775;-0.36500
10555553;-0.37000
10558330;-0.36500
10561108;-0.36000
10563886;-0.34500
10566664;-0.32000
10569441;-0.31000
10572219;-0.31000
10574997;-0.31500
10577775;-0.30000
10580553;-0.29500
10583330;-0.26000
10586108;-0.26500
10588886;-0.27500
10591664;-0.27000
10594441;-0.28000
10597219;-0.26500
10599997;-0.24500
10602775;-0.24000
10605553;-0.25000
10608330;-0.25000
10611108;-0.25500
10613886;-0.24500
10616664;-0.23000
10619441;-0.24500
10622219;-0.26000
10624997;-0.26000
10627775;-0.26500
10630553;-0.26500
10633330;-0.25500
10636108;-0.25500
10638886;-0.25500
10641664;-0.26500
10644441;-0.27500
10647219;-0.25000
10649997;-0.24500
10652775;-0.25500
10655553;-0.24000
10658330;-0.25500
10661108;-0.25500
10663886;-0.23500
10666664;-0.24500
10669441;-0.25000
10672219;-0.25000
10674997;-0.26000
10677775;-0.27000
10680553;-0.26000
10683330;-0.25500
10686108;-0.24500
10688886;-0.26500
10691664;-0.29000
10694441;-0.29500
10697219;-0.28500
10699997;-0.27000
10702775;-0.27500
10705553;-0.26000
10708330;-0.27500
10711108;-0.28000
10713886;-0.26000
10716664;-0.26000
10719441;-0.26000
10722219;-0.26500
10724997;-0.27000
10727775;-0.28000
10730553;-0.27000
10733330;-0.26500
10736108;-0.27000
10738886;-0.27500
10741664;-0.28000
10744441;-0.28500
10747219;-0.27000
10749997;-0.26000
10752775;-0.27000
10755553;-0.27500
10758330;-0.27500
10761108;-0.28000
10763886;-0.26000
10766664;-0.25000
10769441;-0.25000
10772219;-0.26000
10774997;-0.26000
10777775;-0.27000
10780553;-0.25500
10783330;-0.24000
10786108;-0.25500
10788886;-0.25000
10791664;-0.26000
10794441;-0.26000
10797219;-0.26000
10799997;-0.24500
10802775;-0.25000
10805553;-0.26500
10808330;-0.27000
10811108;-0.27500
10813886;-0.26000
10816664;-0.25500
10819441;-0.25500
10822219;-0.27000
10824997;-0.27500
10827775;-0.27500
10830553;-0.25500
10833330;-0.25000
10836108;-0.24000
10838886;-0.25500
10841664;-0.26500
10844441;-0.26000
10847219;-0.24000
10849997;-0.23000
10852775;-0.22500
10855553;-0.22000
10858330;-0.21500
10861108;-0.21000
10863886;-0.20000
10866664;-0.18500
10869441;-0.18500
10872219;-0.17000
10874997;-0.17500
10877775;-0.16000
10880553;-0.16000
10883330;-0.14500
10886108;-0.13000
10888886;-0.15000
10891664;-0.16000
10894441;-0.17500
10897219;-0.16500
10899997;-0.16500
10902775;-0.18500
10905553;-0.17000
10908330;-0.17000
10911108;-0.18500
10913886;-0.17000
10916664;-0.16000
10919441;-0.14500
10922219;-0.13500
10924997;-0.14000
10927775;-0.17000
10930552;-0.19000
10933330;-0.19500
10936108;-0.21000
10938886;-0.24500
10941664;-0.25500
10944441;-0.26500
10947219;-0.28500
10949997;-0.26500
10952775;-0.27500
10955552;-0.28500
10958330;-0.30500
10961108;-0.28500
10963886;-0.28500
10966664;-0.27500
10969441;-0.27500
10972219;-0.29500
10974997;-0.30000
10977775;-0.30500
10980552;-0.28500
10983330;-0.28000
10986108;-0.27500
10988886;-0.28000
10991664;-0.31000
10994441;-0.30000
10997219;-0.28500
10999997;-0.28500
11002775;-0.27500
11005552;-0.29500
11008330;-0.30000
11011108;-0.30500
11013886;-0.32500
11016664;-0.35500
11019441;-0.41500
11022219;-0.43000
11024997;-0.44500
11027775;-0.46500
11030552;-0.51000
11033330;-0.52500
11036108;-0.53000
11038886;-0.48500
11041664;-0.41000
11044441;-0.27000
11047219;-0.09500
11049997;0.11500
11052775;0.35000
11055552;0.65000
11058330;0.93000
11061108;1.13500
11063886;1.22500
11066664;1.13000
11069441;0.75000
11072219;0.21000
11074997;-0.22500
11077775;-0.42000
11080552;-0.40000
11083330;-0.32500
11086108;-0.27000
11088886;-0.27000
11091664;-0.29500
11094441;-0.30500
11097219;-0.29500
11099997;-0.29000
11102775;-0.30000
11105552;-0.30000
11108330;-0.31500
11111108;-0.31500
11113886;-0.30000
11116664;-0.29500
11119441;-0.30500
11122219;-0.30000
11124997;-0.31000
11127775;-0.31500
11130552;-0.30500
11133330;-0.30500
11136108;-0.30000
11138886;-0.32000
11141664;-0.32500
11144441;-0.33000
11147219;-0.32500
11149997;-0.31500
11152775;-0.31500
11155552;-0.31500
11158330;-0.33000
11161108;-0.33500
11163886;-0.32000
11166664;-0.31000
11169441;-0.32000
11172219;-0.32000
11174997;-0.31500
11177775;-0.32500
11180552;-0.31500
11183330;-0.30500
11186108;-0.30500
11188886;-0.31500
11191664;-0.31500
11194441;-0.31000
11197219;-0.31000
11199997;-0.31000
11202775;-0.31500
11205552;-0.32000
11208330;-0.31500
11211108;-0.32500
11213886;-0.31500
11216664;-0.31000
11219441;-0.31500
11222219;-0.30500
11224997;-0.32000
11227775;-0.31500
11230552;-0.31000
11233330;-0.30500
11236108;-0.30500
11238886;-0.30500
11241664;-0.31500
11244441;-0.30500
11247219;-0.30000
11249997;-0.30500
11252775;-0.30000
11255552;-0.31000
11258330;-0.32500
11261108;-0.32000
11263886;-0.30000
11266664;-0.30000
11269441;-0.30500
11272219;-0.31500
11274997;-0.32000
11277775;-0.32500
11280552;-0.31500
11283330;-0.30500
11286108;-0.31000
11288886;-0.31500
11291664;-0.34000
11294441;-0.33500
11297219;-0.34000
11299997;-0.32000
11302775;-0.31500
11305552;-0.33000
11308330;-0.33000
11311108;-0.33000
11313886;-0.31500
11316663;-0.32000
11319441;-0.32000
11322219;-0.31500
11324997;-0.32500
11327775;-0.34500
11330552;-0.32500
11333330;-0.31500
11336108;-0.30500
11338886;-0.31000
11341663;-0.30500
11344441;-0.31500
11347219;-0.29500
11349997;-0.27000
11352775;-0.26000
11355552;-0.25000
11358330;-0.25000
11361108;-0.23500
11363886;-0.22000
11366663;-0.20000
11369441;-0.19500
11372219;-0.18500
11374997;-0.17500
11377775;-0.17000
11380552;-0.12500
11383330;-0.10500
11386108;-0.07000
11388886;-0.06000
11391663;-0.05000
11394441;-0.05500
11397219;-0.04500
11399997;-0.03500
11402775;-0.04000
11405552;-0.03500
11408330;-0.03000
11411108;-0.04500
11413886;-0.03000
11416663;-0.03000
11419441;-0.06000
11422219;-0.07500
11424997;-0.09500
11427775;-0.11500
11430552;-0.11500
11433330;-0.13000
11436108;-0.12000
11438886;-0.13500
11441663;-0.13500
11444441;-0.14500
11447219;-0.13000
11449997;-0.15500
11452775;-0.14500
11455552;-0.15500
11458330;-0.16500
11461108;-0.17500
11463886;-0.17000
11466663;-0.17500
11469441;-0.19000
11472219;-0.19500
11474997;-0.21000
11477775;-0.22000
11480552;-0.21000
11483330;-0.22000
11486108;-0.24000
11488886;-0.24500
11491663;-0.26500
11494441;-0.26000
11497219;-0.24500
11499997;-0.24500
11502775;-0.25000
11505552;-0.26000
11508330;-0.27500
11511108;-0.28000
11513886;-0.27000
11516663;-0.27000
11519441;-0.28000
11522219;-0.28000
11524997;-0.28500
11527775;-0.29000
11530552;-0.28000
11533330;-0.27000
11536108;-0.28000
11538886;-0.28000
11541663;-0.28500
11544441;-0.28500
11547219;-0.28000
11549997;-0.26500
11552775;-0.26500
11555552;-0.28000
11558330;-0.27500
11561108;-0.31000
11563886;-0.31500
11566663;-0.34000
11569441;-0.36500
11572219;-0.40000
11574997;-0.43000
11577775;-0.42500
11580552;-0.33000
11583330;-0.14500
11586108;0.06000
11588886;0.25500
11591663;0.47000
11594441;0.72000
11597219;0.99000
11599997;1.22500
11602775;1.32500
11605552;1.35500
11608330;1.27000
11611108;1.04000
11613886;0.71500
11616663;0.34000
11619441;-0.00500
11622219;-0.26500
11624997;-0.36500
11627775;-0.36000
11630552;-0.29500
11633330;-0.24000
11636108;-0.24500
11638886;-0.27500
11641663;-0.27500
11644441;-0.29000
11647219;-0.28000
11649997;-0.27000
11652775;-0.28500
11655552;-0.29000
11658330;-0.30000
11661108;-0.30500
11663886;-0.29500
11666663;-0.29000
11669441;-0.29000
11672219;-0.30500
11674997;-0.31500
11677775;-0.32000
11680552;-0.30500
11683330;-0.28500
11686108;-0.28500
11688886;-0.29000
11691663;-0.31000
11694441;-0.31000
11697219;-0.29000
11699997;-0.28500
11702775;-0.29000
11705552;-0.29000
11708330;-0.30500
11711108;-0.30500
11713886;-0.29500
11716663;-0.28500
11719441;-0.29500
11722219;-0.29500
11724997;-0.30500
11727774;-0.31000
11730552;-0.28500
11733330;-0.29500
11736108;-0.29000
11738886;-0.29500
11741663;-0.29000
11744441;-0.29000
11747219;-0.29000
11749997;-0.28500
11752774;-0.29500
11755552;-0.29000
11758330;-0.29500
11761108;-0.29000
11763886;-0.28000
11766663;-0.28000
11769441;-0.28500
11772219;-0.29500
11774997;-0.30500
11777774;-0.31500
11780552;-0.30500
11783330;-0.29000
11786108;-0.29000
11788886;-0.30500
11791663;-0.31000
11794441;-0.31000
11797219;-0.30000
11799997;-0.29000
11802774;-0.27500
11805552;-0.30500
11808330;-0.31000
11811108;-0.31500
11813886;-0.30500
11816663;-0.31500
11819441;-0.31500
11822219;-0.32500
11824997;-0.33500
11827774;-0.34000
11830552;-0.33500
11833330;-0.32500
11836108;-0.33500
11838886;-0.34000
11841663;-0.34500
11844441;-0.35000
11847219;-0.34500
11849997;-0.33500
11852774;-0.33000
11855552;-0.34000
11858330;-0.35000
11861108;-0.34000
11863886;-0.32000
11866663;-0.29500
11869441;-0.29500
11872219;-0.30000
11874997;-0.30000
11877774;-0.28500
11880552;-0.28000
11883330;-0.27000
11886108;-0.26000
11888886;-0.27000
11891663;-0.28000
11894441;-0.28000
11897219;-0.26500
11899997;-0.24000
11902774;-0.24000
11905552;-0.25000
11908330;-0.26000
11911108;-0.25000
11913886;-0.24000
11916663;-0.23000
11919441;-0.23000
11922219;-0.24000
11924997;-0.24000
11927774;-0.24000
11930552;-0.23500
11933330;-0.22500
11936108;-0.23000
11938886;-0.23000
11941663;-0.23000
11944441;-0.25000
11947219;-0.23000
11949997;-0.22000
11952774;-0.23000
11955552;-0.25000
11958330;-0.25000
11961108;-0.25500
11963886;-0.25000
11966663;-0.25000
11969441;-0.25000
11972219;-0.25000
11974997;-0.27000
11977774;-0.27000
11980552;-0.26500
11983330;-0.25000
11986108;-0.26000
11988886;-0.27000
11991663;-0.28500
11994441;-0.28500
11997219;-0.27000
11999997;-0.26500
12002774;-0.27000
12005552;-0.27000
12008330;-0.28500
12011108;-0.27500
12013886;-0.27000
12016663;-0.26000
12019441;-0.26000
12022219;-0.27000
12024997;-0.27500
12027774;-0.27000
12030552;-0.26000
12033330;-0.25000
12036108;-0.25000
12038886;-0.26000
12041663;-0.27500
12044441;-0.27500
12047219;-0.27000
12049997;-0.26500
12052774;-0.26000
12055552;-0.27000
12058330;-0.28000
12061108;-0.28500
12063886;-0.26500
12066663;-0.27000
12069441;-0.26000
12072219;-0.26500
12074997;-0.27000
12077774;-0.27000
12080552;-0.26500
12083330;-0.25500
12086108;-0.26000
12088886;-0.26000
12091663;-0.27500
12094441;-0.27500
12097219;-0.26500
12099997;-0.24000
12102774;-0.25500
12105552;-0.24500
12108330;-0.25500
12111108;-0.26500
12113885;-0.25500
12116663;-0.23500
12119441;-0.24000
12122219;-0.25500
12124997;-0.25000
12127774;-0.27500
12130552;-0.25500
12133330;-0.25000
12136108;-0.24500
12138885;-0.25500
12141663;-0.28000
12144441;-0.27500
12147219;-0.26500
12149997;-0.25500
12152774;-0.25500
12155552;-0.26500
12158330;-0.28000
12161108;-0.27000
12163885;-0.26500
12166663;-0.25500
12169441;-0.26500
12172219;-0.26000
12174997;-0.26500
12177774;-0.27000
12180552;-0.25500
12183330;-0.24500
12186108;-0.24500
12188885;-0.25000
12191663;-0.25500
12194441;-0.26500
12197219;-0.25500
12199997;-0.24000
12202774;-0.24500
12205552;-0.25000
12208330;-0.27000
12211108;-0.26500
12213885;-0.26500
12216663;-0.25000
12219441;-0.25000
12222219;-0.26000
12224997;-0.28500
12227774;-0.28500
12230552;-0.27000
12233330;-0.25500
12236108;-0.25000
12238885;-0.26000
12241663;-0.27000
12244441;-0.26500
12247219;-0.25000
12249997;-0.24500
12252774;-0.25500
12255552;-0.25500
12258330;-0.25500
12261108;-0.26000
12263885;-0.25000
12266663;-0.23500
12269441;-0.25000
12272219;-0.23500
12274997;-0.25500
12277774;-0.26000
12280552;-0.26000
12283330;-0.25000
12286108;-0.25000
12288885;-0.26000
12291663;-0.26500
12294441;-0.28500
12297219;-0.26000
12299997;-0.25500
12302774;-0.25000
12305552;-0.25500
12308330;-0.27000
12311108;-0.27500
12313885;-0.26500
12316663;-0.26000
12319441;-0.24500
12322219;-0.24000
12324997;-0.24500
12327774;-0.25000
12330552;-0.23500
12333330;-0.22500
12336108;-0.20500
12338885;-0.19500
12341663;-0.18500
12344441;-0.19500
12347219;-0.19000
12349997;-0.19000
12352774;-0.18500
12355552;-0.19000
12358330;-0.19000
12361108;-0.18000
12363885;-0.16000
12366663;-0.15000
12369441;-0.14500
12372219;-0.15000
12374997;-0.15500
12377774;-0.16000
12380552;-0.16500
12383330;-0.15500
12386108;-0.16500
12388885;-0.18000
12391663;-0.18500
12394441;-0.19000
12397219;-0.17500
12399997;-0.17000
12402774;-0.18000
12405552;-0.18000
12408330;-0.17000
12411108;-0.15000
12413885;-0.13000
12416663;-0.14000
12419441;-0.17500
12422219;-0.19500
12424997;-0.21000
12427774;-0.23000
12430552;-0.23500
12433330;-0.24000
12436108;-0.24500
12438885;-0.25500
12441663;-0.26500
12444441;-0.28000
12447219;-0.28500
12449997;-0.26500
12452774;-0.27000
12455552;-0.27500
12458330;-0.29000
12461108;-0.28500
12463885;-0.28000
12466663;-0.27500
12469441;-0.28500
12472219;-0.28500
12474997;-0.29000
12477774;-0.29500
12480552;-0.29000
12483330;-0.28500
12486108;-0.28500
12488885;-0.28500
12491663;-0.29500
12494441;-0.30000
12497219;-0.28000
12499996;-0.28000
12502774;-0.29000
12505552;-0.30000
12508330;-0.31000
12511108;-0.33500
12513885;-0.37000
12516663;-0.40000
12519441;-0.43000
12522219;-0.44500
12524996;-0.49000
12527774;-0.50500
12530552;-0.42500
12533330;-0.28500
12536108;-0.11500
12538885;0.04500
12541663;0.25500
12544441;0.51500
12547219;0.80500
12549996;1.03500
12552774;1.15000
12555552;1.14000
12558330;0.93000
12561108;0.51000
12563885;0.05000
12566663;-0.27000
12569441;-0.40500
12572219;-0.39500
12574996;-0.34500
12577774;-0.30500
12580552;-0.30000
12583330;-0.31000
12586108;-0.33000
12588885;-0.33500
12591663;-0.34000
12594441;-0.34000
12597219;-0.34000
12599996;-0.34000
12602774;-0.36000
12605552;-0.35500
12608330;-0.36000
12611108;-0.36500
12613885;-0.35500
12616663;-0.34500
12619441;-0.35000
12622219;-0.35500
12624996;-0.36000
12627774;-0.36000
12630552;-0.35000
12633330;-0.33000
12636108;-0.33500
12638885;-0.35000
12641663;-0.35000
12644441;-0.36500
12647219;-0.35000
12649996;-0.34500
12652774;-0.34000
12655552;-0.35500
12658330;-0.37000
12661108;-0.37000
12663885;-0.35500
12666663;-0.35000
12669441;-0.35000
12672219;-0.35500
12674996;-0.37000
12677774;-0.38000
12680552;-0.36500
12683330;-0.36500
12686108;-0.36000
12688885;-0.35500
12691663;-0.36500
12694441;-0.36000
12697219;-0.35000
12699996;-0.34000
12702774;-0.35500
12705552;-0.36000
12708330;-0.37000
12711108;-0.36000
12713885;-0.35000
12716663;-0.34000
12719441;-0.34000
12722219;-0.35000
12724996;-0.36000
12727774;-0.35500
12730552;-0.36000
12733330;-0.35500
12736108;-0.35000
12738885;-0.35000
12741663;-0.36500
12744441;-0.38000
12747219;-0.36500
12749996;-0.36000
12752774;-0.35500
12755552;-0.37000
12758330;-0.38000
12761108;-0.37000
12763885;-0.36000
12766663;-0.34500
12769441;-0.34500
12772219;-0.34000
12774996;-0.36000
12777774;-0.36000
12780552;-0.36000
12783330;-0.35500
12786108;-0.36000
12788885;-0.36500
12791663;-0.38500
12794441;-0.38000
12797219;-0.37000
12799996;-0.36000
12802774;-0.35500
12805552;-0.37500
12808330;-0.37500
12811108;-0.37000
12813885;-0.37000
12816663;-0.35500
12819441;-0.36500
12822219;-0.38000
12824996;-0.39500
12827774;-0.38500
12830552;-0.38000
12833330;-0.37000
12836108;-0.35500
12838885;-0.35500
12841663;-0.35500
12844441;-0.36000
12847219;-0.35000
12849996;-0.33500
12852774;-0.34500
12855552;-0.33500
12858330;-0.33000
12861108;-0.33500
12863885;-0.32000
12866663;-0.31500
12869441;-0.30500
12872219;-0.29500
12874996;-0.29000
12877774;-0.28500
12880552;-0.27000
12883330;-0.26000
12886108;-0.26500
12888885;-0.25000
12891663;-0.25500
12894441;-0.25000
12897219;-0.25000
12899996;-0.24000
12902774;-0.24500
12905552;-0.25000
12908330;-0.26000
12911107;-0.26000
12913885;-0.25000
12916663;-0.26000
12919441;-0.25500
12922219;-0.27000
12924996;-0.28500
12927774;-0.28000
12930552;-0.27500
12933330;-0.26500
12936107;-0.25500
12938885;-0.25000
12941663;-0.26000
12944441;-0.27000
12947219;-0.27000
12949996;-0.24500
12952774;-0.25000
12955552;-0.26000
12958330;-0.28000
12961107;-0.27000
12963885;-0.25500
12966663;-0.25500
12969441;-0.25500
12972219;-0.26500
12974996;-0.29500
12977774;-0.29500
12980552;-0.27500
12983330;-0.26500
12986107;-0.27000
12988885;-0.28000
12991663;-0.30000
12994441;-0.30000
12997219;-0.30500
12999996;-0.29500
13002774;-0.29000
13005552;-0.31000
13008330;-0.32000
13011107;-0.32500
13013885;-0.31500
13016663;-0.29500
13019441;-0.30000
13022219;-0.29500
13024996;-0.30500
13027774;-0.32500
13030552;-0.32000
13033330;-0.30500
13036107;-0.32000
13038885;-0.31000
13041663;-0.33000
13044441;-0.31000
13047219;-0.31000
13049996;-0.30000
13052774;-0.30000
13055552;-0.30500
13058330;-0.32000
13061107;-0.32500
13063885;-0.31000
13066663;-0.32000
13069441;-0.32000
13072219;-0.33500
13074996;-0.35000
13077774;-0.35000
13080552;-0.33000
13083330;-0.33000
13086107;-0.34000
13088885;-0.34000
13091663;-0.35000
13094441;-0.35500
13097219;-0.34000
13099996;-0.35000
13102774;-0.34000
13105552;-0.34500
13108330;-0.35000
13111107;-0.35500
13113885;-0.33000
13116663;-0.33000
13119441;-0.33500
13122219;-0.34500
13124996;-0.35000
13127774;-0.35500
13130552;-0.34000
13133330;-0.33000
13136107;-0.32000
13138885;-0.33000
13141663;-0.32000
13144441;-0.34000
13147219;-0.32500
13149996;-0.33000
13152774;-0.33500
13155552;-0.33000
13158330;-0.33500
13161107;-0.32500
13163885;-0.34500
13166663;-0.33000
13169441;-0.31000
13172219;-0.30500
13174996;-0.30000
13177774;-0.29500
13180552;-0.28500
13183330;-0.28000
13186107;-0.26500
13188885;-0.26000
13191663;-0.26500
13194441;-0.27000
13197219;-0.25500
13199996;-0.23000
13202774;-0.22500
13205552;-0.23000
13208330;-0.24500
13211107;-0.24000
13213885;-0.23500
13216663;-0.23500
13219441;-0.22500
13222219;-0.23500
13224996;-0.25500
13227774;-0.26500
13230552;-0.25500
13233330;-0.25500
13236107;-0.26000
13238885;-0.25500
13241663;-0.24500
13244441;-0.25000
13247219;-0.27000
13249996;-0.27000
13252774;-0.26500
13255552;-0.25000
13258330;-0.23000
13261107;-0.23000
13263885;-0.25000
13266663;-0.27500
13269441;-0.29000
13272219;-0.30500
13274996;-0.32500
13277774;-0.35000
13280552;-0.36500
13283330;-0.36000
13286107;-0.38000
13288885;-0.37500
13291663;-0.37500
13294441;-0.38500
13297218;-0.37500
13299996;-0.37500
13302774;-0.37500
13305552;-0.37500
13308330;-0.38000
13311107;-0.38000
13313885;-0.36500
13316663;-0.35000
13319441;-0.35000
13322218;-0.36000
13324996;-0.39000
13327774;-0.40000
13330552;-0.39000
13333330;-0.36000
13336107;-0.37000
13338885;-0.37500
13341663;-0.38500
13344441;-0.39500
13347218;-0.39500
13349996;-0.39000
13352774;-0.41000
13355552;-0.44500
13358330;-0.48500
13361107;-0.51500
13363885;-0.53500
13366663;-0.57000
13369441;-0.60500
13372218;-0.62500
13374996;-0.59000
13377774;-0.50500
13380552;-0.40000
13383330;-0.29000
13386107;-0.19000
13388885;-0.05500
13391663;0.12500
13394441;0.37000
13397218;0.64000
13399996;0.84000
13402774;0.93000
13405552;0.86500
13408330;0.65000
13411107;0.26500
13413885;-0.10500
13416663;-0.35500
13419441;-0.49000
13422218;-0.52500
13424996;-0.49000
13427774;-0.45500
13430552;-0.42000
13433330;-0.41000
13436107;-0.40000
13438885;-0.40500
13441663;-0.41000
13444441;-0.41500
13447218;-0.40500
13449996;-0.39500
13452774;-0.39000
13455552;-0.40000
13458330;-0.40000
13461107;-0.41500
13463885;-0.40500
13466663;-0.40500
13469441;-0.40000
13472218;-0.39000
13474996;-0.40500
13477774;-0.41500
13480552;-0.41500
13483330;-0.41500
13486107;-0.41500
13488885;-0.41500
13491663;-0.42000
13494441;-0.43000
13497218;-0.42500
13499996;-0.41000
13502774;-0.40000
13505552;-0.39500
13508330;-0.40500
13511107;-0.40500
13513885;-0.40000
13516663;-0.40000
13519441;-0.39500
13522218;-0.40000
13524996;-0.41000
13527774;-0.43000
13530552;-0.41500
13533330;-0.41000
13536107;-0.42000
13538885;-0.43000
13541663;-0.42500
13544441;-0.42000
13547218;-0.41500
13549996;-0.40500
13552774;-0.41500
13555552;-0.42000
13558330;-0.42500
13561107;-0.42500
13563885;-0.40000
13566663;-0.40500
13569441;-0.40000
13572218;-0.41000
13574996;-0.43000
13577774;-0.43500
13580552;-0.43000
13583330;-0.42500
13586107;-0.42500
13588885;-0.43000
13591663;-0.44000
13594441;-0.45000
13597218;-0.43500
13599996;-0.41500
13602774;-0.41000
13605552;-0.41000
13608330;-0.42500
13611107;-0.42000
13613885;-0.41500
13616663;-0.41000
13619441;-0.40500
13622218;-0.41000
13624996;-0.41500
13627774;-0.42500
13630552;-0.43500
13633330;-0.42500
13636107;-0.43000
13638885;-0.43500
13641663;-0.44500
13644441;-0.45000
13647218;-0.44500
13649996;-0.43500
13652774;-0.45000
13655552;-0.45000
13658330;-0.46500
13661107;-0.48000
13663885;-0.47500
13666663;-0.47500
13669441;-0.48000
13672218;-0.47500
13674996;-0.48000
13677774;-0.47000
13680552;-0.45000
13683330;-0.45000
13686107;-0.47000
13688885;-0.47500
13691663;-0.48000
13694441;-0.47500
13697218;-0.46500
13699996;-0.45000
13702774;-0.44500
13705552;-0.43500
13708329;-0.42000
13711107;-0.42000
13713885;-0.39000
13716663;-0.36000
13719441;-0.36000
13722218;-0.35000
13724996;-0.34500
13727774;-0.35500
13730552;-0.34000
13733329;-0.33000
13736107;-0.34000
13738885;-0.34000
13741663;-0.34500
13744441;-0.34500
13747218;-0.33000
13749996;-0.32500
13752774;-0.32500
13755552;-0.33000
13758329;-0.32500
13761107;-0.33000
13763885;-0.32500
13766663;-0.31500
13769441;-0.32500
13772218;-0.31500
13774996;-0.31500
13777774;-0.33500
13780552;-0.32500
13783329;-0.33000
13786107;-0.34000
13788885;-0.33500
13791663;-0.34500
13794441;-0.36500
13797218;-0.34500
13799996;-0.34500
13802774;-0.34500
13805552;-0.33000
13808329;-0.33500
13811107;-0.32500
13813885;-0.31000
13816663;-0.31500
13819441;-0.32500
13822218;-0.34000
13824996;-0.35500
13827774;-0.36500
13830552;-0.35500
13833329;-0.35500
13836107;-0.35000
13838885;-0.35500
13841663;-0.38000
13844441;-0.38000
13847218;-0.37500
13849996;-0.36500
13852774;-0.36500
13855552;-0.37000
13858329;-0.37000
13861107;-0.37500
13863885;-0.35500
13866663;-0.36500
13869441;-0.37000
13872218;-0.38500
13874996;-0.39500
13877774;-0.38000
13880552;-0.37500
13883329;-0.37000
13886107;-0.37000
13888885;-0.38000
13891663;-0.39000
13894441;-0.39500
13897218;-0.38000
13899996;-0.37000
13902774;-0.36000
13905552;-0.36000
13908329;-0.36500
13911107;-0.36500
13913885;-0.35000
13916663;-0.34000
13919441;-0.36000
13922218;-0.38000
13924996;-0.39000
13927774;-0.39000
13930552;-0.39000
13933329;-0.37500
13936107;-0.37000
13938885;-0.38500
13941663;-0.39500
13944441;-0.40000
13947218;-0.38500
13949996;-0.37500
13952774;-0.36000
13955552;-0.36000
13958329;-0.35500
13961107;-0.36000
13963885;-0.37000
13966663;-0.36000
13969441;-0.37000
13972218;-0.35000
13974996;-0.35500
13977774;-0.35500
13980552;-0.36000
13983329;-0.36500
13986107;-0.36500
13988885;-0.38000
13991663;-0.38500
13994441;-0.38500
13997218;-0.37500
13999996;-0.36500
14002774;-0.35500
14005552;-0.36000
14008329;-0.35000
14011107;-0.34000
14013885;-0.34000
14016663;-0.32500
14019441;-0.32000
14022218;-0.31500
14024996;-0.32000
14027774;-0.31500
14030552;-0.30000
14033329;-0.29000
14036107;-0.27500
14038885;-0.26000
14041663;-0.24500
14044441;-0.24500
14047218;-0.25500
14049996;-0.26000
14052774;-0.28000
14055552;-0.28000
14058329;-0.28500
14061107;-0.29500
14063885;-0.28500
14066663;-0.26500
14069441;-0.27500
14072218;-0.30000
14074996;-0.32000
14077774;-0.32000
14080552;-0.29500
14083329;-0.27000
14086107;-0.26500
14088885;-0.29000
14091663;-0.32000
14094440;-0.33500
14097218;-0.33500
14099996;-0.35000
14102774;-0.35000
14105552;-0.37500
14108329;-0.38500
14111107;-0.38500
14113885;-0.38500
14116663;-0.37500
14119440;-0.38000
14122218;-0.38500
14124996;-0.38000
14127774;-0.38000
14130552;-0.37500
14133329;-0.37500
14136107;-0.39000
14138885;-0.39500
14141663;-0.39500
14144440;-0.39000
14147218;-0.38500
14149996;-0.38000
14152774;-0.38500
14155552;-0.40000
14158329;-0.41500
14161107;-0.42500
14163885;-0.41000
14166663;-0.40000
14169440;-0.39000
14172218;-0.41500
14174996;-0.41000
14177774;-0.44000
14180552;-0.45500
14183329;-0.48500
14186107;-0.49000
14188885;-0.49000
14191663;-0.49500
14194440;-0.50000
14197218;-0.52500
14199996;-0.55500
14202774;-0.59000
14205552;-0.61500
14208329;-0.60000
14211107;-0.53500
14213885;-0.41500
14216663;-0.29000
14219440;-0.12000
14222218;0.06500
14224996;0.27500
14227774;0.54500
14230552;0.78500
14233329;0.94500
14236107;1.00000
14238885;0.90000
14241663;0.58000
14244440;0.12500
14247218;-0.25500
14249996;-0.44500
14252774;-0.49000
14255552;-0.49000
14258329;-0.47000
14261107;-0.44500
14263885;-0.41500
14266663;-0.40500
14269440;-0.41000
14272218;-0.40500
14274996;-0.42000
14277774;-0.41000
14280552;-0.43000
14283329;-0.40500
14286107;-0.41000
14288885;-0.40500
14291663;-0.40500
14294440;-0.41000
14297218;-0.41000
14299996;-0.41000
14302774;-0.40500
14305552;-0.42000
14308329;-0.43000
14311107;-0.43000
14313885;-0.42000
14316663;-0.41500
14319440;-0.41000
14322218;-0.41500
14324996;-0.42500
14327774;-0.42000
14330552;-0.42500
14333329;-0.41500
14336107;-0.41500
14338885;-0.41500
14341663;-0.43000
14344440;-0.43000
14347218;-0.42000
14349996;-0.41500
14352774;-0.40000
14355552;-0.40500
14358329;-0.40500
14361107;-0.41000
14363885;-0.42000
14366663;-0.39000
14369440;-0.39500
14372218;-0.39500
14374996;-0.41500
14377774;-0.41000
14380552;-0.41000
14383329;-0.40000
14386107;-0.40000
14388885;-0.40000
14391663;-0.42500
14394440;-0.43000
14397218;-0.41500
14399996;-0.40500
14402774;-0.40500
14405552;-0.41000
14408329;-0.42500
14411107;-0.42000
14413885;-0.41000
14416663;-0.40500
14419440;-0.40000
14422218;-0.41000
14424996;-0.41000
14427774;-0.41000
14430552;-0.40000
14433329;-0.39000
14436107;-0.39500
14438885;-0.40500
14441663;-0.40500
14444440;-0.40500
14447218;-0.41500
14449996;-0.40500
14452774;-0.41000
14455552;-0.42000
14458329;-0.43500
14461107;-0.44000
14463885;-0.44500
14466663;-0.43500
14469440;-0.44000
14472218;-0.45500
14474996;-0.46000
14477774;-0.47000
14480552;-0.46500
14483329;-0.47000
14486107;-0.46500
14488885;-0.47000
14491663;-0.48000
14494440;-0.49000
14497218;-0.49500
14499996;-0.48000
14502774;-0.47500
14505551;-0.47000
14508329;-0.47500
14511107;-0.47000
14513885;-0.45500
14516663;-0.44500
14519440;-0.44500
14522218;-0.44500
14524996;-0.45500
14527774;-0.46000
14530551;-0.44000
14533329;-0.42000
14536107;-0.41000
14538885;-0.40500
14541663;-0.41000
14544440;-0.39500
14547218;-0.37500
14549996;-0.35500
14552774;-0.35000
14555551;-0.34000
14558329;-0.34000
14561107;-0.33000
14563885;-0.32000
14566663;-0.29500
14569440;-0.28500
14572218;-0.29000
14574996;-0.29500
14577774;-0.30500
14580551;-0.28500
14583329;-0.28500
14586107;-0.29500
14588885;-0.29000
14591663;-0.30500
14594440;-0.30500
14597218;-0.29000
14599996;-0.28500
14602774;-0.27000
14605551;-0.29500
14608329;-0.30000
14611107;-0.30000
14613885;-0.29000
14616663;-0.28500
14619440;-0.28000
14622218;-0.29000
14624996;-0.29500
14627774;-0.29000
14630551;-0.28500
14633329;-0.28000
14636107;-0.28500
14638885;-0.28500
14641663;-0.29500
14644440;-0.30000
14647218;-0.28500
14649996;-0.28500
14652774;-0.27500
14655551;-0.28000
14658329;-0.29500
14661107;-0.29000
14663885;-0.28000
14666663;-0.26500
14669440;-0.27500
14672218;-0.27500
14674996;-0.30500
14677774;-0.29000
14680551;-0.29500
14683329;-0.30000
14686107;-0.30500
14688885;-0.31500
14691663;-0.32000
14694440;-0.31500
14697218;-0.31000
14699996;-0.28500
14702774;-0.29500
14705551;-0.30000
14708329;-0.30000
14711107;-0.30500
14713885;-0.30500
14716663;-0.29000
14719440;-0.29500
14722218;-0.29500
14724996;-0.30500
14727774;-0.31500
14730551;-0.30500
14733329;-0.29500
14736107;-0.30000
14738885;-0.29500
14741663;-0.32000
14744440;-0.31500
14747218;-0.31000
14749996;-0.29500
14752774;-0.29500
14755551;-0.30500
14758329;-0.31500
14761107;-0.31500
14763885;-0.30500
14766663;-0.28500
14769440;-0.28000
14772218;-0.29000
14774996;-0.30000
14777774;-0.30500
14780551;-0.31000
14783329;-0.29500
14786107;-0.29500
14788885;-0.30000
14791663;-0.30500
14794440;-0.30500
14797218;-0.30500
14799996;-0.29000
14802774;-0.28500
14805551;-0.29500
14808329;-0.29500
14811107;-0.30000
14813885;-0.29000
14816663;-0.28000
14819440;-0.28000
14822218;-0.29500
14824996;-0.29500
14827774;-0.30000
14830551;-0.29000
14833329;-0.29000
14836107;-0.27500
14838885;-0.26500
14841663;-0.27000
14844440;-0.26000
14847218;-0.24000
14849996;-0.22000
14852774;-0.20500
14855551;-0.20500
14858329;-0.21000
14861107;-0.22500
14863885;-0.20500
14866663;-0.20000
14869440;-0.19500
14872218;-0.19000
14874996;-0.19000
14877774;-0.19000
14880551;-0.18000
14883329;-0.16500
14886107;-0.15500
14888885;-0.17500
14891662;-0.19000
14894440;-0.19500
14897218;-0.20500
14899996;-0.19500
14902774;-0.19000
14905551;-0.19000
14908329;-0.19500
14911107;-0.21500
14913885;-0.19500
14916662;-0.17000
14919440;-0.16000
14922218;-0.14000
14924996;-0.17500
14927774;-0.20500
14930551;-0.23000
14933329;-0.22000
14936107;-0.24000
14938885;-0.25000
14941662;-0.28500
14944440;-0.28500
14947218;-0.29500
14949996;-0.28500
14952774;-0.29000
14955551;-0.29000
14958329;-0.29000
14961107;-0.30000
14963885;-0.30500
14966662;-0.29000
14969440;-0.28500
14972218;-0.30000
14974996;-0.30500
14977774;-0.31500
14980551;-0.29500
14983329;-0.31000
14986107;-0.29500
14988885;-0.30000
14991662;-0.31000
14994440;-0.30500
14997218;-0.29500
14999996;-0.28500
15002774;-0.28500
15005551;-0.29000
15008329;-0.30000
15011107;-0.30500
15013885;-0.30500
15016662;-0.31000
15019440;-0.32500
15022218;-0.37000
15024996;-0.41500
15027774;-0.45500
15030551;-0.46000
15033329;-0.47500
15036107;-0.49500
15038885;-0.43000
15041662;-0.31500
15044440;-0.13000
15047218;0.07000
15049996;0.29500
15052774;0.55500
15055551;0.84000
15058329;1.05500
15061107;1.20000
15063885;1.25000
15066662;1.12000
15069440;0.78000
15072218;0.26000
15074996;-0.14000
15077774;-0.37500
15080551;-0.40000
15083329;-0.34500
15086107;-0.29500
15088885;-0.28500
15091662;-0.31000
15094440;-0.30500
15097218;-0.31000
15099996;-0.32000
15102774;-0.30500
15105551;-0.32000
15108329;-0.33500
15111107;-0.33500
15113885;-0.32500
15116662;-0.32000
15119440;-0.32500
15122218;-0.32500
15124996;-0.33500
15127774;-0.34500
15130551;-0.34000
15133329;-0.33500
15136107;-0.34000
15138885;-0.34500
15141662;-0.35000
15144440;-0.37000
15147218;-0.36000
15149996;-0.35500
15152774;-0.35000
15155551;-0.36000
15158329;-0.35500
15161107;-0.37000
15163885;-0.35000
15166662;-0.34000
15169440;-0.33500
15172218;-0.33500
15174996;-0.35500
15177774;-0.36000
15180551;-0.35000
15183329;-0.34000
15186107;-0.34500
15188885;-0.34500
15191662;-0.35000
15194440;-0.36500
15197218;-0.35500
15199996;-0.35000
15202774;-0.34500
15205551;-0.36000
15208329;-0.35000
15211107;-0.36000
15213885;-0.36000
15216662;-0.35500
15219440;-0.34500
15222218;-0.34500
15224996;-0.35000
15227774;-0.36000
15230551;-0.35000
15233329;-0.34000
15236107;-0.33500
15238885;-0.34500
15241662;-0.35000
15244440;-0.35500
15247218;-0.34000
15249996;-0.32500
15252774;-0.31500
15255551;-0.33000
15258329;-0.34000
15261107;-0.35000
15263885;-0.34000
15266662;-0.33500
15269440;-0.34000
15272218;-0.35000
15274996;-0.36500
15277774;-0.37500
15280551;-0.35500
15283329;-0.36000
15286107;-0.35000
15288885;-0.35500
15291662;-0.36500
15294440;-0.37500
15297218;-0.36000
15299996;-0.36500
15302773;-0.35500
15305551;-0.37000
15308329;-0.37500
15311107;-0.38000
15313885;-0.37500
15316662;-0.36500
15319440;-0.36000
15322218;-0.37500
15324996;-0.37500
15327773;-0.38000
15330551;-0.36000
15333329;-0.35500
15336107;-0.34500
15338885;-0.34500
15341662;-0.35500
15344440;-0.36500
15347218;-0.37500
15349996;-0.34500
15352773;-0.34000
15355551;-0.33500
15358329;-0.34500
15361107;-0.32500
15363885;-0.31000
15366662;-0.28500
15369440;-0.27500
15372218;-0.27500
15374996;-0.27500
15377773;-0.27000
15380551;-0.26500
15383329;-0.24000
15386107;-0.23500
15388885;-0.24000
15391662;-0.24500
15394440;-0.24000
15397218;-0.23500
15399996;-0.22000
15402773;-0.20500
15405551;-0.22000
15408329;-0.22000
15411107;-0.22500
15413885;-0.21500
15416662;-0.20500
15419440;-0.20000
15422218;-0.21500
15424996;-0.22000
15427773;-0.22500
15430551;-0.22000
15433329;-0.21500
15436107;-0.20500
15438885;-0.21500
15441662;-0.23000
15444440;-0.23500
15447218;-0.22000
15449996;-0.21000
15452773;-0.22500
15455551;-0.23500
15458329;-0.23500
15461107;-0.23000
15463885;-0.23000
15466662;-0.21500
15469440;-0.22000
15472218;-0.22500
15474996;-0.24000
15477773;-0.24000
15480551;-0.22500
15483329;-0.21000
15486107;-0.21500
15488885;-0.23000
15491662;-0.24000
15494440;-0.24500
15497218;-0.23500
15499996;-0.23500
15502773;-0.23500
15505551;-0.24500
15508329;-0.25000
15511107;-0.25000
15513885;-0.26500
15516662;-0.24000
15519440;-0.25500
15522218;-0.25000
15524996;-0.26000
15527773;-0.26000
15530551;-0.26000
15533329;-0.26000
15536107;-0.27500
15538885;-0.27000
15541662;-0.26500
15544440;-0.27000
15547218;-0.26500
15549996;-0.25000
15552773;-0.25500
15555551;-0.26000
15558329;-0.26500
15561107;-0.26500
15563885;-0.26000
15566662;-0.26000
15569440;-0.26500
15572218;-0.26500
15574996;-0.28000
15577773;-0.28500
15580551;-0.28500
15583329;-0.27500
15586107;-0.27500
15588885;-0.27000
15591662;-0.28500
15594440;-0.29000
15597218;-0.27500
15599996;-0.27000
15602773;-0.26000
15605551;-0.27000
15608329;-0.27500
15611107;-0.27500
15613885;-0.26000
15616662;-0.25000
15619440;-0.25500
15622218;-0.27000
15624996;-0.27500
15627773;-0.27500
15630551;-0.26500
15633329;-0.26000
15636107;-0.25500
15638885;-0.26000
15641662;-0.26000
15644440;-0.27000
15647218;-0.26500
15649996;-0.25000
15652773;-0.25500
15655551;-0.25500
15658329;-0.24500
15661107;-0.25000
15663885;-0.22000
15666662;-0.20000
15669440;-0.17500
15672218;-0.18000
15674996;-0.18500
15677773;-0.19000
15680551;-0.18000
15683329;-0.16500
15686107;-0.16000
15688884;-0.15000
15691662;-0.15500
15694440;-0.15500
15697218;-0.14000
15699996;-0.14500
15702773;-0.14500
15705551;-0.16000
15708329;-0.16500
15711107;-0.18000
15713884;-0.18500
15716662;-0.17000
15719440;-0.16000
15722218;-0.17500
15724996;-0.19000
15727773;-0.19000
15730551;-0.17000
15733329;-0.14500
15736107;-0.12500
15738884;-0.13000
15741662;-0.15500
15744440;-0.19000
15747218;-0.20000
15749996;-0.19000
15752773;-0.18500
15755551;-0.20000
15758329;-0.22000
15761107;-0.23500
15763884;-0.23500
15766662;-0.24000
15769440;-0.24500
15772218;-0.26500
15774996;-0.26500
15777773;-0.27000
15780551;-0.26000
15783329;-0.26000
15786107;-0.26000
15788884;-0.27000
15791662;-0.28500
15794440;-0.28500
15797218;-0.27500
15799996;-0.27500
15802773;-0.28500
15805551;-0.28000
15808329;-0.29500
15811107;-0.29500
15813884;-0.28500
15816662;-0.29000
15819440;-0.28500
15822218;-0.28000
15824996;-0.29000
15827773;-0.30500
15830551;-0.30000
15833329;-0.31000
15836107;-0.34000
15838884;-0.37500
15841662;-0.40500
15844440;-0.43000
15847218;-0.45000
15849996;-0.46500
15852773;-0.44500
15855551;-0.32000
15858329;-0.15500
15861107;0.03500
15863884;0.24500
15866662;0.51500
15869440;0.82000
15872218;1.06500
15874996;1.21500
15877773;1.30000
15880551;1.38500
15883329;1.41500
15886107;1.36500
15888884;1.18000
15891662;0.89000
15894440;0.49500
15897218;0.09000
15899996;-0.22000
15902773;-0.36500
15905551;-0.38000
15908329;-0.34500
15911107;-0.30000
15913884;-0.28500
15916662;-0.28500
15919440;-0.30000
15922218;-0.30500
15924996;-0.31000
15927773;-0.32000
15930551;-0.30500
15933329;-0.30500
15936107;-0.32000
15938884;-0.31500
15941662;-0.31500
15944440;-0.33000
15947218;-0.33000
15949996;-0.31000
15952773;-0.31500
15955551;-0.33500
15958329;-0.34500
15961107;-0.34500
15963884;-0.35500
15966662;-0.34500
15969440;-0.33500
15972218;-0.33000
15974996;-0.34000
15977773;-0.34500
15980551;-0.34000
15983329;-0.33500
15986107;-0.34500
15988884;-0.34500
15991662;-0.36000
15994440;-0.35000
15997218;-0.35000
15999996;-0.34500
16002773;-0.33500
16005551;-0.34000
16008329;-0.34500
16011107;-0.34000
16013884;-0.34000
16016662;-0.34000
16019440;-0.33000
16022218;-0.34000
16024996;-0.34500
16027773;-0.36500
16030551;-0.34000
16033329;-0.34000
16036107;-0.33500
16038884;-0.34000
16041662;-0.34000
16044440;-0.36500
16047218;-0.35500
16049996;-0.34000
16052773;-0.35500
16055551;-0.35000
16058329;-0.34500
16061107;-0.35000
16063884;-0.34500
16066662;-0.33500
16069440;-0.34000
16072218;-0.35000
16074995;-0.35000
16077773;-0.35000
16080551;-0.35000
16083329;-0.33500
16086107;-0.33500
16088884;-0.35000
16091662;-0.35500
16094440;-0.36000
16097218;-0.36000
16099995;-0.35000
16102773;-0.34000
16105551;-0.34500
16108329;-0.36500
16111107;-0.37000
16113884;-0.37500
16116662;-0.36000
16119440;-0.35500
16122218;-0.36000
16124995;-0.38000
16127773;-0.38500
16130551;-0.37500
16133329;-0.37000
16136107;-0.37000
16138884;-0.38000
16141662;-0.38000
16144440;-0.38500
16147218;-0.37500
16149995;-0.36000
16152773;-0.36000
16155551;-0.36500
16158329;-0.36500
16161107;-0.35500
16163884;-0.34000
16166662;-0.34000
16169440;-0.33500
16172218;-0.32500
16174995;-0.33000
16177773;-0.33000
16180551;-0.31000
16183329;-0.29500
16186107;-0.28000
16188884;-0.28500
16191662;-0.28500
16194440;-0.28500
16197218;-0.27000
16199995;-0.26500
16202773;-0.25000
16205551;-0.26500
16208329;-0.27500
16211107;-0.27000
16213884;-0.26000
16216662;-0.25000
16219440;-0.24500
16222218;-0.26000
16224995;-0.26500
16227773;-0.26000
16230551;-0.25000
16233329;-0.24500
16236107;-0.24000
16238884;-0.23500
16241662;-0.24500
16244440;-0.26000
16247218;-0.24500
16249995;-0.23500
16252773;-0.24000
16255551;-0.24500
16258329;-0.26000
16261107;-0.27500
16263884;-0.27000
16266662;-0.25000
16269440;-0.25000
16272218;-0.25500
16274995;-0.27000
16277773;-0.28500
16280551;-0.26500
16283329;-0.27000
16286107;-0.26500
16288884;-0.27500
16291662;-0.28000
16294440;-0.28500
16297218;-0.28000
16299995;-0.28000
16302773;-0.27500
16305551;-0.28500
16308329;-0.28500
16311107;-0.30000
16313884;-0.29000
16316662;-0.28500
16319440;-0.28000
16322218;-0.30500
16324995;-0.30000
16327773;-0.30500
16330551;-0.30500
16333329;-0.29500
16336107;-0.30000
16338884;-0.32000
16341662;-0.32000
16344440;-0.32500
16347218;-0.32500
16349995;-0.32500
16352773;-0.31000
16355551;-0.31500
16358329;-0.33000
16361107;-0.33500
16363884;-0.34000
16366662;-0.33500
16369440;-0.32500
16372218;-0.32500
16374995;-0.33500
16377773;-0.34500
16380551;-0.33000
16383329;-0.33000
16386107;-0.32500
16388884;-0.33000
16391662;-0.33500
16394440;-0.33500
16397218;-0.33000
16399995;-0.32500
16402773;-0.33000
16405551;-0.33000
16408329;-0.33500
16411107;-0.34500
16413884;-0.33000
16416662;-0.32000
16419440;-0.32000
16422218;-0.33000
16424995;-0.33000
16427773;-0.33500
16430551;-0.33000
16433329;-0.32000
16436107;-0.31500
16438884;-0.32500
16441662;-0.32000
16444440;-0.32000
16447218;-0.31000
16449995;-0.29500
16452773;-0.30500
16455551;-0.30000
16458329;-0.31000
16461107;-0.30500
16463884;-0.30000
16466662;-0.27000
16469440;-0.26500
16472218;-0.25500
16474995;-0.25500
16477773;-0.26000
16480551;-0.25000
16483329;-0.24000
16486106;-0.22500
16488884;-0.22500
16491662;-0.24000
16494440;-0.22500
16497218;-0.22000
16499995;-0.21000
16502773;-0.20000
16505551;-0.19500
16508329;-0.21500
16511106;-0.20500
16513884;-0.20000
16516662;-0.20500
16519440;-0.20500
16522218;-0.22000
16524995;-0.22000
16527773;-0.23500
16530551;-0.23000
16533329;-0.23500
16536106;-0.23500
16538884;-0.22500
16541662;-0.21000
16544440;-0.21500
16547218;-0.23000
16549995;-0.24000
16552773;-0.27000
16555551;-0.28000
16558329;-0.31000
16561106;-0.33000
16563884;-0.33000
16566662;-0.33500
16569440;-0.32000
16572218;-0.33500
16574995;-0.33500
16577773;-0.34500
16580551;-0.34000
16583329;-0.32500
16586106;-0.32000
16588884;-0.33000
16591662;-0.34500
16594440;-0.35500
16597218;-0.35000
16599995;-0.34500
16602773;-0.34000
16605551;-0.35500
16608329;-0.36000
16611106;-0.36500
16613884;-0.36000
16616662;-0.35000
16619440;-0.35000
16622218;-0.35000
16624995;-0.36500
16627773;-0.37000
16630551;-0.38000
16633329;-0.40500
16636106;-0.43500
16638884;-0.48000
16641662;-0.50500
16644440;-0.54500
16647218;-0.55000
16649995;-0.52500
16652773;-0.43000
16655551;-0.27000
16658329;-0.11000
16661106;0.09000
16663884;0.35000
16666662;0.66000
16669440;0.90500
16672218;1.04000
16674995;1.03500
16677773;0.83000
16680551;0.41500
16683329;-0.05000
16686106;-0.37000
16688884;-0.50000
16691662;-0.47000
16694440;-0.41000
16697218;-0.37000
16699995;-0.36500
16702773;-0.37500
16705551;-0.38500
16708329;-0.39500
16711106;-0.40000
16713884;-0.39000
16716662;-0.38500
16719440;-0.39000
16722218;-0.40000
16724995;-0.40000
16727773;-0.40000
16730551;-0.39000
16733329;-0.38500
16736106;-0.39000
16738884;-0.39500
16741662;-0.40500
16744440;-0.41000
16747218;-0.40000
16749995;-0.39500
16752773;-0.38500
16755551;-0.39500
16758329;-0.40000
16761106;-0.40500
16763884;-0.40000
16766662;-0.39500
16769440;-0.39000
16772218;-0.40000
16774995;-0.40500
16777773;-0.42000
16780551;-0.41000
16783329;-0.40000
16786106;-0.39500
16788884;-0.40500
16791662;-0.42000
16794440;-0.42500
16797218;-0.41500
16799995;-0.40000
16802773;-0.41500
16805551;-0.41500
16808329;-0.42500
16811106;-0.42000
16813884;-0.41500
16816662;-0.41500
16819440;-0.42500
16822218;-0.41500
16824995;-0.41500
16827773;-0.43000
16830551;-0.41500
16833329;-0.40500
16836106;-0.40000
16838884;-0.40000
16841662;-0.41500
16844440;-0.42000
16847218;-0.41000
16849995;-0.40000
16852773;-0.39500
16855551;-0.40000
16858329;-0.41000
16861106;-0.41000
16863884;-0.41000
16866662;-0.40500
16869440;-0.40500
16872217;-0.41000
16874995;-0.42500
16877773;-0.42500
16880551;-0.42500
16883329;-0.42000
16886106;-0.40500
16888884;-0.43000
16891662;-0.44500
16894440;-0.45000
16897217;-0.44500
16899995;-0.43500
16902773;-0.43500
16905551;-0.42500
16908329;-0.43500
16911106;-0.43500
16913884;-0.42500
16916662;-0.42500
16919440;-0.43500
16922217;-0.43000
16924995;-0.44500
16927773;-0.45500
16930551;-0.44000
16933329;-0.43000
16936106;-0.42500
16938884;-0.42500
16941662;-0.43000
16944440;-0.43000
16947217;-0.42000
16949995;-0.41000
16952773;-0.40000
16955551;-0.40500
16958329;-0.41500
16961106;-0.40500
16963884;-0.39000
16966662;-0.38500
16969440;-0.37000
16972217;-0.37500
16974995;-0.37000
16977773;-0.37000
16980551;-0.34500
16983329;-0.33500
16986106;-0.34500
16988884;-0.32500
16991662;-0.33500
16994440;-0.33500
16997217;-0.33500
16999995;-0.32500
17002773;-0.32000
17005551;-0.31500
17008329;-0.32500
17011106;-0.33500
17013884;-0.34000
17016662;-0.32500
17019440;-0.32000
17022217;-0.33000
17024995;-0.34500
17027773;-0.34000
17030551;-0.33500
17033329;-0.34500
17036106;-0.34500
17038884;-0.35000
17041662;-0.35000
17044440;-0.37500
17047217;-0.36500
17049995;-0.34000
17052773;-0.33500
17055551;-0.34500
17058329;-0.35500
17061106;-0.37000
17063884;-0.35000
17066662;-0.35500
17069440;-0.36000
17072217;-0.36000
17074995;-0.35500
17077773;-0.35000
17080551;-0.35500
17083329;-0.35500
17086106;-0.34500
17088884;-0.36500
17091662;-0.37500
17094440;-0.39000
17097217;-0.39000
17099995;-0.38500
17102773;-0.38500
17105551;-0.39000
17108329;-0.40000
17111106;-0.39000
17113884;-0.38500
17116662;-0.39500
17119440;-0.39000
17122217;-0.39500
17124995;-0.41500
17127773;-0.39500
17130551;-0.39500
17133329;-0.39500
17136106;-0.39500
17138884;-0.39500
17141662;-0.41000
17144440;-0.40500
17147217;-0.39500
17149995;-0.39000
17152773;-0.39000
17155551;-0.39000
17158329;-0.40500
17161106;-0.42000
17163884;-0.41000
17166662;-0.39500
17169440;-0.39000
17172217;-0.38500
17174995;-0.40000
17177773;-0.40000
17180551;-0.40500
17183329;-0.39000
17186106;-0.39000
17188884;-0.39000
17191662;-0.40500
17194440;-0.40000
17197217;-0.39500
17199995;-0.40000
17202773;-0.39000
17205551;-0.39500
17208329;-0.40000
17211106;-0.42000
17213884;-0.39500
17216662;-0.40000
17219440;-0.39000
17222217;-0.41000
17224995;-0.41500
17227773;-0.41000
17230551;-0.40500
17233329;-0.38500
17236106;-0.37000
17238884;-0.35500
17241662;-0.35000
17244440;-0.35000
17247217;-0.34500
17249995;-0.32000
17252773;-0.32500
17255551;-0.34500
17258329;-0.33000
17261106;-0.34000
17263884;-0.31500
17266662;-0.29500
17269440;-0.29500
17272217;-0.30500
17274995;-0.30000
17277773;-0.30500
17280551;-0.31500
17283328;-0.30500
17286106;-0.30500
17288884;-0.32500
17291662;-0.32000
17294440;-0.32500
17297217;-0.31000
17299995;-0.30000
17302773;-0.31000
17305551;-0.31500
17308328;-0.30500
17311106;-0.29500
17313884;-0.29000
17316662;-0.29000
17319440;-0.33000
17322217;-0.35000
17324995;-0.39000
17327773;-0.41000
17330551;-0.42000
17333328;-0.42000
17336106;-0.43000
17338884;-0.42500
17341662;-0.43500
17344440;-0.44000
17347217;-0.44000
17349995;-0.43000
17352773;-0.42500
17355551;-0.41500
17358328;-0.41500
17361106;-0.43000
17363884;-0.43000
17366662;-0.42000
17369440;-0.42500
17372217;-0.42500
17374995;-0.44000
17377773;-0.44500
17380551;-0.43000
17383328;-0.41500
17386106;-0.41000
17388884;-0.41500
17391662;-0.42500
17394440;-0.44000
17397217;-0.44000
17399995;-0.48500
17402773;-0.52500
17405551;-0.55500
17408328;-0.56000
17411106;-0.58000
17413884;-0.61500
17416662;-0.64000
17419440;-0.62000
17422217;-0.56000
17424995;-0.47500
17427773;-0.35500
17430551;-0.19000
17433328;-0.00500
17436106;0.25000
17438884;0.52000
17441662;0.76000
17444440;0.89000
17447217;0.84000
17449995;0.56000
17452773;0.10000
17455551;-0.31000
17458328;-0.52000
17461106;-0.57000
17463884;-0.54500
17466662;-0.48000
17469440;-0.44500
17472217;-0.44000
17474995;-0.44500
17477773;-0.46000
17480551;-0.45000
17483328;-0.44500
17486106;-0.46000
17488884;-0.47000
17491662;-0.47000
17494440;-0.47000
17497217;-0.45500
17499995;-0.45000
17502773;-0.46000
17505551;-0.46000
17508328;-0.46500
17511106;-0.46500
17513884;-0.45000
17516662;-0.46500
17519440;-0.45500
17522217;-0.46500
17524995;-0.46500
17527773;-0.47500
17530551;-0.45000
17533328;-0.44500
17536106;-0.44000
17538884;-0.43500
17541662;-0.45500
17544440;-0.46500
17547217;-0.47000
17549995;-0.46500
17552773;-0.47000
17555551;-0.46500
17558328;-0.49000
17561106;-0.49500
17563884;-0.46500
17566662;-0.44500
17569440;-0.44000
17572217;-0.45500
17574995;-0.47500
17577773;-0.47500
17580551;-0.46500
17583328;-0.45500
17586106;-0.46000
17588884;-0.46000
17591662;-0.45000
17594440;-0.45000
17597217;-0.43000
17599995;-0.44500
17602773;-0.44000
17605551;-0.45000
17608328;-0.47000
17611106;-0.46000
17613884;-0.45500
17616662;-0.43500
17619440;-0.41000
17622217;-0.42000
17624995;-0.45000
17627773;-0.46500
17630551;-0.46500
17633328;-0.46000
17636106;-0.44500
17638884;-0.44500
17641662;-0.45000
17644440;-0.46000
17647217;-0.46500
17649995;-0.47000
17652773;-0.47500
17655551;-0.47500
17658328;-0.48000
17661106;-0.48500
17663884;-0.47500
17666662;-0.47000
17669439;-0.47500
17672217;-0.48500
17674995;-0.50000
17677773;-0.51000
17680551;-0.52000
17683328;-0.51000
17686106;-0.50000
17688884;-0.49000
17691662;-0.50500
17694439;-0.51500
17697217;-0.52000
17699995;-0.52500
17702773;-0.52000
17705551;-0.52000
17708328;-0.51000
17711106;-0.49500
17713884;-0.49000
17716662;-0.48000
17719439;-0.46500
17722217;-0.43000
17724995;-0.43000
17727773;-0.42500
17730551;-0.42500
17733328;-0.40000
17736106;-0.39500
17738884;-0.38500
17741662;-0.38500
17744439;-0.39500
17747217;-0.37000
17749995;-0.35000
17752773;-0.34000
17755551;-0.35000
17758328;-0.34500
17761106;-0.34500
17763884;-0.32500
17766662;-0.30500
17769439;-0.31500
17772217;-0.32500
17774995;-0.33500
17777773;-0.34500
17780551;-0.32000
17783328;-0.32000
17786106;-0.31500
17788884;-0.32000
17791662;-0.33000
17794439;-0.32500
17797217;-0.32500
17799995;-0.31500
17802773;-0.32500
17805551;-0.33500
17808328;-0.34000
17811106;-0.35500
17813884;-0.34500
17816662;-0.32500
17819439;-0.33500
17822217;-0.34000
17824995;-0.35000
17827773;-0.35000
17830551;-0.33500
17833328;-0.32500
17836106;-0.32500
17838884;-0.33500
17841662;-0.34500
17844439;-0.35000
17847217;-0.35000
17849995;-0.34000
17852773;-0.35000
17855551;-0.36000
17858328;-0.36000
17861106;-0.36000
17863884;-0.35000
17866662;-0.35000
17869439;-0.33500
17872217;-0.35500
17874995;-0.36000
17877773;-0.38000
17880551;-0.37000
17883328;-0.36000
17886106;-0.36500
17888884;-0.37500
17891662;-0.37500
17894439;-0.37500
17897217;-0.37000
17899995;-0.36500
17902773;-0.36000
17905551;-0.36000
17908328;-0.36500
17911106;-0.36500
17913884;-0.37000
17916662;-0.34500
17919439;-0.33500
17922217;-0.34500
17924995;-0.34500
17927773;-0.35000
17930551;-0.36000
17933328;-0.33500
17936106;-0.33000
17938884;-0.33000
17941662;-0.34500
17944439;-0.35500
17947217;-0.34000
17949995;-0.35000
17952773;-0.35000
17955551;-0.36000
17958328;-0.36000
17961106;-0.36500
17963884;-0.35500
17966662;-0.35000
17969439;-0.35500
17972217;-0.35500
17974995;-0.35500
17977773;-0.36500
17980551;-0.36000
17983328;-0.35500
17986106;-0.34500
17988884;-0.34000
17991662;-0.35000
17994439;-0.36000
17997217;-0.34500
17999995;-0.33500
18002773;-0.32500
18005551;-0.31500
18008328;-0.32500
18011106;-0.32500
18013884;-0.31000
18016662;-0.30000
18019439;-0.28000
18022217;-0.28000
18024995;-0.27500
18027773;-0.27000
18030551;-0.27000
18033328;-0.26500
18036106;-0.25000
18038884;-0.25000
18041662;-0.24000
18044439;-0.24500
18047217;-0.22500
18049995;-0.21500
18052773;-0.21500
18055550;-0.22500
18058328;-0.24500
18061106;-0.25000
18063884;-0.25000
18066662;-0.23500
18069439;-0.23500
18072217;-0.23000
18074995;-0.23000
18077773;-0.26000
18080550;-0.24500
18083328;-0.25500
18086106;-0.22500
18088884;-0.20500
18091662;-0.21000
18094439;-0.25000
18097217;-0.27500
18099995;-0.29000
18102773;-0.30000
18105550;-0.31500
18108328;-0.33500
18111106;-0.35000
18113884;-0.36500
18116662;-0.35500
18119439;-0.34000
18122217;-0.35000
18124995;-0.35500
18127773;-0.36000
18130550;-0.36000
18133328;-0.35500
18136106;-0.35000
18138884;-0.35000
18141662;-0.35000
18144439;-0.36000
18147217;-0.35000
18149995;-0.33500
18152773;-0.34000
18155550;-0.33500
18158328;-0.35000
18161106;-0.36000
18163884;-0.35000
18166662;-0.34500
18169439;-0.35000
18172217;-0.36500
18174995;-0.38000
18177773;-0.42500
18180550;-0.46500
18183328;-0.48000
18186106;-0.50000
18188884;-0.54500
18191662;-0.58500
18194439;-0.58000
18197217;-0.50500
18199995;-0.40500
18202773;-0.28500
18205550;-0.17500
18208328;-0.08000
18211106;0.04500
18213884;0.24000
18216662;0.50500
18219439;0.76500
18222217;0.96500
18224995;1.08500
18227773;1.04000
18230550;0.79500
18233328;0.36000
18236106;-0.09500
18238884;-0.40000
18241662;-0.49500
18244439;-0.47500
18247217;-0.39500
18249995;-0.36000
18252773;-0.34500
18255550;-0.37000
18258328;-0.37000
18261106;-0.39000
18263884;-0.38000
18266662;-0.37000
18269439;-0.37500
18272217;-0.37500
18274995;-0.39000
18277773;-0.39500
18280550;-0.39500
18283328;-0.38000
18286106;-0.37000
18288884;-0.38000
18291662;-0.39000
18294439;-0.40000
18297217;-0.37000
18299995;-0.36500
18302773;-0.36500
18305550;-0.37500
18308328;-0.38000
18311106;-0.38500
18313884;-0.38000
18316662;-0.37000
18319439;-0.36500
18322217;-0.39000
18324995;-0.39000
18327773;-0.39000
18330550;-0.39000
18333328;-0.38500
18336106;-0.37500
18338884;-0.37500
18341662;-0.38500
18344439;-0.39500
18347217;-0.37500
18349995;-0.37500
18352773;-0.37500
18355550;-0.38000
18358328;-0.38500
18361106;-0.39500
18363884;-0.38000
18366662;-0.37500
18369439;-0.36500
18372217;-0.37000
18374995;-0.37500
18377773;-0.38500
18380550;-0.37500
18383328;-0.37500
18386106;-0.36500
18388884;-0.36500
18391662;-0.38000
18394439;-0.37000
18397217;-0.37000
18399995;-0.36500
18402773;-0.37000
18405550;-0.37000
18408328;-0.38000
18411106;-0.40000
18413884;-0.36500
18416662;-0.36500
18419439;-0.36500
18422217;-0.37000
18424995;-0.39000
18427773;-0.38500
18430550;-0.38000
18433328;-0.38000
18436106;-0.37500
18438884;-0.38500
18441662;-0.39500
18444439;-0.40500
18447217;-0.40000
18449995;-0.38500
18452773;-0.40000
18455550;-0.39000
18458328;-0.39500
18461106;-0.40000
18463884;-0.39500
18466661;-0.39000
18469439;-0.38000
18472217;-0.38500
18474995;-0.39500
18477773;-0.40000
18480550;-0.40000
18483328;-0.39000
18486106;-0.38500
18488884;-0.39500
18491661;-0.40000
18494439;-0.41500
18497217;-0.40000
18499995;-0.39500
18502773;-0.39000
18505550;-0.38500
18508328;-0.39000
18511106;-0.39000
18513884;-0.37000
18516661;-0.35000
18519439;-0.34500
18522217;-0.33500
18524995;-0.32000
18527773;-0.32500
18530550;-0.31000
18533328;-0.29000
18536106;-0.27500
18538884;-0.28500
18541661;-0.28500
18544439;-0.29000
18547217;-0.26500
18549995;-0.24500
18552773;-0.24500
18555550;-0.24500
18558328;-0.26000
18561106;-0.26000
18563884;-0.23500
18566661;-0.24000
18569439;-0.23000
18572217;-0.24500
18574995;-0.24500
18577773;-0.25000
18580550;-0.24500
18583328;-0.24000
18586106;-0.23500
18588884;-0.24500
18591661;-0.25000
18594439;-0.27000
18597217;-0.26500
18599995;-0.25500
18602773;-0.24000
18605550;-0.24500
18608328;-0.26000
18611106;-0.26500
18613884;-0.25000
18616661;-0.24000
18619439;-0.23000
18622217;-0.23500
18624995;-0.24500
18627773;-0.26000
18630550;-0.25000
18633328;-0.23500
18636106;-0.24000
18638884;-0.25000
18641661;-0.24500
18644439;-0.26000
18647217;-0.25500
18649995;-0.25500
18652773;-0.24500
18655550;-0.26000
18658328;-0.27000
18661106;-0.28000
18663884;-0.28000
18666661;-0.27500
18669439;-0.27500
18672217;-0.27000
18674995;-0.27500
18677773;-0.28000
18680550;-0.27000
18683328;-0.28000
18686106;-0.27000
18688884;-0.28000
18691661;-0.28500
18694439;-0.29000
18697217;-0.28500
18699995;-0.28000
18702773;-0.27500
18705550;-0.27000
18708328;-0.28000
18711106;-0.28000
18713884;-0.28000
18716661;-0.27500
18719439;-0.27000
18722217;-0.27500
18724995;-0.28000
18727773;-0.30500
18730550;-0.29000
18733328;-0.28500
18736106;-0.27500
18738884;-0.29000
18741661;-0.30000
18744439;-0.30500
18747217;-0.29500
18749995;-0.29000
18752773;-0.28500
18755550;-0.28500
18758328;-0.30000
18761106;-0.31000
18763884;-0.30000
18766661;-0.29000
18769439;-0.28500
18772217;-0.28500
18774995;-0.29000
18777773;-0.29000
18780550;-0.28500
18783328;-0.27500
18786106;-0.27500
18788884;-0.27500
18791661;-0.28000
18794439;-0.29000
18797217;-0.27500
18799995;-0.27500
18802773;-0.27000
18805550;-0.28000
18808328;-0.28000
18811106;-0.28500
18813884;-0.27500
18816661;-0.27000
18819439;-0.26500
18822217;-0.26000
18824995;-0.26500
18827773;-0.26000
18830550;-0.23500
18833328;-0.22500
18836106;-0.20500
18838884;-0.19500
18841661;-0.21000
18844439;-0.20500
18847217;-0.19500
18849995;-0.18000
18852772;-0.17000
18855550;-0.16000
18858328;-0.16000
18861106;-0.16500
18863884;-0.15000
18866661;-0.15000
18869439;-0.14000
18872217;-0.15500
18874995;-0.17500
18877772;-0.18500
18880550;-0.19000
18883328;-0.17500
18886106;-0.17500
18888884;-0.19000
18891661;-0.21000
18894439;-0.21500
18897217;-0.20000
18899995;-0.16000
18902772;-0.14500
18905550;-0.15000
18908328;-0.19000
18911106;-0.21500
18913884;-0.23000
18916661;-0.23500
18919439;-0.23000
18922217;-0.25000
18924995;-0.26500
18927772;-0.28500
18930550;-0.27500
18933328;-0.28000
18936106;-0.26500
18938884;-0.27000
18941661;-0.27000
18944439;-0.28500
18947217;-0.28000
18949995;-0.28000
18952772;-0.27500
18955550;-0.29000
18958328;-0.30000
18961106;-0.31000
18963884;-0.31000
18966661;-0.30500
18969439;-0.29000
18972217;-0.30000
18974995;-0.31000
18977772;-0.31000
18980550;-0.30500
18983328;-0.30000
18986106;-0.29500
18988884;-0.31000
18991661;-0.30500
18994439;-0.33000
18997217;-0.31500
18999995;-0.30000
19002772;-0.31500
19005550;-0.34000
19008328;-0.39500
19011106;-0.44000
19013884;-0.44000
19016661;-0.45500
19019439;-0.48500
19022217;-0.47000
19024995;-0.37000
19027772;-0.19000
19030550;0.00500
19033328;0.23500
19036106;0.50000
19038884;0.80000
19041661;1.05000
19044439;1.18500
19047217;1.20500
19049995;1.01000
19052772;0.59000
19055550;0.10500
19058328;-0.25500
19061106;-0.41500
19063884;-0.41500
19066661;-0.34000
19069439;-0.29000
19072217;-0.29500
19074995;-0.30000
19077772;-0.33000
19080550;-0.32500
19083328;-0.32000
19086106;-0.31500
19088884;-0.32500
19091661;-0.34500
19094439;-0.35500
19097217;-0.35500
19099995;-0.34000
19102772;-0.33000
19105550;-0.34000
19108328;-0.34500
19111106;-0.36000
19113884;-0.35500
19116661;-0.34000
19119439;-0.34000
19122217;-0.34000
19124995;-0.35500
19127772;-0.36000
19130550;-0.34500
19133328;-0.32500
19136106;-0.32500
19138884;-0.34000
19141661;-0.34500
19144439;-0.34500
19147217;-0.34500
19149995;-0.33000
19152772;-0.32500
19155550;-0.33000
19158328;-0.35500
19161106;-0.36000
19163884;-0.34500
