time_ms;ecg_value
0;1.08000
2778;1.17000
5556;1.13500
8333;0.87500
11111;0.44000
13889;-0.03000
16667;-0.33000
19444;-0.43000
22222;-0.40500
25000;-0.35500
27778;-0.33500
30556;-0.33500
33333;-0.33500
36111;-0.33500
38889;-0.35000
41667;-0.35500
44444;-0.36500
47222;-0.36500
50000;-0.35500
52778;-0.36000
55556;-0.37000
58333;-0.37000
61111;-0.38000
63889;-0.37000
66667;-0.37500
69444;-0.36000
72222;-0.36000
75000;-0.37000
77778;-0.38500
80556;-0.38000
83333;-0.38000
86111;-0.36500
88889;-0.37000
91667;-0.38000
94444;-0.39000
97222;-0.38000
100000;-0.37500
102778;-0.37500
105556;-0.37000
108333;-0.38500
111111;-0.38500
113889;-0.38000
116667;-0.37000
119444;-0.37000
122222;-0.38000
125000;-0.38500
127778;-0.39500
130556;-0.39000
133333;-0.37000
136111;-0.37000
138889;-0.38000
141667;-0.38500
144444;-0.38000
147222;-0.38500
150000;-0.38500
152778;-0.37500
155556;-0.38500
158333;-0.39000
161111;-0.39000
163889;-0.39000
166667;-0.38000
169444;-0.38000
172222;-0.37500
175000;-0.39000
177778;-0.39500
180556;-0.39500
183333;-0.38000
186111;-0.38000
188889;-0.38500
191667;-0.39000
194444;-0.39500
197222;-0.39500
200000;-0.39000
202778;-0.38000
205555;-0.38000
208333;-0.38500
211111;-0.40500
213889;-0.39500
216667;-0.39500
219444;-0.38000
222222;-0.37500
225000;-0.38000
227778;-0.39000
230555;-0.40000
233333;-0.39500
236111;-0.39500
238889;-0.38000
241667;-0.38000
244444;-0.39500
247222;-0.39000
250000;-0.40000
252778;-0.37500
255555;-0.38000
258333;-0.38500
261111;-0.40500
263889;-0.38500
266667;-0.38000
269444;-0.36500
272222;-0.35000
275000;-0.36000
277778;-0.35500
280555;-0.34000
283333;-0.33000
286111;-0.31000
288889;-0.30500
291667;-0.29500
294444;-0.30000
297222;-0.28500
300000;-0.27500
302778;-0.26500
305555;-0.26500
308333;-0.26500
311111;-0.26500
313889;-0.26500
316667;-0.25500
319444;-0.25000
322222;-0.25000
325000;-0.26000
327778;-0.26500
330555;-0.26000
333333;-0.26000
336111;-0.24000
338889;-0.25500
341667;-0.26000
344444;-0.27000
347222;-0.27000
350000;-0.26000
352778;-0.24500
355555;-0.25500
358333;-0.27500
361111;-0.29000
363889;-0.28500
366667;-0.27000
369444;-0.26000
372222;-0.27000
375000;-0.26500
377778;-0.28000
380555;-0.28500
383333;-0.27000
386111;-0.28000
388889;-0.29000
391667;-0.28500
394444;-0.29500
397222;-0.29500
400000;-0.29000
402778;-0.28500
405555;-0.28000
408333;-0.28000
411111;-0.29500
413889;-0.29500
416667;-0.29000
419444;-0.28000
422222;-0.29000
425000;-0.30000
427778;-0.31500
430555;-0.32000
433333;-0.30000
436111;-0.30000
438889;-0.30500
441667;-0.31500
444444;-0.33500
447222;-0.33500
450000;-0.32000
452778;-0.32000
455555;-0.31500
458333;-0.32500
461111;-0.34000
463889;-0.33000
466667;-0.32500
469444;-0.32000
472222;-0.32500
475000;-0.32500
477778;-0.33500
480555;-0.33000
483333;-0.33000
486111;-0.32000
488889;-0.32500
491667;-0.32000
494444;-0.34500
497222;-0.33500
500000;-0.33000
502778;-0.31500
505555;-0.31500
508333;-0.32000
511111;-0.33500
513889;-0.33500
516667;-0.32000
519444;-0.32000
522222;-0.32500
525000;-0.33000
527778;-0.33000
530555;-0.32500
533333;-0.32000
536111;-0.31500
538889;-0.31500
541667;-0.32000
544444;-0.33000
547222;-0.33000
550000;-0.32000
552778;-0.31500
555555;-0.31500
558333;-0.31500
561111;-0.33500
563889;-0.31500
566667;-0.30000
569444;-0.29000
572222;-0.28500
575000;-0.26500
577778;-0.26500
580555;-0.25500
583333;-0.25000
586111;-0.25000
588889;-0.24500
591667;-0.24500
594444;-0.26000
597222;-0.24500
600000;-0.23000
602778;-0.21000
605555;-0.22000
608333;-0.21000
611111;-0.21500
613889;-0.22500
616666;-0.21500
619444;-0.21500
622222;-0.21500
625000;-0.23500
627778;-0.24500
630555;-0.24000
633333;-0.23000
636111;-0.23000
638889;-0.23000
641666;-0.23500
644444;-0.23000
647222;-0.19500
650000;-0.18500
652778;-0.19500
655555;-0.24000
658333;-0.26500
661111;-0.28500
663889;-0.29000
666666;-0.30000
669444;-0.31000
672222;-0.32500
675000;-0.33000
677778;-0.32000
680555;-0.33500
683333;-0.33500
686111;-0.33000
688889;-0.33000
691666;-0.33500
694444;-0.34000
697222;-0.34000
700000;-0.33500
702778;-0.33000
705555;-0.33500
708333;-0.34000
711111;-0.34500
713889;-0.34500
716666;-0.34500
719444;-0.34500
722222;-0.34000
725000;-0.35000
727778;-0.36000
730555;-0.35500
733333;-0.34500
736111;-0.34000
738889;-0.35000
741666;-0.37500
744444;-0.41500
747222;-0.46000
750000;-0.47500
752778;-0.50500
755555;-0.54000
758333;-0.58000
761111;-0.59500
763889;-0.53000
766666;-0.40000
769444;-0.26500
772222;-0.10000
775000;0.06500
777778;0.28000
780555;0.59500
783333;0.87000
786111;1.02000
788889;1.06000
791666;0.91500
794444;0.52500
797222;0.05500
800000;-0.30500
802778;-0.45500
805555;-0.45500
808333;-0.41000
811111;-0.38000
813889;-0.36000
816666;-0.36500
819444;-0.36500
822222;-0.37000
825000;-0.37500
827778;-0.38500
830555;-0.37500
833333;-0.37500
836111;-0.38500
838889;-0.37500
841666;-0.38000
844444;-0.39500
847222;-0.38500
850000;-0.38500
852778;-0.38500
855555;-0.38000
858333;-0.38500
861111;-0.40500
863889;-0.38500
866666;-0.38000
869444;-0.36500
872222;-0.38500
875000;-0.37000
877778;-0.38000
880555;-0.38000
883333;-0.37500
886111;-0.38500
888889;-0.37000
891666;-0.37500
894444;-0.39000
897222;-0.38500
900000;-0.37500
902778;-0.37500
905555;-0.37000
908333;-0.38500
911111;-0.39500
913889;-0.38500
916666;-0.37500
919444;-0.36000
922222;-0.37000
925000;-0.38000
927778;-0.38500
930555;-0.37500
933333;-0.37000
936111;-0.37000
938889;-0.35500
941666;-0.36500
944444;-0.37000
947222;-0.37500
950000;-0.36500
952778;-0.36500
955555;-0.38000
958333;-0.38500
961111;-0.38500
963889;-0.37500
966666;-0.37000
969444;-0.36000
972222;-0.35500
975000;-0.36000
977778;-0.38000
980555;-0.37000
983333;-0.34500
986111;-0.35000
988889;-0.36000
991666;-0.37500
994444;-0.37000
997222;-0.36500
1000000;-0.36500
1002777;-0.36000
1005555;-0.36500
1008333;-0.38000
1011111;-0.36000
1013889;-0.38000
1016666;-0.37000
1019444;-0.36000
1022222;-0.35000
1025000;-0.36000
1027777;-0.36500
1030555;-0.36000
1033333;-0.35000
1036111;-0.35500
1038889;-0.34500
1041666;-0.35000
1044444;-0.36000
1047222;-0.35500
1050000;-0.35000
1052777;-0.34500
1055555;-0.35000
1058333;-0.36000
1061111;-0.38000
1063889;-0.36000
1066666;-0.34000
1069444;-0.31000
1072222;-0.31500
1075000;-0.31000
1077777;-0.30500
1080555;-0.30000
1083333;-0.28500
1086111;-0.28500
1088889;-0.28000
1091666;-0.28000
1094444;-0.27500
1097222;-0.26000
1100000;-0.25000
1102777;-0.24000
1105555;-0.24000
1108333;-0.25500
1111111;-0.26000
1113889;-0.25500
1116666;-0.25000
1119444;-0.25000
1122222;-0.24000
1125000;-0.25500
1127777;-0.27000
1130555;-0.27000
1133333;-0.27000
1136111;-0.25500
1138889;-0.25000
1141666;-0.26000
1144444;-0.26000
1147222;-0.25000
1150000;-0.26000
1152777;-0.25500
1155555;-0.26000
1158333;-0.25500
1161111;-0.27500
1163889;-0.27000
1166666;-0.26500
1169444;-0.26000
1172222;-0.26500
1175000;-0.28500
1177777;-0.29500
1180555;-0.29000
1183333;-0.28000
1186111;-0.28500
1188889;-0.27500
1191666;-0.28000
1194444;-0.29000
1197222;-0.28500
1200000;-0.28500
1202777;-0.27000
1205555;-0.27500
1208333;-0.28500
1211111;-0.30500
1213889;-0.29500
1216666;-0.30000
1219444;-0.30000
1222222;-0.31500
1225000;-0.31500
1227777;-0.31000
1230555;-0.31500
1233333;-0.30000
1236111;-0.31500
1238889;-0.31500
1241666;-0.32000
1244444;-0.33000
1247222;-0.31500
1250000;-0.30500
1252777;-0.30500
1255555;-0.30000
1258333;-0.32000
1261111;-0.32000
1263889;-0.32000
1266666;-0.31500
1269444;-0.31500
1272222;-0.32000
1275000;-0.32000
1277777;-0.32500
1280555;-0.33000
1283333;-0.32000
1286111;-0.31000
1288889;-0.31500
1291666;-0.31500
1294444;-0.32500
1297222;-0.32500
1300000;-0.31500
1302777;-0.30000
1305555;-0.30000
1308333;-0.32000
1311111;-0.33000
1313889;-0.31500
1316666;-0.32000
1319444;-0.31000
1322222;-0.32000
1325000;-0.33000
1327777;-0.33500
1330555;-0.32500
1333333;-0.31000
1336111;-0.31500
1338889;-0.31000
1341666;-0.32500
1344444;-0.32500
1347222;-0.31000
1350000;-0.30500
1352777;-0.28500
1355555;-0.28500
1358333;-0.27500
1361111;-0.29500
1363889;-0.26500
1366666;-0.24500
1369444;-0.24000
1372222;-0.23500
1375000;-0.24500
1377777;-0.23500
1380555;-0.23500
1383333;-0.22000
1386111;-0.21500
1388888;-0.20500
1391666;-0.21500
1394444;-0.22500
1397222;-0.21500
1400000;-0.21500
1402777;-0.21000
1405555;-0.21000
1408333;-0.22000
1411111;-0.23500
1413888;-0.23500
1416666;-0.21000
1419444;-0.22500
1422222;-0.24000
1425000;-0.26000
1427777;-0.25000
1430555;-0.21000
1433333;-0.18500
1436111;-0.19000
1438888;-0.22500
1441666;-0.26500
1444444;-0.30500
1447222;-0.32000
1450000;-0.32500
1452777;-0.31000
1455555;-0.32000
1458333;-0.33000
1461111;-0.33500
1463888;-0.33000
1466666;-0.32000
1469444;-0.33500
1472222;-0.33500
1475000;-0.34000
1477777;-0.36000
1480555;-0.36000
1483333;-0.35000
1486111;-0.33500
1488888;-0.35000
1491666;-0.36000
1494444;-0.36000
1497222;-0.36500
1500000;-0.35000
1502777;-0.35000
1505555;-0.34500
1508333;-0.36500
1511111;-0.37000
1513888;-0.35500
1516666;-0.36000
1519444;-0.34000
1522222;-0.33500
1525000;-0.35500
1527777;-0.38500
1530555;-0.41000
1533333;-0.45000
1536111;-0.44500
1538888;-0.48000
1541666;-0.54000
1544444;-0.57500
1547222;-0.53000
1550000;-0.42000
1552777;-0.28000
1555555;-0.11000
1558333;0.08000
1561111;0.35000
1563888;0.64500
1566666;0.86000
1569444;0.94500
1572222;0.82000
1575000;0.49000
1577777;0.05500
1580555;-0.29000
1583333;-0.45000
1586111;-0.48000
1588888;-0.45000
1591666;-0.41500
1594444;-0.40500
1597222;-0.39500
1600000;-0.40500
1602777;-0.38500
1605555;-0.39000
1608333;-0.38500
1611111;-0.39000
1613888;-0.40000
1616666;-0.39000
1619444;-0.38500
1622222;-0.38500
1625000;-0.39000
1627777;-0.40500
1630555;-0.39500
1633333;-0.39000
1636111;-0.38000
1638888;-0.38000
1641666;-0.39000
1644444;-0.40500
1647222;-0.41500
1650000;-0.40500
1652777;-0.37500
1655555;-0.38000
1658333;-0.37500
1661111;-0.39500
1663888;-0.41000
1666666;-0.40000
1669444;-0.39500
1672222;-0.39000
1675000;-0.40000
1677777;-0.41000
1680555;-0.40500
1683333;-0.40500
1686111;-0.38500
1688888;-0.38500
1691666;-0.38500
1694444;-0.40000
1697222;-0.39000
1700000;-0.38500
1702777;-0.37500
1705555;-0.39500
1708333;-0.38500
1711111;-0.41000
1713888;-0.39500
1716666;-0.38500
1719444;-0.39000
1722222;-0.39500
1725000;-0.39500
1727777;-0.41000
1730555;-0.42000
1733333;-0.40000
1736111;-0.38500
1738888;-0.38500
1741666;-0.39000
1744444;-0.41000
1747222;-0.41000
1750000;-0.39500
1752777;-0.38500
1755555;-0.39500
1758333;-0.39500
1761111;-0.38000
1763888;-0.39500
1766666;-0.39000
1769444;-0.39000
1772222;-0.39500
1775000;-0.40000
1777777;-0.41500
1780555;-0.41500
1783333;-0.40500
1786111;-0.39500
1788888;-0.41000
1791666;-0.42500
1794444;-0.42500
1797222;-0.42500
1799999;-0.42500
1802777;-0.42500
1805555;-0.42500
1808333;-0.43500
1811111;-0.43500
1813888;-0.45500
1816666;-0.44500
1819444;-0.44000
1822222;-0.44500
1824999;-0.45000
1827777;-0.45500
1830555;-0.44000
1833333;-0.44000
1836111;-0.43000
1838888;-0.43500
1841666;-0.43500
1844444;-0.43500
1847222;-0.42000
1849999;-0.40000
1852777;-0.37500
1855555;-0.35500
1858333;-0.36000
1861111;-0.35500
1863888;-0.32500
1866666;-0.29500
1869444;-0.29500
1872222;-0.30000
1874999;-0.31500
1877777;-0.31000
1880555;-0.29500
1883333;-0.27500
1886111;-0.27500
1888888;-0.29500
1891666;-0.28500
1894444;-0.30500
1897222;-0.30000
1899999;-0.29000
1902777;-0.27000
1905555;-0.27000
1908333;-0.26500
1911111;-0.28500
1913888;-0.27500
1916666;-0.26500
1919444;-0.25000
1922222;-0.25000
1924999;-0.27000
1927777;-0.29000
1930555;-0.29000
1933333;-0.28500
1936111;-0.27500
1938888;-0.28500
1941666;-0.29000
1944444;-0.30000
1947222;-0.30000
1949999;-0.28500
1952777;-0.28500
1955555;-0.28500
1958333;-0.28500
1961111;-0.29500
1963888;-0.30000
1966666;-0.29500
1969444;-0.30000
1972222;-0.29500
1974999;-0.29000
1977777;-0.30500
1980555;-0.30500
1983333;-0.29500
1986111;-0.30000
1988888;-0.30000
1991666;-0.31500
1994444;-0.33000
1997222;-0.32500
1999999;-0.31500
2002777;-0.30000
2005555;-0.30000
2008333;-0.30500
2011111;-0.32500
2013888;-0.31500
2016666;-0.30500
2019444;-0.31500
2022222;-0.31500
2024999;-0.32500
2027777;-0.33500
2030555;-0.32500
2033333;-0.32500
2036111;-0.32000
2038888;-0.31500
2041666;-0.32000
2044444;-0.33500
2047222;-0.33000
2049999;-0.32500
2052777;-0.32000
2055555;-0.32000
2058333;-0.34000
2061111;-0.34500
2063888;-0.34000
2066666;-0.32500
2069444;-0.32000
2072222;-0.32500
2074999;-0.33000
2077777;-0.34500
2080555;-0.33000
2083333;-0.32500
2086111;-0.32000
2088888;-0.32500
2091666;-0.34500
2094444;-0.33500
2097222;-0.34500
2099999;-0.32000
2102777;-0.31500
2105555;-0.32000
2108333;-0.32500
2111111;-0.34000
2113888;-0.34000
2116666;-0.33000
2119444;-0.32000
2122222;-0.32000
2124999;-0.32500
2127777;-0.34000
2130555;-0.32500
2133333;-0.30500
2136111;-0.29000
2138888;-0.28000
2141666;-0.28000
2144444;-0.28500
2147222;-0.27000
2149999;-0.26000
2152777;-0.25000
2155555;-0.25000
2158333;-0.25000
2161111;-0.24000
2163888;-0.23500
2166666;-0.23000
2169444;-0.21000
2172222;-0.21500
2174999;-0.22000
2177777;-0.23500
2180555;-0.23500
2183333;-0.23500
2186110;-0.24000
2188888;-0.24500
2191666;-0.25000
2194444;-0.26500
2197222;-0.27000
2199999;-0.25500
2202777;-0.24000
2205555;-0.22500
2208333;-0.21000
2211110;-0.22000
2213888;-0.22000
2216666;-0.22000
2219444;-0.24000
2222222;-0.25500
2224999;-0.29000
2227777;-0.30500
2230555;-0.32000
2233333;-0.32000
2236110;-0.33500
2238888;-0.33500
2241666;-0.34500
2244444;-0.36000
2247222;-0.34500
2249999;-0.33500
2252777;-0.33000
2255555;-0.34500
2258333;-0.35000
2261110;-0.37000
2263888;-0.36000
2266666;-0.36500
2269444;-0.35000
2272222;-0.36000
2274999;-0.37000
2277777;-0.36500
2280555;-0.35500
2283333;-0.35500
2286110;-0.34500
2288888;-0.35500
2291666;-0.36500
2294444;-0.36500
2297222;-0.35000
2299999;-0.36000
2302777;-0.35000
2305555;-0.37000
2308333;-0.39000
2311110;-0.45500
2313888;-0.48000
2316666;-0.48000
2319444;-0.49500
2322222;-0.52500
2324999;-0.52500
2327777;-0.46000
2330555;-0.33000
2333333;-0.15500
2336110;0.02500
2338888;0.25500
2341666;0.51000
2344444;0.75000
2347222;0.95500
2349999;1.08500
2352777;1.17000
2355555;1.22500
2358333;1.21500
2361110;1.10500
2363888;0.90500
2366666;0.62000
2369444;0.27500
2372222;-0.08500
2374999;-0.34500
2377777;-0.47000
2380555;-0.47500
2383333;-0.42000
2386110;-0.38000
2388888;-0.37000
2391666;-0.38000
2394444;-0.38500
2397222;-0.39500
2399999;-0.39000
2402777;-0.37000
2405555;-0.37500
2408333;-0.39000
2411110;-0.40500
2413888;-0.40000
2416666;-0.40000
2419444;-0.40000
2422222;-0.39500
2424999;-0.39000
2427777;-0.41500
2430555;-0.40500
2433333;-0.40500
2436110;-0.38500
2438888;-0.38500
2441666;-0.40000
2444444;-0.40500
2447222;-0.41500
2449999;-0.40000
2452777;-0.39500
2455555;-0.40000
2458333;-0.41000
2461110;-0.41500
2463888;-0.41500
2466666;-0.40000
2469444;-0.39000
2472222;-0.39000
2474999;-0.40500
2477777;-0.41000
2480555;-0.41500
2483333;-0.41000
2486110;-0.40000
2488888;-0.41000
2491666;-0.40000
2494444;-0.42500
2497222;-0.42500
2499999;-0.41500
2502777;-0.40000
2505555;-0.40000
2508333;-0.42000
2511110;-0.43000
2513888;-0.43000
2516666;-0.41500
2519444;-0.40000
2522222;-0.40500
2524999;-0.42000
2527777;-0.43500
2530555;-0.41500
2533333;-0.41500
2536110;-0.41000
2538888;-0.40000
2541666;-0.41500
2544444;-0.41500
2547222;-0.41000
2549999;-0.40500
2552777;-0.39500
2555555;-0.40500
2558333;-0.40500
2561110;-0.43000
2563888;-0.43500
2566666;-0.43000
2569444;-0.42000
2572222;-0.41000
2574999;-0.42000
2577777;-0.43000
2580555;-0.42500
2583333;-0.43000
2586110;-0.42000
2588888;-0.42500
2591666;-0.44000
2594444;-0.45500
2597221;-0.44500
2599999;-0.43500
2602777;-0.42500
2605555;-0.43000
2608333;-0.44000
2611110;-0.46500
2613888;-0.45500
2616666;-0.46000
2619444;-0.46000
2622221;-0.45500
2624999;-0.45500
2627777;-0.47000
2630555;-0.45500
2633333;-0.44500
2636110;-0.45500
2638888;-0.43500
2641666;-0.45000
2644444;-0.44500
2647221;-0.43000
2649999;-0.41500
2652777;-0.40500
2655555;-0.39000
2658333;-0.39500
2661110;-0.38000
2663888;-0.36000
2666666;-0.35000
2669444;-0.33000
2672221;-0.32500
2674999;-0.32500
2677777;-0.33000
2680555;-0.32000
2683333;-0.31500
2686110;-0.30000
2688888;-0.29000
2691666;-0.28000
2694444;-0.29000
2697221;-0.29500
2699999;-0.28500
2702777;-0.27000
2705555;-0.27000
2708333;-0.27000
2711110;-0.29000
2713888;-0.27500
2716666;-0.28000
2719444;-0.27000
2722221;-0.27500
2724999;-0.28000
2727777;-0.29500
2730555;-0.29000
2733333;-0.28000
2736110;-0.26500
2738888;-0.28000
2741666;-0.28000
2744444;-0.29000
2747221;-0.29500
2749999;-0.29000
2752777;-0.28500
2755555;-0.28000
2758333;-0.29500
2761110;-0.30500
2763888;-0.29500
2766666;-0.29500
2769444;-0.28000
2772221;-0.28500
2774999;-0.29000
2777777;-0.31000
2780555;-0.30500
2783333;-0.29500
2786110;-0.29000
2788888;-0.28500
2791666;-0.30000
2794444;-0.30500
2797221;-0.31500
2799999;-0.31000
2802777;-0.28500
2805555;-0.30000
2808333;-0.31000
2811110;-0.32000
2813888;-0.32000
2816666;-0.31000
2819444;-0.29500
2822221;-0.30500
2824999;-0.32000
2827777;-0.33000
2830555;-0.32500
2833333;-0.31500
2836110;-0.32000
2838888;-0.32500
2841666;-0.33500
2844444;-0.33500
2847221;-0.33000
2849999;-0.32500
2852777;-0.32000
2855555;-0.31500
2858333;-0.32000
2861110;-0.33500
2863888;-0.33500
2866666;-0.31500
2869444;-0.30000
2872221;-0.31500
2874999;-0.32000
2877777;-0.33000
2880555;-0.32500
2883333;-0.32000
2886110;-0.31000
2888888;-0.31500
2891666;-0.32500
2894444;-0.33500
2897221;-0.32000
2899999;-0.32500
2902777;-0.31000
2905555;-0.28500
2908333;-0.31000
2911110;-0.32000
2913888;-0.32000
2916666;-0.31000
2919444;-0.30000
2922221;-0.30000
2924999;-0.31500
2927777;-0.32000
2930555;-0.32500
2933333;-0.31500
2936110;-0.31000
2938888;-0.31000
2941666;-0.30500
2944444;-0.32500
2947221;-0.33000
2949999;-0.30500
2952777;-0.30500
2955555;-0.31500
2958333;-0.31500
2961110;-0.32000
2963888;-0.32000
2966666;-0.31000
2969444;-0.30000
2972221;-0.28500
2974999;-0.29000
2977777;-0.29000
2980555;-0.27000
2983332;-0.26000
2986110;-0.23500
2988888;-0.23500
2991666;-0.23500
2994444;-0.25000
2997221;-0.24500
2999999;-0.22000
3002777;-0.21000
3005555;-0.20000
3008332;-0.21000
3011110;-0.21000
3013888;-0.20500
3016666;-0.18500
3019444;-0.19500
3022221;-0.20000
3024999;-0.21000
3027777;-0.22500
3030555;-0.22500
3033332;-0.22000
3036110;-0.20500
3038888;-0.22500
3041666;-0.22000
3044444;-0.23500
3047221;-0.24000
3049999;-0.20500
3052777;-0.18000
3055555;-0.17000
3058332;-0.19500
3061110;-0.23500
3063888;-0.26000
3066666;-0.25500
3069444;-0.26500
3072221;-0.28500
3074999;-0.30000
3077777;-0.31500
3080555;-0.32000
3083332;-0.32500
3086110;-0.31000
3088888;-0.32000
3091666;-0.33500
3094444;-0.34000
3097221;-0.33500
3099999;-0.32500
3102777;-0.31500
3105555;-0.31000
3108332;-0.32500
3111110;-0.34500
3113888;-0.34000
3116666;-0.33500
3119444;-0.33000
3122221;-0.33000
3124999;-0.35000
3127777;-0.35500
3130555;-0.35000
3133332;-0.33500
3136110;-0.33500
3138888;-0.33500
3141666;-0.35000
3144444;-0.35500
3147221;-0.34500
3149999;-0.37000
3152777;-0.37500
3155555;-0.40500
3158332;-0.44000
3161110;-0.49000
3163888;-0.50500
3166666;-0.52000
3169444;-0.54000
3172221;-0.50000
3174999;-0.42000
3177777;-0.28000
3180555;-0.11000
3183332;0.06500
3186110;0.26500
3188888;0.52000
3191666;0.78000
3194444;0.96500
3197221;1.09500
3199999;1.10500
3202777;0.95000
3205555;0.57500
3208332;0.12000
3211110;-0.24000
3213888;-0.41500
3216666;-0.43500
3219444;-0.39000
3222221;-0.35000
3224999;-0.34000
3227777;-0.35500
3230555;-0.35000
3233332;-0.35500
3236110;-0.34500
3238888;-0.35000
3241666;-0.34500
3244444;-0.36000
3247221;-0.37000
3249999;-0.36000
3252777;-0.34000
3255555;-0.35500
3258332;-0.37000
3261110;-0.39500
3263888;-0.39500
3266666;-0.38000
3269444;-0.37500
3272221;-0.37000
3274999;-0.37500
3277777;-0.39000
3280555;-0.39500
3283332;-0.38500
3286110;-0.38000
3288888;-0.38000
3291666;-0.37500
3294444;-0.38500
3297221;-0.39000
3299999;-0.38500
3302777;-0.37500
3305555;-0.38000
3308332;-0.39500
3311110;-0.40000
3313888;-0.39000
3316666;-0.39000
3319444;-0.38500
3322221;-0.38000
3324999;-0.38500
3327777;-0.39000
3330555;-0.39000
3333332;-0.38000
3336110;-0.37500
3338888;-0.37000
3341666;-0.39500
3344444;-0.39000
3347221;-0.39000
3349999;-0.38500
3352777;-0.38500
3355555;-0.37500
3358332;-0.39500
3361110;-0.40500
3363888;-0.39500
3366666;-0.38500
3369444;-0.38000
3372221;-0.39000
3374999;-0.39000
3377777;-0.39000
3380555;-0.38500
3383332;-0.39000
3386110;-0.38000
3388888;-0.38500
3391666;-0.38500
3394443;-0.39500
3397221;-0.40000
3399999;-0.38500
3402777;-0.38000
3405555;-0.38000
3408332;-0.38500
3411110;-0.40000
3413888;-0.40000
3416666;-0.38500
3419443;-0.38500
3422221;-0.37500
3424999;-0.38500
3427777;-0.39500
3430555;-0.40000
3433332;-0.39000
3436110;-0.37000
3438888;-0.37000
3441666;-0.38500
3444443;-0.39500
3447221;-0.39500
3449999;-0.38500
3452777;-0.38000
3455555;-0.38000
3458332;-0.39000
3461110;-0.40000
3463888;-0.40000
3466666;-0.38000
3469443;-0.39000
3472221;-0.39000
3474999;-0.39000
3477777;-0.39500
3480555;-0.39500
3483332;-0.38500
3486110;-0.37500
3488888;-0.37000
3491666;-0.38500
3494443;-0.39000
3497221;-0.37500
3499999;-0.36500
3502777;-0.35500
3505555;-0.34000
3508332;-0.34000
3511110;-0.34500
3513888;-0.33500
3516666;-0.31500
3519443;-0.29500
3522221;-0.28000
3524999;-0.28500
3527777;-0.29000
3530555;-0.27500
3533332;-0.26500
3536110;-0.26000
3538888;-0.26000
3541666;-0.26500
3544443;-0.28000
3547221;-0.27000
3549999;-0.25500
3552777;-0.24500
3555555;-0.25500
3558332;-0.26500
3561110;-0.26500
3563888;-0.25000
3566666;-0.25000
3569443;-0.24000
3572221;-0.24500
3574999;-0.26500
3577777;-0.26000
3580555;-0.26000
3583332;-0.25000
3586110;-0.24500
3588888;-0.24500
3591666;-0.26500
3594443;-0.27000
3597221;-0.27000
3599999;-0.26500
3602777;-0.25500
3605555;-0.25500
3608332;-0.26000
3611110;-0.27500
3613888;-0.27000
3616666;-0.26500
3619443;-0.26000
3622221;-0.27000
3624999;-0.27500
3627777;-0.30000
3630555;-0.27500
3633332;-0.26500
3636110;-0.26500
3638888;-0.27000
3641666;-0.28500
3644443;-0.29500
3647221;-0.29500
3649999;-0.28500
3652777;-0.29000
3655555;-0.29000
3658332;-0.30000
3661110;-0.30500
3663888;-0.30500
3666666;-0.31000
3669443;-0.30000
3672221;-0.30500
3674999;-0.30500
3677777;-0.33000
3680555;-0.32500
3683332;-0.31000
3686110;-0.30000
3688888;-0.30500
3691666;-0.31500
3694443;-0.32000
3697221;-0.32500
3699999;-0.31500
3702777;-0.31500
3705555;-0.31000
3708332;-0.31500
3711110;-0.33500
3713888;-0.33500
3716666;-0.33000
3719443;-0.31500
3722221;-0.32000
3724999;-0.33500
3727777;-0.33000
3730555;-0.33500
3733332;-0.32500
3736110;-0.31000
3738888;-0.30500
3741666;-0.32500
3744443;-0.34000
3747221;-0.34500
3749999;-0.32000
3752777;-0.31500
3755555;-0.31000
3758332;-0.31500
3761110;-0.31500
3763888;-0.32500
3766666;-0.32000
3769443;-0.31000
3772221;-0.31000
3774999;-0.30500
3777777;-0.32000
3780554;-0.31000
3783332;-0.31000
3786110;-0.30000
3788888;-0.31000
3791666;-0.31000
3794443;-0.32000
3797221;-0.31500
3799999;-0.30500
3802777;-0.30000
3805554;-0.29000
3808332;-0.29500
3811110;-0.28000
3813888;-0.28000
3816666;-0.25500
3819443;-0.23500
3822221;-0.23500
3824999;-0.24000
3827777;-0.25000
3830554;-0.23500
3833332;-0.22000
3836110;-0.20000
3838888;-0.20000
3841666;-0.20500
3844443;-0.21000
3847221;-0.20000
3849999;-0.19000
3852777;-0.18500
3855554;-0.19000
3858332;-0.19500
3861110;-0.20500
3863888;-0.21000
3866666;-0.21000
3869443;-0.21000
3872221;-0.21500
3874999;-0.22500
3877777;-0.23000
3880554;-0.23000
3883332;-0.21500
3886110;-0.21500
3888888;-0.22000
3891666;-0.22000
3894443;-0.21000
3897221;-0.21000
3899999;-0.21500
3902777;-0.22500
3905554;-0.24500
3908332;-0.26500
3911110;-0.29000
3913888;-0.29500
3916666;-0.30500
3919443;-0.30000
3922221;-0.32000
3924999;-0.32500
3927777;-0.33500
3930554;-0.33500
3933332;-0.32000
3936110;-0.31000
3938888;-0.32000
3941666;-0.31500
3944443;-0.32500
3947221;-0.33000
3949999;-0.32000
3952777;-0.32500
3955554;-0.33500
3958332;-0.33000
3961110;-0.34500
3963888;-0.34500
3966666;-0.34000
3969443;-0.32500
3972221;-0.34500
3974999;-0.35000
3977777;-0.36000
3980554;-0.35000
3983332;-0.33500
3986110;-0.34500
3988888;-0.37000
3991666;-0.40500
3994443;-0.45500
3997221;-0.48000
3999999;-0.47500
4002777;-0.49500
4005554;-0.53000
4008332;-0.51000
4011110;-0.44500
4013888;-0.29500
4016666;-0.13500
4019443;0.04500
4022221;0.25000
4024999;0.49000
4027777;0.72000
4030554;0.93000
4033332;1.08000
4036110;1.17000
4038888;1.18500
4041666;1.08500
4044443;0.87500
4047221;0.57000
4049999;0.24500
4052777;-0.06000
4055554;-0.30500
4058332;-0.44000
4061110;-0.49500
4063888;-0.47000
4066666;-0.41500
4069443;-0.37000
4072221;-0.35500
4074999;-0.35500
4077777;-0.38000
4080554;-0.37500
4083332;-0.36000
4086110;-0.36000
4088888;-0.37500
4091666;-0.37500
4094443;-0.38500
4097221;-0.39000
4099999;-0.37000
4102777;-0.37500
4105554;-0.38000
4108332;-0.38500
4111110;-0.38500
4113888;-0.39000
4116666;-0.37000
4119443;-0.37500
4122221;-0.38500
4124999;-0.37000
4127777;-0.39000
4130554;-0.39000
4133332;-0.38500
4136110;-0.38500
4138888;-0.37000
4141666;-0.38500
4144443;-0.38500
4147221;-0.40000
4149999;-0.38000
4152777;-0.36500
4155554;-0.37500
4158332;-0.37500
4161110;-0.38500
4163888;-0.38000
4166666;-0.38000
4169443;-0.36500
4172221;-0.37000
4174999;-0.37500
4177777;-0.37500
4180554;-0.38000
4183332;-0.36500
4186110;-0.36000
4188888;-0.36500
4191665;-0.38000
4194443;-0.38500
4197221;-0.38500
4199999;-0.37000
4202777;-0.36000
4205554;-0.37500
4208332;-0.37500
4211110;-0.39000
4213888;-0.37500
4216665;-0.37000
4219443;-0.36500
4222221;-0.36500
4224999;-0.37000
4227777;-0.37000
4230554;-0.37000
4233332;-0.35500
4236110;-0.35000
4238888;-0.35500
4241665;-0.37000
4244443;-0.36500
4247221;-0.36500
4249999;-0.36500
4252777;-0.35000
4255554;-0.35000
4258332;-0.36000
4261110;-0.36500
4263888;-0.36500
4266665;-0.36500
4269443;-0.34500
4272221;-0.36000
4274999;-0.36500
4277777;-0.38000
4280554;-0.37500
4283332;-0.36500
4286110;-0.37000
4288888;-0.36000
4291665;-0.36500
4294443;-0.36500
4297221;-0.37500
4299999;-0.36000
4302777;-0.35000
4305554;-0.35500
4308332;-0.36000
4311110;-0.36500
4313888;-0.37000
4316665;-0.35500
4319443;-0.36000
4322221;-0.35500
4324999;-0.35000
4327777;-0.35500
4330554;-0.36000
4333332;-0.34500
4336110;-0.31500
4338888;-0.31500
4341665;-0.31500
4344443;-0.31000
4347221;-0.30500
4349999;-0.28500
4352777;-0.27500
4355554;-0.26000
4358332;-0.26500
4361110;-0.27500
4363888;-0.27000
4366665;-0.24500
4369443;-0.23000
4372221;-0.24000
4374999;-0.25000
4377777;-0.26000
4380554;-0.25000
4383332;-0.25000
4386110;-0.24000
4388888;-0.25000
4391665;-0.24000
4394443;-0.25500
4397221;-0.25500
4399999;-0.24500
4402777;-0.23000
4405554;-0.24000
4408332;-0.24000
4411110;-0.25000
4413888;-0.25000
4416665;-0.24500
4419443;-0.24000
4422221;-0.23500
4424999;-0.25000
4427777;-0.24500
4430554;-0.24500
4433332;-0.24000
4436110;-0.25000
4438888;-0.25500
4441665;-0.25000
4444443;-0.27500
4447221;-0.27500
4449999;-0.25500
4452777;-0.24000
4455554;-0.24500
4458332;-0.24500
4461110;-0.26500
4463888;-0.26000
4466665;-0.26000
4469443;-0.25500
4472221;-0.26000
4474999;-0.26500
4477777;-0.28000
4480554;-0.28000
4483332;-0.27500
4486110;-0.26000
4488888;-0.27000
4491665;-0.27500
4494443;-0.28000
4497221;-0.29500
4499999;-0.29000
4502777;-0.28000
4505554;-0.29500
4508332;-0.30500
4511110;-0.31000
4513888;-0.30500
4516665;-0.29000
4519443;-0.28500
4522221;-0.27500
4524999;-0.29000
4527777;-0.30000
4530554;-0.30500
4533332;-0.31500
4536110;-0.29000
4538888;-0.30000
4541665;-0.31500
4544443;-0.31000
4547221;-0.31500
4549999;-0.31000
4552777;-0.30500
4555554;-0.30500
4558332;-0.31000
4561110;-0.31000
4563888;-0.31500
4566665;-0.31000
4569443;-0.30500
4572221;-0.29000
4574999;-0.30500
4577776;-0.30500
4580554;-0.31000
4583332;-0.30000
4586110;-0.30500
4588888;-0.30000
4591665;-0.31500
4594443;-0.30500
4597221;-0.30500
4599999;-0.30000
4602776;-0.30500
4605554;-0.29500
4608332;-0.30000
4611110;-0.30000
4613888;-0.30500
4616665;-0.29500
4619443;-0.29500
4622221;-0.28500
4624999;-0.29500
4627776;-0.29500
4630554;-0.29500
4633332;-0.28000
4636110;-0.26000
4638888;-0.25000
4641665;-0.24500
4644443;-0.24500
4647221;-0.25500
4649999;-0.24000
4652776;-0.23000
4655554;-0.22000
4658332;-0.23500
4661110;-0.21000
4663888;-0.21500
4666665;-0.20000
4669443;-0.18500
4672221;-0.18000
4674999;-0.20000
4677776;-0.20000
4680554;-0.19000
4683332;-0.20000
4686110;-0.19500
4688888;-0.20000
4691665;-0.19500
4694443;-0.22000
4697221;-0.22000
4699999;-0.23000
4702776;-0.22500
4705554;-0.21500
4708332;-0.19000
4711110;-0.18500
4713888;-0.20000
4716665;-0.20500
4719443;-0.22500
4722221;-0.24500
4724999;-0.25000
4727776;-0.26500
4730554;-0.27000
4733332;-0.27000
4736110;-0.28000
4738888;-0.30000
4741665;-0.30500
4744443;-0.31000
4747221;-0.31500
4749999;-0.32000
4752776;-0.32000
4755554;-0.32000
4758332;-0.31500
4761110;-0.31500
4763888;-0.32000
4766665;-0.32000
4769443;-0.32000
4772221;-0.33000
4774999;-0.32500
4777776;-0.33000
4780554;-0.33500
4783332;-0.32500
4786110;-0.32000
4788888;-0.32500
4791665;-0.34000
4794443;-0.34500
4797221;-0.34500
4799999;-0.33500
4802776;-0.31500
4805554;-0.31500
4808332;-0.33000
4811110;-0.35000
4813888;-0.37000
4816665;-0.41000
4819443;-0.43000
4822221;-0.44500
4824999;-0.47000
4827776;-0.51500
4830554;-0.54000
4833332;-0.50500
4836110;-0.38500
4838888;-0.25500
4841665;-0.12000
4844443;0.06000
4847221;0.30500
4849999;0.59500
4852776;0.82500
4855554;0.96500
4858332;0.96000
4861110;0.75500
4863888;0.37000
4866665;-0.03500
4869443;-0.30500
4872221;-0.44000
4874999;-0.46000
4877776;-0.43000
4880554;-0.39500
4883332;-0.36000
4886110;-0.37500
4888888;-0.37500
4891665;-0.36500
4894443;-0.39500
4897221;-0.37500
4899999;-0.36000
4902776;-0.35500
4905554;-0.35500
4908332;-0.35500
4911110;-0.36500
4913888;-0.37000
4916665;-0.36500
4919443;-0.34500
4922221;-0.34000
4924999;-0.35500
4927776;-0.36000
4930554;-0.36500
4933332;-0.36000
4936110;-0.35500
4938888;-0.35000
4941665;-0.35500
4944443;-0.36000
4947221;-0.36500
4949999;-0.35500
4952776;-0.34500
4955554;-0.35500
4958332;-0.36000
4961110;-0.36000
4963887;-0.37000
4966665;-0.37000
4969443;-0.37000
4972221;-0.38000
4974999;-0.38000
4977776;-0.38000
4980554;-0.38000
4983332;-0.36500
4986110;-0.35500
4988887;-0.35500
4991665;-0.36500
4994443;-0.36500
4997221;-0.37000
4999999;-0.37500
5002776;-0.35500
5005554;-0.37000
5008332;-0.36500
5011110;-0.37500
5013887;-0.39000
5016665;-0.37500
5019443;-0.36500
5022221;-0.35500
5024999;-0.37000
5027776;-0.36500
5030554;-0.37500
5033332;-0.35500
5036110;-0.34500
5038887;-0.35500
5041665;-0.37000
5044443;-0.38000
5047221;-0.38500
5049999;-0.37000
5052776;-0.34500
5055554;-0.35000
5058332;-0.37000
5061110;-0.36500
5063887;-0.36000
5066665;-0.35500
5069443;-0.37000
5072221;-0.38000
5074999;-0.38500
5077776;-0.38500
5080554;-0.37500
5083332;-0.36000
5086110;-0.36500
5088887;-0.36500
5091665;-0.37500
5094443;-0.38000
5097221;-0.39000
5099999;-0.38500
5102776;-0.37500
5105554;-0.37500
5108332;-0.38500
5111110;-0.40000
5113887;-0.40000
5116665;-0.40500
5119443;-0.38500
5122221;-0.40000
5124999;-0.40000
5127776;-0.40500
5130554;-0.41000
5133332;-0.40500
5136110;-0.41500
5138887;-0.41500
5141665;-0.41500
5144443;-0.42000
5147221;-0.41000
5149999;-0.38000
5152776;-0.36500
5155554;-0.35000
5158332;-0.33500
5161110;-0.32500
5163887;-0.31500
5166665;-0.30000
5169443;-0.28000
5172221;-0.28500
5174999;-0.27500
5177776;-0.27500
5180554;-0.28000
5183332;-0.26000
5186110;-0.24000
5188887;-0.24500
5191665;-0.25000
5194443;-0.25500
5197221;-0.25500
5199999;-0.25000
5202776;-0.24500
5205554;-0.23500
5208332;-0.23500
5211110;-0.23000
5213887;-0.24000
5216665;-0.22500
5219443;-0.22500
5222221;-0.24000
5224999;-0.24500
5227776;-0.24000
5230554;-0.24500
5233332;-0.24500
5236110;-0.24500
5238887;-0.24000
5241665;-0.24000
5244443;-0.23000
5247221;-0.23000
5249999;-0.23500
5252776;-0.23000
5255554;-0.23000
5258332;-0.24000
5261110;-0.25000
5263887;-0.26000
5266665;-0.25500
5269443;-0.24000
5272221;-0.24500
5274999;-0.24500
5277776;-0.26500
5280554;-0.25500
5283332;-0.25500
5286110;-0.25000
5288887;-0.25500
5291665;-0.26000
5294443;-0.27000
5297221;-0.27000
5299999;-0.26500
5302776;-0.26000
5305554;-0.26000
5308332;-0.26000
5311110;-0.27500
5313887;-0.28500
5316665;-0.27500
5319443;-0.27000
5322221;-0.27500
5324999;-0.27500
5327776;-0.28500
5330554;-0.28000
5333332;-0.29000
5336110;-0.28000
5338887;-0.29000
5341665;-0.29000
5344443;-0.29000
5347221;-0.30000
5349999;-0.29000
5352776;-0.28000
5355554;-0.29000
5358332;-0.29500
5361110;-0.30000
5363887;-0.30000
5366665;-0.30000
5369443;-0.27500
5372221;-0.28500
5374998;-0.29000
5377776;-0.29500
5380554;-0.30500
5383332;-0.29000
5386110;-0.27500
5388887;-0.29000
5391665;-0.29000
5394443;-0.30000
5397221;-0.29500
5399998;-0.29000
5402776;-0.27500
5405554;-0.28500
5408332;-0.28500
5411110;-0.29500
5413887;-0.28500
5416665;-0.28500
5419443;-0.27500
5422221;-0.28000
5424998;-0.28500
5427776;-0.28500
5430554;-0.30500
5433332;-0.30000
5436110;-0.29500
5438887;-0.29000
5441665;-0.29000
5444443;-0.29500
5447221;-0.28000
5449998;-0.28000
5452776;-0.25500
5455554;-0.25500
5458332;-0.25500
5461110;-0.25500
5463887;-0.24500
5466665;-0.24000
5469443;-0.22000
5472221;-0.22500
5474998;-0.23000
5477776;-0.22000
5480554;-0.21500
5483332;-0.19000
5486110;-0.18500
5488887;-0.18000
5491665;-0.18000
5494443;-0.18500
5497221;-0.19500
5499998;-0.19500
5502776;-0.19000
5505554;-0.20000
5508332;-0.21500
5511110;-0.21500
5513887;-0.21000
5516665;-0.20000
5519443;-0.20500
5522221;-0.20500
5524998;-0.22500
5527776;-0.22000
5530554;-0.20000
5533332;-0.19000
5536110;-0.20000
5538887;-0.23500
5541665;-0.26500
5544443;-0.27500
5547221;-0.29500
5549998;-0.30500
5552776;-0.30500
5555554;-0.31000
5558332;-0.32500
5561110;-0.32500
5563887;-0.34000
5566665;-0.32000
5569443;-0.30500
5572221;-0.30500
5574998;-0.31000
5577776;-0.32000
5580554;-0.33500
5583332;-0.33000
5586110;-0.31000
5588887;-0.31000
5591665;-0.32000
5594443;-0.33500
5597221;-0.34000
5599998;-0.33500
5602776;-0.33000
5605554;-0.32500
5608332;-0.33500
5611110;-0.33500
5613887;-0.35000
5616665;-0.33000
5619443;-0.33000
5622221;-0.33500
5624998;-0.35500
5627776;-0.38500
5630554;-0.42500
5633332;-0.45000
5636110;-0.45500
5638887;-0.48000
5641665;-0.52500
5644443;-0.54000
5647221;-0.48000
5649998;-0.33000
5652776;-0.18000
5655554;-0.02000
5658332;0.18500
5661110;0.43500
5663887;0.70500
5666665;0.92500
5669443;1.03000
5672221;0.98500
5674998;0.73000
5677776;0.30000
5680554;-0.13000
5683332;-0.39500
5686110;-0.46000
5688887;-0.45000
5691665;-0.42000
5694443;-0.38000
5697221;-0.37500
5699998;-0.36500
5702776;-0.37000
5705554;-0.35500
5708332;-0.36000
5711110;-0.37000
5713887;-0.38000
5716665;-0.37000
5719443;-0.36500
5722221;-0.37000
5724998;-0.37500
5727776;-0.39000
5730554;-0.40500
5733332;-0.38500
5736110;-0.36000
5738887;-0.37500
5741665;-0.37500
5744443;-0.39500
5747221;-0.39000
5749998;-0.39000
5752776;-0.37500
5755554;-0.38000
5758332;-0.38000
5761109;-0.39500
5763887;-0.39500
5766665;-0.39000
5769443;-0.38000
5772221;-0.39000
5774998;-0.38500
5777776;-0.39000
5780554;-0.39500
5783332;-0.38500
5786109;-0.37500
5788887;-0.38000
5791665;-0.39000
5794443;-0.39000
5797221;-0.40000
5799998;-0.39000
5802776;-0.37000
5805554;-0.37500
5808332;-0.39000
5811109;-0.39500
5813887;-0.39000
5816665;-0.39000
5819443;-0.38000
5822221;-0.37000
5824998;-0.39000
5827776;-0.39500
5830554;-0.40500
5833332;-0.39500
5836109;-0.38000
5838887;-0.39000
5841665;-0.38500
5844443;-0.39000
5847221;-0.39000
5849998;-0.37000
5852776;-0.37000
5855554;-0.37500
5858332;-0.37500
5861109;-0.38000
5863887;-0.39500
5866665;-0.38000
5869443;-0.37500
5872221;-0.38000
5874998;-0.38500
5877776;-0.39000
5880554;-0.40000
5883332;-0.38000
5886109;-0.37000
5888887;-0.38000
5891665;-0.38000
5894443;-0.38500
5897221;-0.39000
5899998;-0.39500
5902776;-0.40500
5905554;-0.39500
5908332;-0.40500
5911109;-0.42000
5913887;-0.42500
5916665;-0.41500
5919443;-0.42000
5922221;-0.41500
5924998;-0.43000
5927776;-0.43500
5930554;-0.43000
5933332;-0.42500
5936109;-0.42000
5938887;-0.42500
5941665;-0.42500
5944443;-0.43500
5947221;-0.44500
5949998;-0.42000
5952776;-0.40500
5955554;-0.40000
5958332;-0.39500
5961109;-0.40500
5963887;-0.38000
5966665;-0.37000
5969443;-0.35000
5972221;-0.34500
5974998;-0.31500
5977776;-0.31000
5980554;-0.31500
5983332;-0.30000
5986109;-0.28000
5988887;-0.28000
5991665;-0.28500
5994443;-0.27500
5997221;-0.27000
5999998;-0.27000
6002776;-0.25500
6005554;-0.25500
6008332;-0.25500
6011109;-0.25000
6013887;-0.25500
6016665;-0.24500
6019443;-0.23500
6022221;-0.24500
6024998;-0.24500
6027776;-0.26000
6030554;-0.25500
6033332;-0.25500
6036109;-0.24500
6038887;-0.24500
6041665;-0.26000
6044443;-0.26000
6047221;-0.25500
6049998;-0.25000
6052776;-0.24500
6055554;-0.24000
6058332;-0.25500
6061109;-0.25000
6063887;-0.26000
6066665;-0.25000
6069443;-0.25000
6072221;-0.25000
6074998;-0.25500
6077776;-0.26000
6080554;-0.26000
6083332;-0.26500
6086109;-0.24500
6088887;-0.25000
6091665;-0.26500
6094443;-0.25500
6097221;-0.27000
6099998;-0.26000
6102776;-0.26500
6105554;-0.25000
6108332;-0.26000
6111109;-0.26500
6113887;-0.27500
6116665;-0.26500
6119443;-0.26000
6122221;-0.27000
6124998;-0.26500
6127776;-0.28000
6130554;-0.29000
6133332;-0.27000
6136109;-0.27000
6138887;-0.27500
6141665;-0.28500
6144443;-0.29500
6147221;-0.29000
6149998;-0.28500
6152776;-0.27500
6155554;-0.28500
6158332;-0.30000
6161109;-0.30000
6163887;-0.30500
6166665;-0.30000
6169443;-0.28500
6172220;-0.28500
6174998;-0.29000
6177776;-0.30500
6180554;-0.30500
6183332;-0.29500
6186109;-0.28500
6188887;-0.29000
6191665;-0.29500
6194443;-0.30000
6197220;-0.30500
6199998;-0.30000
6202776;-0.29000
6205554;-0.29500
6208332;-0.30500
6211109;-0.30000
6213887;-0.30000
6216665;-0.29500
6219443;-0.28000
6222220;-0.28500
6224998;-0.29000
6227776;-0.29500
6230554;-0.30500
6233332;-0.28500
6236109;-0.29000
6238887;-0.28500
6241665;-0.30500
6244443;-0.30000
6247220;-0.29000
6249998;-0.29500
6252776;-0.29000
6255554;-0.28000
6258332;-0.29000
6261109;-0.28500
6263887;-0.28500
6266665;-0.27000
6269443;-0.27000
6272220;-0.27000
6274998;-0.27000
6277776;-0.27500
6280554;-0.27500
6283332;-0.25000
6286109;-0.22000
6288887;-0.21500
6291665;-0.21500
6294443;-0.22000
6297220;-0.23000
6299998;-0.21000
6302776;-0.18500
6305554;-0.17500
6308332;-0.17000
6311109;-0.19000
6313887;-0.18500
6316665;-0.18500
6319443;-0.16000
6322220;-0.16500
6324998;-0.17500
6327776;-0.19500
6330554;-0.20500
6333332;-0.19500
6336109;-0.18000
6338887;-0.18000
6341665;-0.21000
6344443;-0.21000
6347220;-0.19500
6349998;-0.16500
6352776;-0.15500
6355554;-0.17000
6358332;-0.21000
6361109;-0.24500
6363887;-0.26000
6366665;-0.26000
6369443;-0.26000
6372220;-0.26500
6374998;-0.28500
6377776;-0.30000
6380554;-0.31500
6383332;-0.31500
6386109;-0.30500
6388887;-0.30000
6391665;-0.29000
6394443;-0.30000
6397220;-0.31500
6399998;-0.31000
6402776;-0.30000
6405554;-0.29500
6408332;-0.31000
6411109;-0.31500
6413887;-0.32000
6416665;-0.32000
6419443;-0.32000
6422220;-0.31000
6424998;-0.32000
6427776;-0.33500
6430554;-0.32500
6433332;-0.34000
6436109;-0.32000
6438887;-0.31500
6441665;-0.32000
6444443;-0.33500
6447220;-0.34000
6449998;-0.34500
6452776;-0.37000
6455554;-0.42000
6458332;-0.46000
6461109;-0.49000
6463887;-0.50500
6466665;-0.52000
6469443;-0.45000
6472220;-0.30000
6474998;-0.12000
6477776;0.06000
6480554;0.29000
6483332;0.57500
6486109;0.85500
6488887;1.06500
6491665;1.15000
6494443;1.04000
6497220;0.68000
6499998;0.19000
6502776;-0.21000
6505554;-0.40000
6508332;-0.42500
6511109;-0.38000
6513887;-0.33500
6516665;-0.31000
6519443;-0.31000
6522220;-0.33000
6524998;-0.33000
6527776;-0.34500
6530554;-0.36500
6533332;-0.36000
6536109;-0.35500
6538887;-0.35000
6541665;-0.35500
6544443;-0.36500
6547220;-0.37500
6549998;-0.36500
6552776;-0.36000
6555554;-0.37000
6558331;-0.36000
6561109;-0.38000
6563887;-0.37000
6566665;-0.37000
6569443;-0.36000
6572220;-0.36000
6574998;-0.35500
6577776;-0.36000
6580554;-0.37500
6583331;-0.35500
6586109;-0.35000
6588887;-0.35000
6591665;-0.36500
6594443;-0.37000
6597220;-0.37500
6599998;-0.36500
6602776;-0.35500
6605554;-0.35000
6608331;-0.36000
6611109;-0.37000
6613887;-0.37500
6616665;-0.37000
6619443;-0.34500
6622220;-0.36000
6624998;-0.36500
6627776;-0.37500
6630554;-0.38000
6633331;-0.37000
6636109;-0.36000
6638887;-0.36000
6641665;-0.37000
6644443;-0.39000
6647220;-0.38000
6649998;-0.37000
6652776;-0.37000
6655554;-0.37000
6658331;-0.37000
6661109;-0.38000
6663887;-0.38000
6666665;-0.38000
6669443;-0.36500
6672220;-0.35500
6674998;-0.37000
6677776;-0.38000
6680554;-0.38000
6683331;-0.36500
6686109;-0.36000
6688887;-0.36000
6691665;-0.37000
6694443;-0.37500
6697220;-0.38000
6699998;-0.39000
6702776;-0.36000
6705554;-0.37000
6708331;-0.37500
6711109;-0.38500
6713887;-0.37500
6716665;-0.36500
6719443;-0.35500
6722220;-0.37000
6724998;-0.38000
6727776;-0.39000
6730554;-0.37500
6733331;-0.37500
6736109;-0.36000
6738887;-0.37500
6741665;-0.38500
6744443;-0.37000
6747220;-0.37500
6749998;-0.37000
6752776;-0.35000
6755554;-0.36000
6758331;-0.36000
6761109;-0.36500
6763887;-0.35500
6766665;-0.34000
6769443;-0.31500
6772220;-0.31500
6774998;-0.29000
6777776;-0.30500
6780554;-0.29500
6783331;-0.27500
6786109;-0.26000
6788887;-0.25000
6791665;-0.26000
6794443;-0.28000
6797220;-0.26500
6799998;-0.24500
6802776;-0.24500
6805554;-0.23000
6808331;-0.24500
6811109;-0.24000
6813887;-0.24000
6816665;-0.24500
6819443;-0.23000
6822220;-0.24000
6824998;-0.24000
6827776;-0.24000
6830554;-0.25000
6833331;-0.24000
6836109;-0.23000
6838887;-0.23500
6841665;-0.24000
6844443;-0.25000
6847220;-0.24500
6849998;-0.25000
6852776;-0.24000
6855554;-0.23500
6858331;-0.24500
6861109;-0.25500
6863887;-0.26500
6866665;-0.26000
6869443;-0.24500
6872220;-0.24500
6874998;-0.26000
6877776;-0.27000
6880554;-0.26500
6883331;-0.27000
6886109;-0.26000
6888887;-0.25000
6891665;-0.26500
6894443;-0.28500
6897220;-0.29000
6899998;-0.27500
6902776;-0.26500
6905554;-0.26500
6908331;-0.27500
6911109;-0.28000
6913887;-0.29500
6916665;-0.27500
6919443;-0.27000
6922220;-0.28500
6924998;-0.29000
6927776;-0.30000
6930554;-0.30000
6933331;-0.29000
6936109;-0.28500
6938887;-0.29000
6941665;-0.30000
6944442;-0.30000
6947220;-0.30000
6949998;-0.30000
6952776;-0.29500
6955554;-0.30500
6958331;-0.29500
6961109;-0.31000
6963887;-0.31500
6966665;-0.31000
6969442;-0.30000
6972220;-0.30000
6974998;-0.30000
6977776;-0.30000
6980554;-0.30000
6983331;-0.29500
6986109;-0.28500
6988887;-0.29000
6991665;-0.30000
6994442;-0.30000
6997220;-0.31000
6999998;-0.30500
7002776;-0.30000
7005554;-0.30500
7008331;-0.30000
7011109;-0.31000
7013887;-0.31000
7016665;-0.30500
7019442;-0.29500
7022220;-0.29500
7024998;-0.31000
7027776;-0.31500
7030554;-0.31500
7033331;-0.30500
7036109;-0.28500
7038887;-0.28500
7041665;-0.28500
7044442;-0.30000
7047220;-0.31500
7049998;-0.31000
7052776;-0.30500
7055554;-0.30000
7058331;-0.29500
7061109;-0.31500
7063887;-0.31000
7066665;-0.30000
7069442;-0.29000
7072220;-0.28500
7074998;-0.27500
7077776;-0.27000
7080554;-0.25000
7083331;-0.23000
7086109;-0.22000
7088887;-0.22000
7091665;-0.23000
7094442;-0.24500
7097220;-0.22500
7099998;-0.21000
7102776;-0.20000
7105554;-0.18500
7108331;-0.18500
7111109;-0.19000
7113887;-0.20000
7116665;-0.21500
7119442;-0.21000
7122220;-0.20000
7124998;-0.21500
7127776;-0.21500
7130554;-0.22500
7133331;-0.22500
7136109;-0.22500
7138887;-0.22000
7141665;-0.21500
7144442;-0.20500
7147220;-0.17000
7149998;-0.18000
7152776;-0.19500
7155554;-0.23000
7158331;-0.24500
7161109;-0.28000
7163887;-0.28500
7166665;-0.29500
7169442;-0.30000
7172220;-0.31000
7174998;-0.32500
7177776;-0.33500
7180554;-0.33000
7183331;-0.32500
7186109;-0.32500
7188887;-0.33500
7191665;-0.33000
7194442;-0.35500
7197220;-0.34500
7199998;-0.34000
7202776;-0.34500
7205554;-0.34500
7208331;-0.34500
7211109;-0.35500
7213887;-0.36000
7216665;-0.34500
7219442;-0.34000
7222220;-0.34500
7224998;-0.35000
7227776;-0.36500
7230554;-0.38000
7233331;-0.39000
7236109;-0.42500
7238887;-0.46500
7241665;-0.48500
7244442;-0.49500
7247220;-0.54500
7249998;-0.59500
7252776;-0.62500
7255554;-0.62500
7258331;-0.59500
7261109;-0.54000
7263887;-0.44500
7266665;-0.27500
7269442;-0.13500
7272220;0.01000
7274998;0.20500
7277776;0.45500
7280554;0.75000
7283331;0.98500
7286109;1.11000
7288887;1.09000
7291665;0.87000
7294442;0.45500
7297220;-0.02500
7299998;-0.37000
7302776;-0.45000
7305554;-0.42000
7308331;-0.37000
7311109;-0.36000
7313887;-0.38000
7316665;-0.38000
7319442;-0.37500
7322220;-0.38500
7324998;-0.38500
7327776;-0.39500
7330554;-0.39500
7333331;-0.40000
7336109;-0.39000
7338887;-0.38500
7341665;-0.38500
7344442;-0.39500
7347220;-0.40500
7349998;-0.39000
7352776;-0.40000
7355553;-0.38500
7358331;-0.38500
7361109;-0.40500
7363887;-0.41000
7366665;-0.39500
7369442;-0.38500
7372220;-0.39500
7374998;-0.40000
7377776;-0.40500
7380553;-0.40500
7383331;-0.39000
7386109;-0.38000
7388887;-0.38500
7391665;-0.39500
7394442;-0.40000
7397220;-0.41000
7399998;-0.39000
7402776;-0.38500
7405553;-0.39000
7408331;-0.39000
7411109;-0.40000
7413887;-0.41000
7416665;-0.40000
7419442;-0.38500
7422220;-0.38500
7424998;-0.38500
7427776;-0.39500
7430553;-0.40500
7433331;-0.39000
7436109;-0.39000
7438887;-0.39500
7441665;-0.40000
7444442;-0.40000
7447220;-0.40000
7449998;-0.38500
7452776;-0.38500
7455553;-0.39500
7458331;-0.40000
7461109;-0.40500
7463887;-0.40500
7466665;-0.39500
7469442;-0.38500
7472220;-0.38500
7474998;-0.39000
7477776;-0.40000
7480553;-0.41000
7483331;-0.38500
7486109;-0.38000
7488887;-0.38000
7491665;-0.38000
7494442;-0.41000
7497220;-0.40500
7499998;-0.39500
7502776;-0.39000
7505553;-0.39000
7508331;-0.40000
7511109;-0.41500
7513887;-0.41500
7516665;-0.40000
7519442;-0.39000
7522220;-0.39000
7524998;-0.40000
7527776;-0.40500
7530553;-0.40500
7533331;-0.40000
7536109;-0.40000
7538887;-0.39500
7541665;-0.40000
7544442;-0.40000
7547220;-0.38500
7549998;-0.37500
7552776;-0.36500
7555553;-0.35500
7558331;-0.35000
7561109;-0.36000
7563887;-0.35000
7566665;-0.33000
7569442;-0.30500
7572220;-0.31000
7574998;-0.29500
7577776;-0.30000
7580553;-0.31000
7583331;-0.29000
7586109;-0.27500
7588887;-0.26500
7591665;-0.26500
7594442;-0.28000
7597220;-0.28500
7599998;-0.27500
7602776;-0.27500
7605553;-0.25500
7608331;-0.27000
7611109;-0.28500
7613887;-0.26500
7616665;-0.26000
7619442;-0.25000
7622220;-0.25500
7624998;-0.26500
7627776;-0.27500
7630553;-0.28000
7633331;-0.28000
7636109;-0.27000
7638887;-0.26500
7641665;-0.27000
7644442;-0.27000
7647220;-0.28000
7649998;-0.26500
7652776;-0.26500
7655553;-0.27000
7658331;-0.29000
7661109;-0.29000
7663887;-0.29500
7666665;-0.28500
7669442;-0.28000
7672220;-0.29000
7674998;-0.30000
7677776;-0.31000
7680553;-0.32000
7683331;-0.30500
7686109;-0.29500
7688887;-0.29000
7691665;-0.30000
7694442;-0.31000
7697220;-0.31000
7699998;-0.30500
7702776;-0.29500
7705553;-0.30000
7708331;-0.30500
7711109;-0.30500
7713887;-0.31500
7716665;-0.31000
7719442;-0.31500
7722220;-0.31500
7724998;-0.33000
7727776;-0.33000
7730553;-0.33000
7733331;-0.32000
7736109;-0.32000
7738887;-0.32000
7741664;-0.33000
7744442;-0.33500
7747220;-0.34000
7749998;-0.33500
7752776;-0.33500
7755553;-0.33500
7758331;-0.33500
7761109;-0.35000
7763887;-0.36500
7766664;-0.35000
7769442;-0.33500
7772220;-0.35000
7774998;-0.34000
7777776;-0.34500
7780553;-0.35000
7783331;-0.35500
7786109;-0.34500
7788887;-0.34000
7791664;-0.34500
7794442;-0.36000
7797220;-0.35000
7799998;-0.33000
7802776;-0.32000
7805553;-0.33500
7808331;-0.34000
7811109;-0.34000
7813887;-0.34500
7816664;-0.34500
7819442;-0.33000
7822220;-0.33500
7824998;-0.34500
7827776;-0.34500
7830553;-0.36000
7833331;-0.36000
7836109;-0.34000
7838887;-0.33000
7841664;-0.33000
7844442;-0.35000
7847220;-0.35500
7849998;-0.34000
7852776;-0.32500
7855553;-0.31000
7858331;-0.31000
7861109;-0.31000
7863887;-0.29000
7866664;-0.28500
7869442;-0.28500
7872220;-0.28000
7874998;-0.27500
7877776;-0.28000
7880553;-0.27000
7883331;-0.25500
7886109;-0.25000
7888887;-0.23500
7891664;-0.22000
7894442;-0.22500
7897220;-0.23500
7899998;-0.25000
7902776;-0.26000
7905553;-0.26000
7908331;-0.25500
7911109;-0.25000
7913887;-0.24000
7916664;-0.24500
7919442;-0.25000
7922220;-0.27000
7924998;-0.27000
7927776;-0.26000
7930553;-0.25500
7933331;-0.23500
7936109;-0.24000
7938887;-0.26500
7941664;-0.29500
7944442;-0.32000
7947220;-0.34500
7949998;-0.34500
7952776;-0.35000
7955553;-0.36000
7958331;-0.36000
7961109;-0.37500
7963887;-0.37500
7966664;-0.37500
7969442;-0.38000
7972220;-0.36000
7974998;-0.38500
7977776;-0.38000
7980553;-0.40500
7983331;-0.39000
7986109;-0.38500
7988887;-0.40000
7991664;-0.39500
7994442;-0.39500
7997220;-0.40000
7999998;-0.39500
8002776;-0.40000
8005553;-0.39500
8008331;-0.39500
8011109;-0.40500
8013887;-0.41000
8016664;-0.41000
8019442;-0.41000
8022220;-0.43500
8024998;-0.46500
8027776;-0.50000
8030553;-0.52500
8033331;-0.52500
8036109;-0.54000
8038887;-0.58500
8041664;-0.64000
8044442;-0.64000
8047220;-0.58500
8049998;-0.48000
8052776;-0.35000
8055553;-0.24500
8058331;-0.10000
8061109;0.09500
8063887;0.36000
8066664;0.63500
8069442;0.84000
8072220;0.91000
8074998;0.82500
8077776;0.51000
8080553;0.09000
8083331;-0.27500
8086109;-0.48500
8088887;-0.56000
8091664;-0.53500
8094442;-0.49000
8097220;-0.45000
8099998;-0.44000
8102776;-0.42000
8105553;-0.42500
8108331;-0.42500
8111109;-0.43000
8113887;-0.42500
8116664;-0.44000
8119442;-0.43000
8122220;-0.43000
8124998;-0.44000
8127776;-0.45500
8130553;-0.46000
8133331;-0.44000
8136109;-0.43500
8138887;-0.44000
8141664;-0.44000
8144442;-0.44000
8147220;-0.44500
8149998;-0.43500
8152775;-0.44000
8155553;-0.43000
8158331;-0.44500
8161109;-0.44000
8163887;-0.45000
8166664;-0.45000
8169442;-0.44000
8172220;-0.43500
8174998;-0.43000
8177775;-0.45000
8180553;-0.44500
8183331;-0.45000
8186109;-0.44500
8188887;-0.43500
8191664;-0.44000
8194442;-0.45500
8197220;-0.45500
8199998;-0.46000
8202775;-0.45000
8205553;-0.44000
8208331;-0.44500
8211109;-0.45500
8213887;-0.46500
8216664;-0.43500
8219442;-0.44000
8222220;-0.45000
8224998;-0.46000
8227775;-0.45500
8230553;-0.46000
8233331;-0.45000
8236109;-0.43000
8238887;-0.42000
8241664;-0.43000
8244442;-0.44500
8247220;-0.45000
8249998;-0.43000
8252775;-0.43000
8255553;-0.44000
8258331;-0.45500
8261109;-0.45500
8263887;-0.47000
8266664;-0.45500
8269442;-0.44500
8272220;-0.44000
8274998;-0.45000
8277775;-0.46000
8280553;-0.46500
8283331;-0.46500
8286109;-0.45500
8288887;-0.46500
8291664;-0.46000
8294442;-0.46500
8297220;-0.47000
8299998;-0.46000
8302775;-0.46500
8305553;-0.46000
8308331;-0.48500
8311109;-0.49000
8313887;-0.51000
8316664;-0.51000
8319442;-0.50000
8322220;-0.51000
8324998;-0.50500
8327775;-0.50500
8330553;-0.50500
8333331;-0.49500
8336109;-0.48000
8338887;-0.47500
8341664;-0.48500
8344442;-0.48000
8347220;-0.48500
8349998;-0.47500
8352775;-0.47000
8355553;-0.44500
8358331;-0.43000
8361109;-0.41500
8363887;-0.41000
8366664;-0.38000
8369442;-0.37000
8372220;-0.37500
8374998;-0.38000
8377775;-0.39000
8380553;-0.37000
8383331;-0.35500
8386109;-0.35000
8388887;-0.34000
8391664;-0.34500
8394442;-0.34000
8397220;-0.35000
8399998;-0.34000
8402775;-0.32500
8405553;-0.32500
8408331;-0.33000
8411109;-0.33500
8413887;-0.34500
8416664;-0.34000
8419442;-0.33500
8422220;-0.33500
8424998;-0.34000
8427775;-0.35500
8430553;-0.36000
8433331;-0.36000
8436109;-0.34500
8438887;-0.33000
8441664;-0.33500
8444442;-0.35500
8447220;-0.35000
8449998;-0.36000
8452775;-0.35000
8455553;-0.34500
8458331;-0.34500
8461109;-0.35500
8463887;-0.36500
8466664;-0.35500
8469442;-0.35000
8472220;-0.34500
8474998;-0.35500
8477775;-0.36000
8480553;-0.36500
8483331;-0.35500
8486109;-0.35500
8488887;-0.35500
8491664;-0.36000
8494442;-0.37000
8497220;-0.38500
8499998;-0.36000
8502775;-0.35500
8505553;-0.36000
8508331;-0.38500
8511109;-0.38500
8513887;-0.39000
8516664;-0.38000
8519442;-0.35500
8522220;-0.35500
8524998;-0.36000
8527775;-0.37000
8530553;-0.38500
8533331;-0.37500
8536109;-0.38000
8538886;-0.37000
8541664;-0.37500
8544442;-0.38500
8547220;-0.38000
8549998;-0.37500
8552775;-0.36000
8555553;-0.38000
8558331;-0.37500
8561109;-0.37500
8563886;-0.38500
8566664;-0.39000
8569442;-0.38000
8572220;-0.37500
8574998;-0.38000
8577775;-0.37500
8580553;-0.38500
8583331;-0.37500
8586109;-0.36500
8588886;-0.35500
8591664;-0.38000
8594442;-0.39500
8597220;-0.39000
8599998;-0.39000
8602775;-0.36500
8605553;-0.36500
8608331;-0.36500
8611109;-0.37500
8613886;-0.38500
8616664;-0.38500
8619442;-0.38500
8622220;-0.37500
8624998;-0.37500
8627775;-0.37500
8630553;-0.38000
8633331;-0.37500
8636109;-0.37000
8638886;-0.36000
8641664;-0.37000
8644442;-0.38000
8647220;-0.38000
8649998;-0.38000
8652775;-0.35500
8655553;-0.35500
8658331;-0.33500
8661109;-0.32500
8663886;-0.32000
8666664;-0.29500
8669442;-0.29000
8672220;-0.29500
8674998;-0.30000
8677775;-0.31000
8680553;-0.29500
8683331;-0.28500
8686109;-0.27000
8688886;-0.25500
8691664;-0.24500
8694442;-0.26000
8697220;-0.25500
8699998;-0.27000
8702775;-0.26000
8705553;-0.25000
8708331;-0.27000
8711109;-0.29000
8713886;-0.29000
8716664;-0.27000
8719442;-0.28000
8722220;-0.29500
8724998;-0.30500
8727775;-0.31000
8730553;-0.30500
8733331;-0.27500
8736109;-0.25500
8738886;-0.24000
8741664;-0.26500
8744442;-0.29500
8747220;-0.32500
8749998;-0.33000
8752775;-0.35000
8755553;-0.36000
8758331;-0.37500
8761109;-0.37500
8763886;-0.38500
8766664;-0.39500
8769442;-0.38500
8772220;-0.37500
8774998;-0.38500
8777775;-0.39500
8780553;-0.40000
8783331;-0.39000
8786109;-0.37500
8788886;-0.37500
8791664;-0.38500
8794442;-0.40000
8797220;-0.41000
8799998;-0.40500
8802775;-0.40000
8805553;-0.39500
8808331;-0.40500
8811109;-0.40500
8813886;-0.40000
8816664;-0.39000
8819442;-0.38500
8822220;-0.38500
8824998;-0.40500
8827775;-0.42000
8830553;-0.46000
8833331;-0.48500
8836109;-0.50000
8838886;-0.50000
8841664;-0.56000
8844442;-0.59000
8847220;-0.56500
8849998;-0.44000
8852775;-0.29000
8855553;-0.11500
8858331;0.08500
8861109;0.29000
8863886;0.53000
8866664;0.76000
8869442;0.89500
8872220;0.99500
8874998;1.08500
8877775;1.15000
8880553;1.17000
8883331;1.11000
8886109;0.94000
8888886;0.61000
8891664;0.19500
8894442;-0.18500
8897220;-0.44000
8899998;-0.52000
8902775;-0.49500
8905553;-0.45500
8908331;-0.42500
8911109;-0.42000
8913886;-0.42500
8916664;-0.43000
8919442;-0.41000
8922220;-0.42500
8924998;-0.43000
8927775;-0.43500
8930553;-0.44500
8933331;-0.44500
8936109;-0.43500
8938886;-0.43500
8941664;-0.43000
8944442;-0.43500
8947220;-0.44000
8949997;-0.44500
8952775;-0.43000
8955553;-0.42500
8958331;-0.42500
8961109;-0.43500
8963886;-0.46000
8966664;-0.44500
8969442;-0.44000
8972220;-0.43500
8974997;-0.44500
8977775;-0.44500
8980553;-0.45000
8983331;-0.44500
8986109;-0.45000
8988886;-0.44000
8991664;-0.44000
8994442;-0.45000
8997220;-0.45000
8999997;-0.45000
9002775;-0.43500
9005553;-0.44500
9008331;-0.45500
9011109;-0.45000
9013886;-0.46000
9016664;-0.46000
9019442;-0.44500
9022220;-0.44500
9024997;-0.44500
9027775;-0.45500
9030553;-0.46000
9033331;-0.45000
9036109;-0.45000
9038886;-0.44000
9041664;-0.45000
9044442;-0.44500
9047220;-0.45500
9049997;-0.45000
9052775;-0.45000
9055553;-0.44500
9058331;-0.44500
9061109;-0.45500
9063886;-0.46000
9066664;-0.45000
9069442;-0.45500
9072220;-0.44000
9074997;-0.45500
9077775;-0.45500
9080553;-0.47000
9083331;-0.46000
9086109;-0.45000
9088886;-0.45500
9091664;-0.45500
9094442;-0.46000
9097220;-0.48000
9099997;-0.47000
9102775;-0.47000
9105553;-0.46500
9108331;-0.47500
9111109;-0.49000
9113886;-0.50000
9116664;-0.50000
9119442;-0.49500
9122220;-0.49000
9124997;-0.50500
9127775;-0.50500
9130553;-0.52000
9133331;-0.50500
9136109;-0.49500
9138886;-0.50000
9141664;-0.50500
9144442;-0.50000
9147220;-0.50500
9149997;-0.49500
9152775;-0.47500
9155553;-0.46000
9158331;-0.47000
9161109;-0.46000
9163886;-0.45000
9166664;-0.43500
9169442;-0.41000
9172220;-0.39500
9174997;-0.38500
9177775;-0.38500
9180553;-0.38000
9183331;-0.37000
9186109;-0.34500
9188886;-0.34000
9191664;-0.34500
9194442;-0.35000
9197220;-0.35500
9199997;-0.34000
9202775;-0.32000
9205553;-0.32500
9208331;-0.32000
9211109;-0.32500
9213886;-0.33000
9216664;-0.31500
9219442;-0.31500
9222220;-0.31500
9224997;-0.31500
9227775;-0.32500
9230553;-0.31500
9233331;-0.32000
9236109;-0.31000
9238886;-0.31000
9241664;-0.30500
9244442;-0.31500
9247220;-0.33500
9249997;-0.32000
9252775;-0.31500
9255553;-0.31500
9258331;-0.32000
9261109;-0.32500
9263886;-0.34500
9266664;-0.32500
9269442;-0.31500
9272220;-0.32000
9274997;-0.32500
9277775;-0.32500
9280553;-0.33000
9283331;-0.33000
9286109;-0.31500
9288886;-0.32000
9291664;-0.32500
9294442;-0.34000
9297220;-0.34000
9299997;-0.34000
9302775;-0.33000
9305553;-0.33500
9308331;-0.33500
9311109;-0.34000
9313886;-0.34500
9316664;-0.33500
9319442;-0.33500
9322220;-0.33500
9324997;-0.34500
9327775;-0.34000
9330553;-0.36000
9333331;-0.35500
9336108;-0.34000
9338886;-0.33000
9341664;-0.34500
9344442;-0.35000
9347220;-0.36000
9349997;-0.36000
9352775;-0.34000
9355553;-0.34500
9358331;-0.35500
9361108;-0.36000
9363886;-0.36500
9366664;-0.36500
9369442;-0.35500
9372220;-0.34000
9374997;-0.35000
9377775;-0.36000
9380553;-0.37000
9383331;-0.35500
9386108;-0.35500
9388886;-0.34500
9391664;-0.35000
9394442;-0.35500
9397220;-0.36500
9399997;-0.34500
9402775;-0.35000
9405553;-0.34000
9408331;-0.34000
9411108;-0.35000
9413886;-0.36000
9416664;-0.36000
9419442;-0.35500
9422220;-0.35500
9424997;-0.35000
9427775;-0.36000
9430553;-0.36500
9433331;-0.34500
9436108;-0.34000
9438886;-0.34000
9441664;-0.35000
9444442;-0.36000
9447220;-0.35000
9449997;-0.34500
9452775;-0.33000
9455553;-0.33500
9458331;-0.33500
9461108;-0.34000
9463886;-0.34500
9466664;-0.34500
9469442;-0.33000
9472220;-0.34000
9474997;-0.32500
9477775;-0.34000
9480553;-0.36000
9483331;-0.34000
9486108;-0.33500
9488886;-0.34500
9491664;-0.34000
9494442;-0.35000
9497220;-0.34000
9499997;-0.35000
9502775;-0.34000
9505553;-0.34000
9508331;-0.33000
9511108;-0.33500
9513886;-0.33000
9516664;-0.31500
9519442;-0.29000
9522220;-0.28000
9524997;-0.29000
9527775;-0.27500
9530553;-0.30000
9533331;-0.28000
9536108;-0.26000
9538886;-0.25000
9541664;-0.23000
9544442;-0.24500
9547220;-0.24500
9549997;-0.23000
9552775;-0.22000
9555553;-0.23500
9558331;-0.24500
9561108;-0.25500
9563886;-0.26000
9566664;-0.26500
9569442;-0.26000
9572220;-0.24500
9574997;-0.25000
9577775;-0.26500
9580553;-0.27500
9583331;-0.26500
9586108;-0.23500
9588886;-0.21500
9591664;-0.22500
9594442;-0.25500
9597220;-0.28500
9599997;-0.29500
9602775;-0.30500
9605553;-0.31000
9608331;-0.33000
9611108;-0.34500
9613886;-0.35500
9616664;-0.35500
9619442;-0.36000
9622220;-0.35000
9624997;-0.35500
9627775;-0.36000
9630553;-0.37000
9633331;-0.36000
9636108;-0.35500
9638886;-0.35000
9641664;-0.36000
9644442;-0.36500
9647220;-0.39000
9649997;-0.37000
9652775;-0.36500
9655553;-0.35500
9658331;-0.37000
9661108;-0.36000
9663886;-0.36500
9666664;-0.37000
9669442;-0.35500
9672220;-0.35500
9674997;-0.37500
9677775;-0.38000
9680553;-0.37500
9683331;-0.37500
9686108;-0.37000
9688886;-0.36500
9691664;-0.38500
9694442;-0.41000
9697220;-0.46500
9699997;-0.48500
9702775;-0.51000
9705553;-0.52500
9708331;-0.56000
9711108;-0.57500
9713886;-0.50500
9716664;-0.36000
9719442;-0.18000
9722220;-0.00500
9724997;0.19500
9727775;0.43500
9730553;0.72500
9733331;0.95500
9736108;1.10000
9738886;1.12000
9741664;0.97500
9744442;0.61000
9747219;0.13000
9749997;-0.27500
9752775;-0.47000
9755553;-0.47500
9758331;-0.44000
9761108;-0.40000
9763886;-0.38500
9766664;-0.37000
9769442;-0.38500
9772219;-0.36500
9774997;-0.39000
9777775;-0.39500
9780553;-0.40500
9783331;-0.40000
9786108;-0.40000
9788886;-0.39000
9791664;-0.40000
9794442;-0.41000
9797219;-0.43500
9799997;-0.41000
9802775;-0.41500
9805553;-0.41500
9808331;-0.42000
9811108;-0.41500
9813886;-0.42500
9816664;-0.42500
9819442;-0.41000
9822219;-0.40500
9824997;-0.41500
9827775;-0.42000
9830553;-0.42500
9833331;-0.41500
9836108;-0.41000
9838886;-0.41000
9841664;-0.41500
9844442;-0.41500
9847219;-0.43000
9849997;-0.41000
9852775;-0.40500
9855553;-0.40500
9858331;-0.40500
9861108;-0.42000
9863886;-0.42500
9866664;-0.42500
9869442;-0.41500
9872219;-0.40000
9874997;-0.41000
9877775;-0.42000
9880553;-0.41500
9883331;-0.42000
9886108;-0.40000
9888886;-0.40500
9891664;-0.40500
9894442;-0.41500
9897219;-0.42500
9899997;-0.41000
9902775;-0.40500
9905553;-0.40000
9908331;-0.41000
9911108;-0.40500
9913886;-0.42000
9916664;-0.42500
9919442;-0.41000
9922219;-0.39500
9924997;-0.40500
9927775;-0.41500
9930553;-0.42500
9933331;-0.40500
9936108;-0.40500
9938886;-0.40500
9941664;-0.41000
9944442;-0.41500
9947219;-0.42000
9949997;-0.40000
9952775;-0.39500
9955553;-0.39000
9958331;-0.41000
9961108;-0.41000
9963886;-0.41500
9966664;-0.41000
9969442;-0.41000
9972219;-0.40500
9974997;-0.41000
9977775;-0.41000
9980553;-0.42000
9983331;-0.41500
9986108;-0.42500
9988886;-0.40500
9991664;-0.41500
9994442;-0.42500
9997219;-0.43500
9999997;-0.42000
10002775;-0.41500
10005553;-0.41000
10008331;-0.41500
10011108;-0.42500
10013886;-0.42000
10016664;-0.41000
10019442;-0.42000
10022219;-0.40500
10024997;-0.40000
10027775;-0.40500
10030553;-0.40500
10033331;-0.40500
10036108;-0.37500
10038886;-0.37500
10041664;-0.36000
10044442;-0.35500
10047219;-0.35500
10049997;-0.34000
10052775;-0.33000
10055553;-0.32500
10058331;-0.32500
10061108;-0.32500
10063886;-0.32500
10066664;-0.31000
10069442;-0.29000
10072219;-0.29000
10074997;-0.28500
10077775;-0.29000
10080553;-0.30500
10083331;-0.29000
10086108;-0.28000
10088886;-0.26500
10091664;-0.27500
10094442;-0.28000
10097219;-0.29000
10099997;-0.28000
10102775;-0.27000
10105553;-0.26500
10108331;-0.26500
10111108;-0.27500
10113886;-0.28500
10116664;-0.27500
10119442;-0.27000
10122219;-0.26000
10124997;-0.26500
10127775;-0.28500
10130553;-0.29000
10133330;-0.29500
10136108;-0.27500
10138886;-0.27000
10141664;-0.27500
10144442;-0.29000
10147219;-0.29500
10149997;-0.28000
10152775;-0.28500
10155553;-0.27500
10158330;-0.28000
10161108;-0.29000
10163886;-0.29500
10166664;-0.30000
10169442;-0.28500
10172219;-0.28500
10174997;-0.28500
10177775;-0.29000
10180553;-0.29500
10183330;-0.29000
10186108;-0.29500
10188886;-0.29000
10191664;-0.30000
10194442;-0.30500
10197219;-0.32000
10199997;-0.31000
10202775;-0.29500
10205553;-0.30500
10208330;-0.30500
10211108;-0.31500
10213886;-0.32000
10216664;-0.32000
10219442;-0.32000
10222219;-0.31000
10224997;-0.32000
10227775;-0.33000
10230553;-0.33000
10233330;-0.33000
10236108;-0.32500
10238886;-0.31000
10241664;-0.32000
10244442;-0.33000
10247219;-0.34000
10249997;-0.33000
10252775;-0.32000
10255553;-0.31500
10258330;-0.33500
10261108;-0.33000
10263886;-0.34000
10266664;-0.33000
10269442;-0.32000
10272219;-0.31500
10274997;-0.31500
10277775;-0.33000
10280553;-0.34000
10283330;-0.33500
10286108;-0.33000
10288886;-0.31500
10291664;-0.32500
10294442;-0.32500
10297219;-0.33000
10299997;-0.32500
10302775;-0.31000
10305553;-0.31500
10308330;-0.31500
10311108;-0.31500
10313886;-0.33000
10316664;-0.33000
10319442;-0.32000
10322219;-0.31500
10324997;-0.30500
10327775;-0.31500
10330553;-0.32500
10333330;-0.32000
10336108;-0.31000
10338886;-0.30500
10341664;-0.30500
10344442;-0.32500
10347219;-0.32000
10349997;-0.31000
10352775;-0.29500
10355553;-0.30500
10358330;-0.29500
10361108;-0.30000
10363886;-0.31000
10366664;-0.31500
10369442;-0.30000
10372219;-0.29000
10374997;-0.28500
10377775;-0.29000
10380553;-0.28000
10383330;-0.25000
10386108;-0.24500
10388886;-0.23000
10391664;-0.23500
10394442;-0.24500
10397219;-0.23500
10399997;-0.23000
10402775;-0.21000
10405553;-0.20000
10408330;-0.19500
10411108;-0.20000
10413886;-0.21000
10416664;-0.21000
10419442;-0.21000
10422219;-0.21500
10424997;-0.22000
10427775;-0.22500
10430553;-0.24000
10433330;-0.23000
10436108;-0.21500
10438886;-0.22000
10441664;-0.23000
10444442;-0.24500
10447219;-0.25000
10449997;-0.22000
10452775;-0.18500
10455553;-0.17000
10458330;-0.19500
10461108;-0.23000
10463886;-0.26500
10466664;-0.27500
10469442;-0.27500
10472219;-0.28500
10474997;-0.30000
10477775;-0.32000
10480553;-0.33500
10483330;-0.34500
10486108;-0.32500
10488886;-0.32000
10491664;-0.32500
10494442;-0.33500
10497219;-0.34500
10499997;-0.34500
10502775;-0.32500
10505553;-0.33000
10508330;-0.34500
10511108;-0.34000
10513886;-0.35500
10516664;-0.34500
10519441;-0.34000
10522219;-0.34000
10524997;-0.35000
10527775;-0.35500
10530553;-0.36500
10533330;-0.35500
10536108;-0.35000
10538886;-0.35000
10541664;-0.34000
10544441;-0.35000
10547219;-0.35500
10549997;-0.35500
10552775;-0.35500
10555553;-0.35500
10558330;-0.38500
10561108;-0.43000
10563886;-0.47500
10566664;-0.49500
10569441;-0.50500
10572219;-0.52500
10574997;-0.55500
10577775;-0.55000
10580553;-0.47000
10583330;-0.32000
10586108;-0.15000
10588886;0.03500
10591664;0.26000
10594441;0.54000
10597219;0.79500
10599997;0.99500
10602775;1.08000
10605553;0.99500
10608330;0.69500
10611108;0.25000
10613886;-0.18000
10616664;-0.42500
10619441;-0.48000
10622219;-0.42000
10624997;-0.38000
10627775;-0.37000
10630553;-0.37500
10633330;-0.38500
10636108;-0.37000
10638886;-0.36500
10641664;-0.37500
10644441;-0.37500
10647219;-0.38500
10649997;-0.39000
10652775;-0.38000
10655553;-0.37500
10658330;-0.39000
10661108;-0.37500
10663886;-0.39000
10666664;-0.38000
10669441;-0.38000
10672219;-0.37500
10674997;-0.37500
10677775;-0.39500
10680553;-0.40000
10683330;-0.40000
10686108;-0.39500
10688886;-0.39000
10691664;-0.39500
10694441;-0.40000
10697219;-0.40500
10699997;-0.39000
10702775;-0.38000
10705553;-0.38000
10708330;-0.38500
10711108;-0.39500
10713886;-0.41000
10716664;-0.39500
10719441;-0.40000
10722219;-0.39000
10724997;-0.40000
10727775;-0.39500
10730553;-0.41000
10733330;-0.40000
10736108;-0.39500
10738886;-0.39000
10741664;-0.39000
10744441;-0.39500
10747219;-0.40500
10749997;-0.39000
10752775;-0.39000
10755553;-0.38000
10758330;-0.38000
10761108;-0.40500
10763886;-0.40500
10766664;-0.40000
10769441;-0.38500
10772219;-0.38500
10774997;-0.38000
10777775;-0.39500
10780553;-0.40500
10783330;-0.39500
10786108;-0.38500
10788886;-0.37500
10791664;-0.39500
10794441;-0.40000
10797219;-0.39500
10799997;-0.40000
10802775;-0.39500
10805553;-0.39500
10808330;-0.39000
10811108;-0.39500
10813886;-0.40000
10816664;-0.40500
10819441;-0.39000
10822219;-0.39000
10824997;-0.40000
10827775;-0.39000
10830553;-0.40500
10833330;-0.40500
10836108;-0.39500
10838886;-0.39000
10841664;-0.39500
10844441;-0.40500
10847219;-0.41500
10849997;-0.41000
10852775;-0.40000
10855553;-0.40500
10858330;-0.40000
10861108;-0.41000
10863886;-0.41500
10866664;-0.40500
10869441;-0.40000
10872219;-0.39500
10874997;-0.40500
10877775;-0.41500
10880553;-0.41000
10883330;-0.41000
10886108;-0.39000
10888886;-0.38500
10891664;-0.38500
10894441;-0.39500
10897219;-0.38500
10899997;-0.37000
10902775;-0.35000
10905553;-0.33000
10908330;-0.32500
10911108;-0.32500
10913886;-0.32000
10916664;-0.31000
10919441;-0.29500
10922219;-0.27500
10924997;-0.27500
10927775;-0.29000
10930552;-0.28500
10933330;-0.27500
10936108;-0.26500
10938886;-0.26500
10941664;-0.27000
10944441;-0.27000
10947219;-0.28000
10949997;-0.27000
10952775;-0.26000
10955552;-0.25500
10958330;-0.25000
10961108;-0.27000
10963886;-0.26500
10966664;-0.27000
10969441;-0.26500
10972219;-0.26000
10974997;-0.25500
10977775;-0.26500
10980552;-0.27000
10983330;-0.27000
10986108;-0.25500
10988886;-0.25500
10991664;-0.27000
10994441;-0.27000
10997219;-0.28000
10999997;-0.28000
11002775;-0.27000
11005552;-0.27000
11008330;-0.27000
11011108;-0.27000
11013886;-0.29000
11016664;-0.28500
11019441;-0.26500
11022219;-0.26500
11024997;-0.28000
11027775;-0.28500
11030552;-0.28500
11033330;-0.28000
11036108;-0.28000
11038886;-0.29000
11041664;-0.28000
11044441;-0.28500
11047219;-0.30500
11049997;-0.30000
11052775;-0.29500
11055552;-0.29000
11058330;-0.28500
11061108;-0.30000
11063886;-0.30500
11066664;-0.31500
11069441;-0.30500
11072219;-0.29500
11074997;-0.31500
11077775;-0.31500
11080552;-0.32000
11083330;-0.32000
11086108;-0.30000
11088886;-0.31000
11091664;-0.31000
11094441;-0.32000
11097219;-0.33500
11099997;-0.33000
11102775;-0.32500
11105552;-0.31000
11108330;-0.32500
11111108;-0.32000
11113886;-0.33000
11116664;-0.33000
11119441;-0.33000
11122219;-0.32000
11124997;-0.32000
11127775;-0.34000
11130552;-0.32500
11133330;-0.32000
11136108;-0.31000
11138886;-0.31000
11141664;-0.31000
11144441;-0.32000
11147219;-0.33500
11149997;-0.32000
11152775;-0.31000
11155552;-0.30000
11158330;-0.30500
11161108;-0.31500
11163886;-0.34500
11166664;-0.33500
11169441;-0.32000
11172219;-0.31500
11174997;-0.31000
11177775;-0.31500
11180552;-0.32500
11183330;-0.32500
11186108;-0.32000
11188886;-0.31000
11191664;-0.31000
11194441;-0.32000
11197219;-0.33000
11199997;-0.31000
11202775;-0.30500
11205552;-0.28500
11208330;-0.27000
11211108;-0.28000
11213886;-0.27500
11216664;-0.26000
11219441;-0.24500
11222219;-0.24000
11224997;-0.24000
11227775;-0.26500
11230552;-0.26500
11233330;-0.25500
11236108;-0.25000
11238886;-0.24500
11241664;-0.24500
11244441;-0.24000
11247219;-0.22500
11249997;-0.22000
11252775;-0.20000
11255552;-0.19500
11258330;-0.20000
11261108;-0.23000
11263886;-0.24500
11266664;-0.24500
11269441;-0.23500
11272219;-0.21500
11274997;-0.21500
11277775;-0.24500
11280552;-0.25500
11283330;-0.24500
11286108;-0.22000
11288886;-0.21500
11291664;-0.21000
11294441;-0.23000
11297219;-0.27000
11299997;-0.29500
11302775;-0.31000
11305552;-0.31500
11308330;-0.33000
11311108;-0.33500
11313886;-0.35500
11316663;-0.34500
11319441;-0.34500
11322219;-0.35000
11324997;-0.35000
11327775;-0.35500
11330552;-0.36500
11333330;-0.36000
11336108;-0.35000
11338886;-0.34000
11341663;-0.35500
11344441;-0.36000
11347219;-0.37500
11349997;-0.38000
11352775;-0.37000
11355552;-0.37000
11358330;-0.36000
11361108;-0.37000
11363886;-0.38000
11366663;-0.37500
11369441;-0.38000
11372219;-0.37000
11374997;-0.39500
11377775;-0.39000
11380552;-0.43000
11383330;-0.44500
11386108;-0.48000
11388886;-0.49000
11391663;-0.49500
11394441;-0.50000
11397219;-0.56000
11399997;-0.58500
11402775;-0.55500
11405552;-0.50000
11408330;-0.37000
11411108;-0.24000
11413886;-0.07500
11416663;0.16000
11419441;0.44000
11422219;0.69500
11424997;0.84500
11427775;0.91000
11430552;0.80000
11433330;0.48500
11436108;0.08500
11438886;-0.25000
11441663;-0.45500
11444441;-0.51000
11447219;-0.50500
11449997;-0.43500
11452775;-0.41000
11455552;-0.42500
11458330;-0.41000
11461108;-0.42000
11463886;-0.42000
11466663;-0.41500
11469441;-0.42000
11472219;-0.41500
11474997;-0.40500
11477775;-0.41000
11480552;-0.41500
11483330;-0.41000
11486108;-0.40000
11488886;-0.39000
11491663;-0.39500
11494441;-0.40000
11497219;-0.42000
11499997;-0.41000
11502775;-0.40500
11505552;-0.40500
11508330;-0.42000
11511108;-0.42500
11513886;-0.43500
11516663;-0.40500
11519441;-0.41000
11522219;-0.41000
11524997;-0.41000
11527775;-0.42500
11530552;-0.44000
11533330;-0.44000
11536108;-0.41500
11538886;-0.42000
11541663;-0.41500
11544441;-0.42000
11547219;-0.42500
11549997;-0.42000
11552775;-0.42500
11555552;-0.41500
11558330;-0.42000
11561108;-0.42000
11563886;-0.42500
11566663;-0.42500
11569441;-0.41500
11572219;-0.41500
11574997;-0.42500
11577775;-0.43500
11580552;-0.43500
11583330;-0.41500
11586108;-0.40500
11588886;-0.40500
11591663;-0.40500
11594441;-0.41500
11597219;-0.42500
11599997;-0.40500
11602775;-0.41000
11605552;-0.40500
11608330;-0.41500
11611108;-0.43000
11613886;-0.43000
11616663;-0.42000
11619441;-0.40500
11622219;-0.40000
11624997;-0.39500
11627775;-0.41000
11630552;-0.42000
11633330;-0.43500
11636108;-0.43000
11638886;-0.42000
11641663;-0.42500
11644441;-0.42500
11647219;-0.43500
11649997;-0.44000
11652775;-0.43500
11655552;-0.43000
11658330;-0.44000
11661108;-0.44500
11663886;-0.46000
11666663;-0.45500
11669441;-0.45000
11672219;-0.45000
11674997;-0.46500
11677775;-0.48000
11680552;-0.48500
11683330;-0.48000
11686108;-0.46500
11688886;-0.45000
11691663;-0.45500
11694441;-0.46500
11697219;-0.47000
11699997;-0.47500
11702775;-0.46000
11705552;-0.46000
11708330;-0.46500
11711108;-0.45500
11713886;-0.45000
11716663;-0.43500
11719441;-0.43000
11722219;-0.41000
11724997;-0.40500
11727774;-0.40500
11730552;-0.40500
11733330;-0.37500
11736108;-0.37500
11738886;-0.35000
11741663;-0.36000
11744441;-0.34500
11747219;-0.35000
11749997;-0.33500
11752774;-0.32000
11755552;-0.32000
11758330;-0.32000
11761108;-0.33000
11763886;-0.32500
11766663;-0.31500
11769441;-0.31500
11772219;-0.30500
11774997;-0.31500
11777774;-0.31000
11780552;-0.32000
11783330;-0.31500
11786108;-0.30500
11788886;-0.30000
11791663;-0.29000
11794441;-0.29500
11797219;-0.31000
11799997;-0.32000
11802774;-0.32000
11805552;-0.32500
11808330;-0.31500
11811108;-0.31000
11813886;-0.32000
11816663;-0.32000
11819441;-0.32000
11822219;-0.31500
11824997;-0.33500
11827774;-0.33500
11830552;-0.33500
11833330;-0.33500
11836108;-0.32000
11838886;-0.31500
11841663;-0.31000
11844441;-0.32000
11847219;-0.33500
11849997;-0.33000
11852774;-0.31000
11855552;-0.31500
11858330;-0.32000
11861108;-0.32000
11863886;-0.34500
11866663;-0.35000
11869441;-0.34000
11872219;-0.33000
11874997;-0.33000
11877774;-0.34000
11880552;-0.35500
11883330;-0.35000
11886108;-0.33000
11888886;-0.32500
11891663;-0.34000
11894441;-0.35500
11897219;-0.36500
11899997;-0.35500
11902774;-0.33500
11905552;-0.33500
11908330;-0.35500
11911108;-0.35000
11913886;-0.36000
11916663;-0.34000
11919441;-0.34000
11922219;-0.34500
11924997;-0.35000
11927774;-0.37000
11930552;-0.36000
11933330;-0.35500
11936108;-0.35000
11938886;-0.34500
11941663;-0.36000
11944441;-0.37500
11947219;-0.37000
11949997;-0.35500
11952774;-0.35000
11955552;-0.34000
11958330;-0.33000
11961108;-0.33000
11963886;-0.33500
11966663;-0.32500
11969441;-0.33000
11972219;-0.34500
11974997;-0.35000
11977774;-0.36000
11980552;-0.36500
11983330;-0.35500
11986108;-0.34500
11988886;-0.33500
11991663;-0.34500
11994441;-0.38000
11997219;-0.38500
11999997;-0.38500
12002774;-0.36500
12005552;-0.33000
12008330;-0.33500
12011108;-0.33000
12013886;-0.34500
12016663;-0.33000
12019441;-0.32500
12022219;-0.32000
12024997;-0.31000
12027774;-0.31000
12030552;-0.31500
12033330;-0.29000
12036108;-0.27500
12038886;-0.27500
12041663;-0.26500
12044441;-0.25500
12047219;-0.26000
12049997;-0.26500
12052774;-0.25500
12055552;-0.25000
12058330;-0.26000
12061108;-0.27500
12063886;-0.29500
12066663;-0.28000
12069441;-0.27000
12072219;-0.25500
12074997;-0.26500
12077774;-0.30000
12080552;-0.31500
12083330;-0.29500
12086108;-0.28000
12088886;-0.24500
12091663;-0.26000
12094441;-0.29000
12097219;-0.32500
12099997;-0.34500
12102774;-0.34500
12105552;-0.35500
12108330;-0.36000
12111108;-0.39000
12113885;-0.40000
12116663;-0.40500
12119441;-0.38000
12122219;-0.37000
12124997;-0.37500
12127774;-0.39500
12130552;-0.40000
12133330;-0.40500
12136108;-0.40500
12138885;-0.40000
12141663;-0.40000
12144441;-0.41000
12147219;-0.40000
12149997;-0.39500
12152774;-0.39000
12155552;-0.39500
12158330;-0.39500
12161108;-0.40000
12163885;-0.41000
12166663;-0.40000
12169441;-0.40000
12172219;-0.39000
12174997;-0.40500
12177774;-0.43500
12180552;-0.47500
12183330;-0.50000
12186108;-0.49000
12188885;-0.47000
12191663;-0.48000
12194441;-0.52500
12197219;-0.59500
12199997;-0.63500
12202774;-0.59000
12205552;-0.50500
12208330;-0.38500
12211108;-0.22500
12213885;-0.04500
12216663;0.20500
12219441;0.50000
12222219;0.75000
12224997;0.92000
12227774;0.94000
12230552;0.74500
12233330;0.33500
12236108;-0.11500
12238885;-0.41500
12241663;-0.51500
12244441;-0.52500
12247219;-0.48500
12249997;-0.43500
12252774;-0.42500
12255552;-0.42500
12258330;-0.42000
12261108;-0.42000
12263885;-0.43500
12266663;-0.42500
12269441;-0.42000
12272219;-0.42500
12274997;-0.43500
12277774;-0.43500
12280552;-0.44000
12283330;-0.43500
12286108;-0.43000
12288885;-0.42000
12291663;-0.43000
12294441;-0.43500
12297219;-0.45000
12299997;-0.44000
12302774;-0.43000
12305552;-0.42500
12308330;-0.43000
12311108;-0.43500
12313885;-0.45000
12316663;-0.44500
12319441;-0.43000
12322219;-0.42500
12324997;-0.43500
12327774;-0.44000
12330552;-0.45000
12333330;-0.44500
12336108;-0.43500
12338885;-0.43000
12341663;-0.43500
12344441;-0.43500
12347219;-0.45000
12349997;-0.44500
12352774;-0.44000
12355552;-0.43000
12358330;-0.44000
12361108;-0.44000
12363885;-0.46000
12366663;-0.45000
12369441;-0.44500
12372219;-0.43500
12374997;-0.43000
12377774;-0.43000
12380552;-0.44000
12383330;-0.45000
12386108;-0.44500
12388885;-0.42500
12391663;-0.44000
12394441;-0.45000
12397219;-0.45000
12399997;-0.45500
12402774;-0.44500
12405552;-0.43500
12408330;-0.44000
12411108;-0.44500
12413885;-0.46000
12416663;-0.44500
12419441;-0.44500
12422219;-0.43500
12424997;-0.44000
12427774;-0.44500
12430552;-0.45500
12433330;-0.45500
12436108;-0.43500
12438885;-0.43500
12441663;-0.43500
12444441;-0.45000
12447219;-0.46000
12449997;-0.46500
12452774;-0.46000
12455552;-0.46000
12458330;-0.46000
12461108;-0.47000
12463885;-0.49000
12466663;-0.48500
12469441;-0.49500
12472219;-0.48500
12474997;-0.48500
12477774;-0.50500
12480552;-0.50500
12483330;-0.52000
12486108;-0.51000
12488885;-0.50500
12491663;-0.49500
12494441;-0.51000
12497219;-0.51500
12499996;-0.51000
12502774;-0.49500
12505552;-0.48000
12508330;-0.47500
12511108;-0.47000
12513885;-0.46500
12516663;-0.44500
12519441;-0.43000
12522219;-0.40500
12524996;-0.39000
12527774;-0.40000
12530552;-0.38500
12533330;-0.37500
12536108;-0.36500
12538885;-0.33000
12541663;-0.33000
12544441;-0.34000
12547219;-0.33500
12549996;-0.33500
12552774;-0.32000
12555552;-0.31500
12558330;-0.31000
12561108;-0.31000
12563885;-0.32500
12566663;-0.32500
12569441;-0.31000
12572219;-0.30500
12574996;-0.31500
12577774;-0.31500
12580552;-0.32500
12583330;-0.32500
12586108;-0.31500
12588885;-0.30500
12591663;-0.31000
12594441;-0.32000
12597219;-0.32000
12599996;-0.31500
12602774;-0.31500
12605552;-0.30000
12608330;-0.32000
12611108;-0.33500
12613885;-0.34000
12616663;-0.32500
12619441;-0.31500
12622219;-0.31500
12624996;-0.31000
12627774;-0.32500
12630552;-0.32500
12633330;-0.32500
12636108;-0.31500
12638885;-0.30500
12641663;-0.31500
12644441;-0.32500
12647219;-0.34000
12649996;-0.33000
12652774;-0.33500
12655552;-0.32500
12658330;-0.32500
12661108;-0.33000
12663885;-0.34500
12666663;-0.34500
12669441;-0.33000
12672219;-0.34000
12674996;-0.33500
12677774;-0.34000
12680552;-0.35000
12683330;-0.34500
12686108;-0.34500
12688885;-0.33500
12691663;-0.34000
12694441;-0.35000
12697219;-0.35500
12699996;-0.36000
12702774;-0.34500
12705552;-0.33500
12708330;-0.32500
12711108;-0.33000
12713885;-0.34500
12716663;-0.36000
12719441;-0.34000
12722219;-0.33000
12724996;-0.33000
12727774;-0.33500
12730552;-0.36000
12733330;-0.35000
12736108;-0.34500
12738885;-0.33000
12741663;-0.34000
12744441;-0.34500
12747219;-0.35500
12749996;-0.34500
12752774;-0.33500
12755552;-0.33500
12758330;-0.34000
12761108;-0.35000
12763885;-0.35500
12766663;-0.34000
12769441;-0.33500
12772219;-0.34000
12774996;-0.33000
12777774;-0.33500
12780552;-0.36000
12783330;-0.35000
12786108;-0.32500
12788885;-0.32500
12791663;-0.33000
12794441;-0.33000
12797219;-0.35500
12799996;-0.34000
12802774;-0.32000
12805552;-0.32000
12808330;-0.32500
12811108;-0.33000
12813885;-0.34000
12816663;-0.34000
12819441;-0.33000
12822219;-0.32500
12824996;-0.31500
12827774;-0.31500
12830552;-0.31500
12833330;-0.31000
12836108;-0.29000
12838885;-0.26500
12841663;-0.26500
12844441;-0.25500
12847219;-0.26500
12849996;-0.25500
12852774;-0.24500
12855552;-0.23500
12858330;-0.23500
12861108;-0.22500
12863885;-0.23000
12866663;-0.22000
12869441;-0.20000
12872219;-0.20500
12874996;-0.21000
12877774;-0.22000
12880552;-0.25500
12883330;-0.23000
12886108;-0.22000
12888885;-0.22500
12891663;-0.23000
12894441;-0.23000
12897219;-0.24500
12899996;-0.24500
12902774;-0.24000
12905552;-0.23000
12908330;-0.20000
12911107;-0.20000
12913885;-0.21500
12916663;-0.24500
12919441;-0.26500
12922219;-0.27500
12924996;-0.29500
12927774;-0.31500
12930552;-0.34000
12933330;-0.33500
12936107;-0.35000
12938885;-0.34500
12941663;-0.33500
12944441;-0.34500
12947219;-0.36000
12949996;-0.36000
12952774;-0.35000
12955552;-0.35000
12958330;-0.35500
12961107;-0.36500
12963885;-0.37000
12966663;-0.36500
12969441;-0.36000
12972219;-0.35000
12974996;-0.35500
12977774;-0.36000
12980552;-0.37500
12983330;-0.37000
12986107;-0.36000
12988885;-0.36000
12991663;-0.36500
12994441;-0.36500
12997219;-0.36500
12999996;-0.36500
13002774;-0.35500
13005552;-0.36000
13008330;-0.40000
13011107;-0.46500
13013885;-0.50000
13016663;-0.50500
13019441;-0.52500
13022219;-0.54000
13024996;-0.51500
13027774;-0.41500
13030552;-0.26000
13033330;-0.06500
13036107;0.15500
13038885;0.42000
13041663;0.72000
13044441;0.96500
13047219;1.11500
13049996;1.16000
13052774;1.03000
13055552;0.67500
13058330;0.15500
13061107;-0.28500
13063885;-0.49000
13066663;-0.47500
13069441;-0.41000
13072219;-0.35500
13074996;-0.35000
13077774;-0.36500
13080552;-0.38500
13083330;-0.38500
13086107;-0.38500
13088885;-0.39000
13091663;-0.38500
13094441;-0.40500
13097219;-0.41500
13099996;-0.42000
13102774;-0.39500
13105552;-0.40000
13108330;-0.40000
13111107;-0.41000
13113885;-0.41500
13116663;-0.41500
13119441;-0.40500
13122219;-0.40000
13124996;-0.40500
13127774;-0.40000
13130552;-0.42000
13133330;-0.41000
13136107;-0.39000
13138885;-0.39000
13141663;-0.39500
13144441;-0.40000
13147219;-0.41500
13149996;-0.41000
13152774;-0.41000
13155552;-0.40000
13158330;-0.40500
13161107;-0.42000
13163885;-0.42500
13166663;-0.42000
13169441;-0.40000
13172219;-0.41000
13174996;-0.40500
13177774;-0.41500
13180552;-0.43000
13183330;-0.41500
13186107;-0.42000
13188885;-0.41000
13191663;-0.41000
13194441;-0.41000
13197219;-0.42000
13199996;-0.41500
13202774;-0.41000
13205552;-0.40500
13208330;-0.40000
13211107;-0.40500
13213885;-0.42000
13216663;-0.41500
13219441;-0.40000
13222219;-0.40500
13224996;-0.41000
13227774;-0.41500
13230552;-0.42500
13233330;-0.42000
13236107;-0.41500
13238885;-0.40000
13241663;-0.40000
13244441;-0.42000
13247219;-0.42000
13249996;-0.41000
13252774;-0.40500
13255552;-0.39500
13258330;-0.41000
13261107;-0.40500
13263885;-0.40500
13266663;-0.41500
13269441;-0.41000
13272219;-0.40500
13274996;-0.41000
13277774;-0.39500
13280552;-0.42000
13283330;-0.41500
13286107;-0.41000
13288885;-0.41000
13291663;-0.41000
13294441;-0.41500
13297218;-0.44000
13299996;-0.44000
13302774;-0.41500
13305552;-0.41000
13308330;-0.41000
13311107;-0.42500
13313885;-0.42000
13316663;-0.43000
13319441;-0.43000
13322218;-0.42000
13324996;-0.40500
13327774;-0.40500
13330552;-0.41500
13333330;-0.41000
13336107;-0.39000
13338885;-0.37500
13341663;-0.38000
13344441;-0.38000
13347218;-0.37500
13349996;-0.35500
13352774;-0.34500
13355552;-0.32000
13358330;-0.32000
13361107;-0.32000
13363885;-0.31500
13366663;-0.31000
13369441;-0.29000
13372218;-0.28500
13374996;-0.29000
13377774;-0.28500
13380552;-0.29000
13383330;-0.28000
13386107;-0.27500
13388885;-0.26000
13391663;-0.26500
13394441;-0.26500
13397218;-0.29000
13399996;-0.27000
13402774;-0.28500
13405552;-0.26500
13408330;-0.26500
13411107;-0.28500
13413885;-0.29000
13416663;-0.30000
13419441;-0.28000
13422218;-0.27500
13424996;-0.27000
13427774;-0.27000
13430552;-0.28500
13433330;-0.28000
13436107;-0.28000
13438885;-0.26500
13441663;-0.27000
13444441;-0.27500
13447218;-0.29500
13449996;-0.28500
13452774;-0.28000
13455552;-0.27000
13458330;-0.28000
13461107;-0.28500
13463885;-0.29500
13466663;-0.29500
13469441;-0.29000
13472218;-0.28000
13474996;-0.28500
13477774;-0.29500
13480552;-0.31500
13483330;-0.30500
13486107;-0.30500
13488885;-0.29500
13491663;-0.29500
13494441;-0.30500
13497218;-0.31500
13499996;-0.31500
13502774;-0.30000
13505552;-0.29500
13508330;-0.30500
13511107;-0.30000
13513885;-0.32500
13516663;-0.32000
13519441;-0.31500
13522218;-0.30500
13524996;-0.30500
13527774;-0.31000
13530552;-0.33500
13533330;-0.32000
13536107;-0.32000
13538885;-0.31500
13541663;-0.31500
13544441;-0.32000
13547218;-0.33500
13549996;-0.33000
13552774;-0.32000
13555552;-0.31500
13558330;-0.31500
13561107;-0.31500
13563885;-0.33500
13566663;-0.32000
13569441;-0.31000
13572218;-0.30500
13574996;-0.31000
13577774;-0.32000
13580552;-0.31500
13583330;-0.31500
13586107;-0.30000
13588885;-0.30000
13591663;-0.30000
13594441;-0.31000
13597218;-0.32000
13599996;-0.31000
13602774;-0.30000
13605552;-0.29500
13608330;-0.29500
13611107;-0.30000
13613885;-0.29500
13616663;-0.29500
13619441;-0.29000
13622218;-0.27500
13624996;-0.28000
13627774;-0.29500
13630552;-0.31000
13633330;-0.30500
13636107;-0.30000
13638885;-0.28500
13641663;-0.28500
13644441;-0.30000
13647218;-0.31000
13649996;-0.31000
13652774;-0.29500
13655552;-0.28500
13658330;-0.28500
13661107;-0.27000
13663885;-0.25500
13666663;-0.25500
13669441;-0.23000
13672218;-0.22000
13674996;-0.22000
13677774;-0.22500
13680552;-0.22500
13683330;-0.22000
13686107;-0.19000
13688885;-0.18000
13691663;-0.17500
13694441;-0.18500
13697218;-0.20000
13699996;-0.20500
13702774;-0.20500
13705552;-0.21500
13708329;-0.22000
13711107;-0.21000
13713885;-0.23000
13716663;-0.23000
13719441;-0.23500
13722218;-0.21500
13724996;-0.18500
13727774;-0.18000
13730552;-0.19000
13733329;-0.22500
13736107;-0.24500
13738885;-0.24500
13741663;-0.26000
13744441;-0.28500
13747218;-0.30500
13749996;-0.32000
13752774;-0.31500
13755552;-0.31500
13758329;-0.31000
13761107;-0.32000
13763885;-0.33000
13766663;-0.32500
13769441;-0.32000
13772218;-0.32000
13774996;-0.31500
13777774;-0.32000
13780552;-0.34000
13783329;-0.33500
13786107;-0.32500
13788885;-0.32500
13791663;-0.32000
13794441;-0.34000
13797218;-0.34500
13799996;-0.33500
13802774;-0.32500
13805552;-0.31500
13808329;-0.32000
13811107;-0.33000
13813885;-0.34500
13816663;-0.34500
13819441;-0.36000
13822218;-0.37000
13824996;-0.40500
13827774;-0.44000
13830552;-0.47000
13833329;-0.46500
13836107;-0.48000
13838885;-0.50000
13841663;-0.54000
13844441;-0.51000
13847218;-0.41500
13849996;-0.24000
13852774;-0.05000
13855552;0.18000
13858329;0.46000
13861107;0.74500
13863885;0.95500
13866663;1.05000
13869441;0.99000
13872218;0.71000
13874996;0.23500
13877774;-0.21000
13880552;-0.44000
13883329;-0.47000
13886107;-0.39500
13888885;-0.33500
13891663;-0.32500
13894441;-0.35000
13897218;-0.37000
13899996;-0.37000
13902774;-0.35000
13905552;-0.35500
13908329;-0.36000
13911107;-0.37500
13913885;-0.37500
13916663;-0.37500
13919441;-0.37000
13922218;-0.36000
13924996;-0.36500
13927774;-0.37500
13930552;-0.38500
13933329;-0.38500
13936107;-0.37000
13938885;-0.37000
13941663;-0.37000
13944441;-0.37000
13947218;-0.37500
13949996;-0.37500
13952774;-0.36500
13955552;-0.36000
13958329;-0.37000
13961107;-0.38000
13963885;-0.39000
13966663;-0.38500
13969441;-0.38000
13972218;-0.37000
13974996;-0.37000
13977774;-0.37500
13980552;-0.38000
13983329;-0.38500
13986107;-0.38500
13988885;-0.37000
13991663;-0.38500
13994441;-0.38500
13997218;-0.38500
13999996;-0.38000
14002774;-0.37000
14005552;-0.38000
14008329;-0.38000
14011107;-0.38000
14013885;-0.39500
14016663;-0.39000
14019441;-0.38000
14022218;-0.38000
14024996;-0.37500
14027774;-0.38500
14030552;-0.39500
14033329;-0.39500
14036107;-0.38500
14038885;-0.38000
14041663;-0.37500
14044441;-0.37500
14047218;-0.38500
14049996;-0.39000
14052774;-0.37500
14055552;-0.38000
14058329;-0.37500
14061107;-0.38500
14063885;-0.39500
14066663;-0.38000
14069441;-0.38000
14072218;-0.37500
14074996;-0.37000
14077774;-0.38000
14080552;-0.39500
14083329;-0.39500
14086107;-0.39000
14088885;-0.38500
14091663;-0.38000
14094440;-0.39000
14097218;-0.40500
14099996;-0.41500
14102774;-0.39500
14105552;-0.39500
14108329;-0.39500
14111107;-0.40000
14113885;-0.42000
14116663;-0.42000
14119440;-0.40000
14122218;-0.39500
14124996;-0.40000
14127774;-0.41000
14130552;-0.41500
14133329;-0.40500
14136107;-0.40500
14138885;-0.39000
14141663;-0.38500
14144440;-0.40000
14147218;-0.40500
14149996;-0.39000
14152774;-0.37500
14155552;-0.36000
14158329;-0.36000
14161107;-0.35500
14163885;-0.35500
14166663;-0.34000
14169440;-0.31500
14172218;-0.31500
14174996;-0.32000
14177774;-0.30500
14180552;-0.30000
14183329;-0.29500
14186107;-0.28000
14188885;-0.27000
14191663;-0.26000
14194440;-0.28000
14197218;-0.27500
14199996;-0.29000
14202774;-0.27000
14205552;-0.26000
14208329;-0.26000
14211107;-0.28500
14213885;-0.27000
14216663;-0.28000
14219440;-0.27000
14222218;-0.26000
14224996;-0.25500
14227774;-0.27500
14230552;-0.27500
14233329;-0.29000
14236107;-0.27000
14238885;-0.27000
14241663;-0.27500
14244440;-0.27500
14247218;-0.29000
14249996;-0.27500
14252774;-0.27500
14255552;-0.26000
14258329;-0.26500
14261107;-0.26500
14263885;-0.27000
14266663;-0.28500
14269440;-0.28000
14272218;-0.27000
14274996;-0.26500
14277774;-0.28000
14280552;-0.28500
14283329;-0.29000
14286107;-0.28500
14288885;-0.27500
14291663;-0.27500
14294440;-0.28500
14297218;-0.30000
14299996;-0.31000
14302774;-0.31000
14305552;-0.29500
14308329;-0.29000
14311107;-0.29000
14313885;-0.29000
14316663;-0.28500
14319440;-0.29000
14322218;-0.28500
14324996;-0.28000
14327774;-0.29500
14330552;-0.30500
14333329;-0.31000
14336107;-0.32000
14338885;-0.30000
14341663;-0.30000
14344440;-0.30500
14347218;-0.31000
14349996;-0.31000
14352774;-0.30500
14355552;-0.30000
14358329;-0.29000
14361107;-0.30000
14363885;-0.31500
14366663;-0.30500
14369440;-0.31000
14372218;-0.29000
14374996;-0.29500
14377774;-0.30500
14380552;-0.30500
14383329;-0.31000
14386107;-0.29500
14388885;-0.29000
14391663;-0.30500
14394440;-0.29500
14397218;-0.30500
14399996;-0.31500
14402774;-0.31000
14405552;-0.30000
14408329;-0.29500
14411107;-0.30000
14413885;-0.29500
14416663;-0.30000
14419440;-0.29500
14422218;-0.28500
14424996;-0.28500
14427774;-0.30000
14430552;-0.30000
14433329;-0.29000
14436107;-0.29500
14438885;-0.28000
14441663;-0.29000
14444440;-0.29000
14447218;-0.30500
14449996;-0.30500
14452774;-0.29000
14455552;-0.28500
14458329;-0.28000
14461107;-0.28500
14463885;-0.29500
14466663;-0.29500
14469440;-0.28000
14472218;-0.28500
14474996;-0.29000
14477774;-0.29000
14480552;-0.27000
14483329;-0.26500
14486107;-0.24500
14488885;-0.22000
14491663;-0.23000
14494440;-0.23000
14497218;-0.23500
14499996;-0.22500
14502774;-0.21500
14505551;-0.21000
14508329;-0.20500
14511107;-0.19500
14513885;-0.19500
14516663;-0.19000
14519440;-0.19000
14522218;-0.19500
14524996;-0.20000
14527774;-0.21000
14530551;-0.22500
14533329;-0.23000
14536107;-0.21500
14538885;-0.21500
14541663;-0.23500
14544440;-0.24000
14547218;-0.22500
14549996;-0.20000
14552774;-0.17500
14555551;-0.18000
14558329;-0.21000
14561107;-0.24500
14563885;-0.27500
14566663;-0.29500
14569440;-0.29500
14572218;-0.29500
14574996;-0.30000
14577774;-0.32000
14580551;-0.33000
14583329;-0.33000
14586107;-0.34000
14588885;-0.32000
14591663;-0.32500
14594440;-0.32500
14597218;-0.34000
14599996;-0.34000
14602774;-0.35500
14605551;-0.33000
14608329;-0.32500
14611107;-0.33000
14613885;-0.34500
14616663;-0.35000
14619440;-0.33500
14622218;-0.33000
14624996;-0.34500
14627774;-0.34000
14630551;-0.34000
14633329;-0.35000
14636107;-0.34500
14638885;-0.33500
14641663;-0.33000
14644440;-0.34500
14647218;-0.36000
14649996;-0.37000
14652774;-0.40000
14655551;-0.42500
14658329;-0.45500
14661107;-0.48500
14663885;-0.54000
14666663;-0.56500
14669440;-0.52000
14672218;-0.41500
14674996;-0.28000
14677774;-0.14000
14680551;0.05500
14683329;0.32500
14686107;0.61000
14688885;0.83000
14691663;0.92000
14694440;0.85000
14697218;0.57500
14699996;0.17500
14702774;-0.19500
14705551;-0.40500
14708329;-0.48000
14711107;-0.47500
14713885;-0.42500
14716663;-0.39500
14719440;-0.38000
14722218;-0.37500
14724996;-0.38500
14727774;-0.37500
14730551;-0.38500
14733329;-0.38000
14736107;-0.39500
14738885;-0.38000
14741663;-0.38500
14744440;-0.39000
14747218;-0.40000
14749996;-0.39500
14752774;-0.38000
14755551;-0.37000
14758329;-0.37500
14761107;-0.39000
14763885;-0.40000
14766663;-0.40500
14769440;-0.38000
14772218;-0.36500
14774996;-0.37000
14777774;-0.38000
14780551;-0.38500
14783329;-0.39000
14786107;-0.39000
14788885;-0.37000
14791663;-0.37500
14794440;-0.38000
14797218;-0.39000
14799996;-0.39000
14802774;-0.39000
14805551;-0.38500
14808329;-0.38000
14811107;-0.38500
14813885;-0.39500
14816663;-0.39500
14819440;-0.38000
14822218;-0.36000
14824996;-0.36500
14827774;-0.38000
14830551;-0.40000
14833329;-0.40500
14836107;-0.40000
14838885;-0.37500
14841663;-0.38500
14844440;-0.39000
14847218;-0.39000
14849996;-0.40500
14852774;-0.39000
14855551;-0.37000
14858329;-0.38500
14861107;-0.38500
14863885;-0.39500
14866663;-0.40000
14869440;-0.38500
14872218;-0.38500
14874996;-0.39000
14877774;-0.38500
14880551;-0.39000
14883329;-0.39000
14886107;-0.38500
14888885;-0.37500
14891662;-0.37500
14894440;-0.38000
14897218;-0.39500
14899996;-0.41000
14902774;-0.40000
14905551;-0.39000
14908329;-0.39000
14911107;-0.39000
14913885;-0.40000
14916662;-0.40500
14919440;-0.40500
14922218;-0.39500
14924996;-0.40000
14927774;-0.42000
14930551;-0.43500
14933329;-0.42500
14936107;-0.43000
14938885;-0.42000
14941662;-0.42500
14944440;-0.44000
14947218;-0.45500
14949996;-0.45000
14952774;-0.43000
14955551;-0.42500
14958329;-0.42500
14961107;-0.45500
14963885;-0.46500
14966662;-0.46000
14969440;-0.43500
14972218;-0.40500
14974996;-0.40000
14977774;-0.40000
14980551;-0.40000
14983329;-0.39000
14986107;-0.37500
14988885;-0.35000
14991662;-0.35000
14994440;-0.35500
14997218;-0.35500
14999996;-0.35000
15002774;-0.34500
15005551;-0.32500
15008329;-0.34500
15011107;-0.34000
15013885;-0.33000
15016662;-0.32500
15019440;-0.30500
15022218;-0.29000
15024996;-0.29000
15027774;-0.28000
15030551;-0.29500
15033329;-0.29500
15036107;-0.30500
15038885;-0.29000
15041662;-0.29500
15044440;-0.29500
15047218;-0.28000
15049996;-0.28500
15052774;-0.28000
15055551;-0.27000
15058329;-0.27500
15061107;-0.28500
15063885;-0.30500
15066662;-0.30000
15069440;-0.29000
15072218;-0.27000
15074996;-0.27500
15077774;-0.27000
15080551;-0.28500
15083329;-0.28500
15086107;-0.26000
15088885;-0.23500
15091662;-0.23000
15094440;-0.24000
15097218;-0.23500
15099996;-0.24000
15102774;-0.22000
15105551;-0.20500
15108329;-0.21500
15111107;-0.20500
15113885;-0.22000
15116662;-0.22500
15119440;-0.22000
15122218;-0.20500
15124996;-0.19500
15127774;-0.18000
15130551;-0.20000
15133329;-0.23000
15136107;-0.25000
15138885;-0.23500
15141662;-0.24000
15144440;-0.23000
15147218;-0.26500
15149996;-0.26500
15152774;-0.27500
15155551;-0.28000
15158329;-0.29000
15161107;-0.29500
15163885;-0.31000
15166662;-0.32000
15169440;-0.30500
15172218;-0.29000
15174996;-0.30500
15177774;-0.31000
15180551;-0.33500
15183329;-0.34500
15186107;-0.34000
15188885;-0.33000
15191662;-0.34000
15194440;-0.35500
15197218;-0.37000
15199996;-0.38000
15202774;-0.37500
15205551;-0.35500
15208329;-0.36000
15211107;-0.36000
15213885;-0.37000
15216662;-0.38000
15219440;-0.37000
15222218;-0.35500
15224996;-0.36000
15227774;-0.36500
15230551;-0.37000
15233329;-0.37000
15236107;-0.37000
15238885;-0.35000
15241662;-0.35500
15244440;-0.35500
15247218;-0.36500
15249996;-0.38500
15252774;-0.39500
15255551;-0.41000
15258329;-0.45000
15261107;-0.49000
15263885;-0.51500
15266662;-0.56500
15269440;-0.59500
15272218;-0.55500
15274996;-0.45500
15277774;-0.30500
15280551;-0.13500
15283329;0.07000
15286107;0.32500
15288885;0.60000
15291662;0.80500
15294440;0.91000
15297218;0.88000
15299996;0.64500
15302773;0.26500
15305551;-0.11000
15308329;-0.37500
15311107;-0.47000
15313885;-0.48000
15316662;-0.46000
15319440;-0.42000
15322218;-0.40500
15324996;-0.40000
15327773;-0.40000
15330551;-0.39000
15333329;-0.39000
15336107;-0.38000
15338885;-0.36000
15341662;-0.37000
15344440;-0.38500
15347218;-0.39000
15349996;-0.39000
15352773;-0.40000
15355551;-0.38500
15358329;-0.40500
15361107;-0.42000
15363885;-0.42500
15366662;-0.41000
15369440;-0.40000
15372218;-0.39000
15374996;-0.39500
15377773;-0.39000
15380551;-0.40000
15383329;-0.41000
15386107;-0.41000
15388885;-0.41500
15391662;-0.40500
15394440;-0.40000
15397218;-0.39500
15399996;-0.40500
15402773;-0.40500
15405551;-0.40000
15408329;-0.40500
15411107;-0.40500
15413885;-0.40500
15416662;-0.41000
15419440;-0.40000
15422218;-0.39000
15424996;-0.40000
15427773;-0.39500
15430551;-0.40500
15433329;-0.41500
15436107;-0.39500
15438885;-0.40500
15441662;-0.39500
15444440;-0.40000
15447218;-0.40000
15449996;-0.41500
15452773;-0.40000
15455551;-0.39500
15458329;-0.39000
15461107;-0.39500
15463885;-0.40500
15466662;-0.41000
15469440;-0.40000
15472218;-0.38500
15474996;-0.38500
15477773;-0.39500
15480551;-0.39500
15483329;-0.40000
15486107;-0.40000
15488885;-0.39000
15491662;-0.39000
15494440;-0.40500
15497218;-0.42000
15499996;-0.40500
15502773;-0.40500
15505551;-0.39000
15508329;-0.40000
15511107;-0.40500
15513885;-0.41000
15516662;-0.40500
15519440;-0.40000
15522218;-0.40500
15524996;-0.40000
15527773;-0.41500
15530551;-0.42500
15533329;-0.43000
15536107;-0.42500
15538885;-0.42500
15541662;-0.43000
15544440;-0.45000
15547218;-0.46000
15549996;-0.46000
15552773;-0.45000
15555551;-0.44000
15558329;-0.45000
15561107;-0.45500
15563885;-0.45500
15566662;-0.46000
15569440;-0.44500
15572218;-0.42500
15574996;-0.43500
15577773;-0.43000
15580551;-0.44500
15583329;-0.43500
15586107;-0.40000
15588885;-0.38000
15591662;-0.37000
15594440;-0.36500
15597218;-0.36500
15599996;-0.36000
15602773;-0.33500
15605551;-0.32000
15608329;-0.33000
15611107;-0.32000
15613885;-0.32500
15616662;-0.31500
15619440;-0.30500
15622218;-0.29500
15624996;-0.29000
15627773;-0.30000
15630551;-0.30500
15633329;-0.31000
15636107;-0.30000
15638885;-0.29000
15641662;-0.28000
15644440;-0.29000
15647218;-0.30000
15649996;-0.30500
15652773;-0.29000
15655551;-0.28500
15658329;-0.28500
15661107;-0.29500
15663885;-0.32000
15666662;-0.31500
15669440;-0.30000
15672218;-0.29500
15674996;-0.29500
15677773;-0.30500
15680551;-0.30500
15683329;-0.31500
15686107;-0.30500
15688884;-0.29000
15691662;-0.30500
15694440;-0.32000
15697218;-0.32000
15699996;-0.33000
15702773;-0.31500
15705551;-0.30500
15708329;-0.31500
15711107;-0.31500
15713884;-0.32000
15716662;-0.32500
15719440;-0.32000
15722218;-0.31000
15724996;-0.31500
15727773;-0.32500
15730551;-0.32500
15733329;-0.33000
15736107;-0.31500
15738884;-0.31000
15741662;-0.32500
15744440;-0.32500
15747218;-0.33500
15749996;-0.34000
15752773;-0.32000
15755551;-0.32000
15758329;-0.32500
15761107;-0.32000
15763884;-0.34500
15766662;-0.33500
15769440;-0.33000
15772218;-0.32500
15774996;-0.32500
15777773;-0.32500
15780551;-0.33500
15783329;-0.33000
15786107;-0.33000
15788884;-0.31500
15791662;-0.32000
15794440;-0.32500
15797218;-0.33500
15799996;-0.33000
15802773;-0.33000
15805551;-0.31500
15808329;-0.31500
15811107;-0.32500
15813884;-0.32000
15816662;-0.33500
15819440;-0.32000
15822218;-0.31500
15824996;-0.31500
15827773;-0.32000
15830551;-0.34000
15833329;-0.34500
15836107;-0.32500
15838884;-0.31000
15841662;-0.31500
15844440;-0.33500
15847218;-0.34000
15849996;-0.34500
15852773;-0.33000
15855551;-0.32500
15858329;-0.31500
15861107;-0.33000
15863884;-0.34000
15866662;-0.34000
15869440;-0.33500
15872218;-0.32500
15874996;-0.33500
15877773;-0.34000
15880551;-0.35000
15883329;-0.34500
15886107;-0.33500
15888884;-0.33000
15891662;-0.33000
15894440;-0.33000
15897218;-0.34500
15899996;-0.35500
15902773;-0.34000
15905551;-0.32000
15908329;-0.32500
15911107;-0.33500
15913884;-0.34000
15916662;-0.34500
15919440;-0.33000
15922218;-0.32500
15924996;-0.33000
15927773;-0.34000
15930551;-0.33000
15933329;-0.34500
15936107;-0.34000
15938884;-0.32500
15941662;-0.33000
15944440;-0.32500
15947218;-0.34000
15949996;-0.35000
15952773;-0.34000
15955551;-0.32500
15958329;-0.33000
15961107;-0.33500
15963884;-0.34000
15966662;-0.34500
15969440;-0.34000
15972218;-0.32500
15974996;-0.32500
15977773;-0.32500
15980551;-0.33500
15983329;-0.33500
15986107;-0.32500
15988884;-0.30500
15991662;-0.31500
15994440;-0.32000
15997218;-0.33000
15999996;-0.33500
16002773;-0.32000
16005551;-0.32000
16008329;-0.31500
16011107;-0.31500
16013884;-0.32000
16016662;-0.33000
16019440;-0.30500
16022218;-0.31000
16024996;-0.32000
16027773;-0.31500
16030551;-0.32000
16033329;-0.33000
16036107;-0.32000
16038884;-0.31000
16041662;-0.31500
16044440;-0.31500
16047218;-0.32500
16049996;-0.33500
16052773;-0.33000
16055551;-0.31000
16058329;-0.31000
16061107;-0.32000
16063884;-0.32000
16066662;-0.31500
16069440;-0.31500
16072218;-0.30000
16074995;-0.29500
16077773;-0.32000
16080551;-0.31500
16083329;-0.33000
16086107;-0.31000
16088884;-0.30000
16091662;-0.30000
16094440;-0.32000
16097218;-0.31500
16099995;-0.32000
16102773;-0.29500
16105551;-0.28500
16108329;-0.28000
16111107;-0.27500
16113884;-0.26500
16116662;-0.26500
16119440;-0.26500
16122218;-0.25000
16124995;-0.24000
16127773;-0.24500
16130551;-0.23500
16133329;-0.24500
16136107;-0.22000
16138884;-0.20500
16141662;-0.21000
16144440;-0.21000
16147218;-0.21500
16149995;-0.21500
16152773;-0.21500
16155551;-0.20000
16158329;-0.21500
16161107;-0.22500
16163884;-0.23500
16166662;-0.24500
16169440;-0.23000
16172218;-0.23000
16174995;-0.23500
16177773;-0.24500
16180551;-0.23500
16183329;-0.21000
16186107;-0.21000
16188884;-0.20500
16191662;-0.23500
16194440;-0.27000
16197218;-0.29500
16199995;-0.30000
16202773;-0.31500
16205551;-0.30500
16208329;-0.31500
16211107;-0.32500
16213884;-0.34000
16216662;-0.34500
16219440;-0.33000
16222218;-0.31500
16224995;-0.32500
16227773;-0.34500
16230551;-0.34500
16233329;-0.35000
16236107;-0.33500
16238884;-0.33500
16241662;-0.33500
16244440;-0.34000
16247218;-0.35000
16249995;-0.34500
16252773;-0.35000
16255551;-0.33000
16258329;-0.33500
16261107;-0.34000
16263884;-0.34500
16266662;-0.35000
16269440;-0.34000
16272218;-0.33000
16274995;-0.34500
16277773;-0.37500
16280551;-0.41000
16283329;-0.46000
16286107;-0.47500
16288884;-0.48500
16291662;-0.50000
16294440;-0.53500
16297218;-0.53000
16299995;-0.44000
16302773;-0.28500
16305551;-0.12000
16308329;0.07500
16311107;0.30500
16313884;0.58000
16316662;0.85000
16319440;1.06500
16322218;1.13500
16324995;1.03000
16327773;0.68500
16330551;0.19500
16333329;-0.25000
16336107;-0.46000
16338884;-0.47000
16341662;-0.40500
16344440;-0.37000
16347218;-0.35500
16349995;-0.36500
16352773;-0.38000
16355551;-0.36500
16358329;-0.37500
16361107;-0.39500
16363884;-0.39500
16366662;-0.40500
16369440;-0.39500
16372218;-0.38500
16374995;-0.38500
16377773;-0.40000
16380551;-0.40000
16383329;-0.41000
16386107;-0.39000
16388884;-0.38500
16391662;-0.38000
16394440;-0.40000
16397218;-0.40000
16399995;-0.41000
16402773;-0.40500
16405551;-0.39000
16408329;-0.38500
16411107;-0.39000
16413884;-0.41000
16416662;-0.40500
16419440;-0.40000
16422218;-0.38500
16424995;-0.39000
16427773;-0.40000
16430551;-0.40000
16433329;-0.39500
16436107;-0.40500
16438884;-0.37500
16441662;-0.37500
16444440;-0.38000
16447218;-0.38500
16449995;-0.39000
16452773;-0.38000
16455551;-0.38000
16458329;-0.38500
16461107;-0.38500
16463884;-0.39000
16466662;-0.41500
16469440;-0.39500
16472218;-0.39500
16474995;-0.40000
16477773;-0.39500
16480551;-0.40000
16483329;-0.41000
16486106;-0.41000
16488884;-0.39000
16491662;-0.39500
16494440;-0.40500
16497218;-0.40500
16499995;-0.41000
16502773;-0.40500
16505551;-0.39500
16508329;-0.39000
16511106;-0.40000
16513884;-0.40500
16516662;-0.41000
16519440;-0.39500
16522218;-0.39000
16524995;-0.40000
16527773;-0.40000
16530551;-0.41000
16533329;-0.40500
16536106;-0.40500
16538884;-0.39000
16541662;-0.41000
16544440;-0.40500
16547218;-0.40500
16549995;-0.41000
16552773;-0.39500
16555551;-0.40500
16558329;-0.40000
16561106;-0.40500
16563884;-0.41500
16566662;-0.42000
16569440;-0.40500
16572218;-0.41000
16574995;-0.41500
16577773;-0.42500
16580551;-0.42500
16583329;-0.44000
16586106;-0.43000
16588884;-0.41000
16591662;-0.40500
16594440;-0.42500
16597218;-0.41500
16599995;-0.42500
16602773;-0.42000
16605551;-0.40000
16608329;-0.40000
16611106;-0.40000
16613884;-0.40500
16616662;-0.39500
16619440;-0.39000
16622218;-0.37000
16624995;-0.35000
16627773;-0.34500
16630551;-0.35500
16633329;-0.34500
16636106;-0.32500
16638884;-0.31000
16641662;-0.29500
16644440;-0.30000
16647218;-0.29000
16649995;-0.29500
16652773;-0.28000
16655551;-0.25500
16658329;-0.25500
16661106;-0.25500
16663884;-0.25000
16666662;-0.25500
16669440;-0.25500
16672218;-0.25000
16674995;-0.24000
16677773;-0.25000
16680551;-0.26000
16683329;-0.25000
16686106;-0.25500
16688884;-0.24000
16691662;-0.23500
16694440;-0.25000
16697218;-0.25000
16699995;-0.25500
16702773;-0.24500
16705551;-0.24000
16708329;-0.24500
16711106;-0.25500
16713884;-0.26000
16716662;-0.26500
16719440;-0.25000
16722218;-0.24500
16724995;-0.24500
16727773;-0.24500
16730551;-0.26000
16733329;-0.26000
16736106;-0.25500
16738884;-0.25000
16741662;-0.26000
16744440;-0.26500
16747218;-0.27500
16749995;-0.27500
16752773;-0.27500
16755551;-0.26500
16758329;-0.27500
16761106;-0.27000
16763884;-0.28000
16766662;-0.28500
16769440;-0.28000
16772218;-0.28000
16774995;-0.27500
16777773;-0.29500
16780551;-0.29500
16783329;-0.30000
16786106;-0.28500
16788884;-0.28000
16791662;-0.29000
16794440;-0.29000
16797218;-0.30000
16799995;-0.31000
16802773;-0.29000
16805551;-0.29500
16808329;-0.29500
16811106;-0.30000
16813884;-0.31500
16816662;-0.31000
16819440;-0.29500
16822218;-0.29500
16824995;-0.30500
16827773;-0.31000
16830551;-0.30500
16833329;-0.31500
16836106;-0.30500
16838884;-0.30500
16841662;-0.30000
16844440;-0.30500
16847218;-0.31500
16849995;-0.31500
16852773;-0.31000
16855551;-0.29500
16858329;-0.30000
16861106;-0.31500
16863884;-0.32000
16866662;-0.32000
16869440;-0.30500
16872217;-0.29500
16874995;-0.30000
16877773;-0.31000
16880551;-0.31500
16883329;-0.33000
16886106;-0.31500
16888884;-0.30000
16891662;-0.30500
16894440;-0.31500
16897217;-0.31000
16899995;-0.33000
16902773;-0.31000
16905551;-0.29500
16908329;-0.30000
16911106;-0.30500
16913884;-0.32000
16916662;-0.31000
16919440;-0.30500
16922217;-0.29500
16924995;-0.31000
16927773;-0.30500
16930551;-0.32000
16933329;-0.30500
16936106;-0.30500
16938884;-0.29500
16941662;-0.29500
16944440;-0.30500
16947217;-0.30500
16949995;-0.31000
16952773;-0.30500
16955551;-0.29500
16958329;-0.29000
16961106;-0.29000
16963884;-0.29500
16966662;-0.29000
16969440;-0.26500
16972217;-0.25000
16974995;-0.24000
16977773;-0.22500
16980551;-0.24500
16983329;-0.25000
16986106;-0.23000
16988884;-0.22000
16991662;-0.21500
16994440;-0.20000
16997217;-0.21000
16999995;-0.20500
17002773;-0.20000
17005551;-0.17500
17008329;-0.18500
17011106;-0.20500
17013884;-0.21500
17016662;-0.22500
17019440;-0.22500
17022217;-0.22500
17024995;-0.22000
17027773;-0.21000
17030551;-0.22000
17033329;-0.23500
17036106;-0.23000
17038884;-0.21500
17041662;-0.18000
17044440;-0.18000
17047217;-0.21000
17049995;-0.25000
17052773;-0.26500
17055551;-0.26500
17058329;-0.27500
17061106;-0.29000
17063884;-0.30500
17066662;-0.31500
17069440;-0.31000
17072217;-0.29000
17074995;-0.30500
17077773;-0.31000
17080551;-0.33500
17083329;-0.34000
17086106;-0.32500
17088884;-0.32000
17091662;-0.32500
17094440;-0.33000
17097217;-0.34000
17099995;-0.34500
17102773;-0.34500
17105551;-0.33000
17108329;-0.32500
17111106;-0.34000
17113884;-0.33500
17116662;-0.35500
17119440;-0.34500
17122217;-0.34000
17124995;-0.34000
17127773;-0.34000
17130551;-0.35000
17133329;-0.36000
17136106;-0.35000
17138884;-0.33500
17141662;-0.34500
17144440;-0.36500
17147217;-0.42000
17149995;-0.46500
17152773;-0.48500
17155551;-0.48500
17158329;-0.54000
17161106;-0.56500
17163884;-0.55500
17166662;-0.44000
17169440;-0.29000
17172217;-0.13500
17174995;0.06000
17177773;0.28500
17180551;0.57500
17183329;0.82500
17186106;0.99000
17188884;1.03000
17191662;0.91500
17194440;0.58000
17197217;0.14500
17199995;-0.22500
17202773;-0.42000
17205551;-0.45500
17208329;-0.40500
17211106;-0.37000
17213884;-0.36000
17216662;-0.37000
17219440;-0.36500
17222217;-0.36000
17224995;-0.36000
17227773;-0.37000
17230551;-0.37000
17233329;-0.37500
17236106;-0.37500
17238884;-0.38000
17241662;-0.37000
17244440;-0.38000
17247217;-0.38500
17249995;-0.38500
17252773;-0.38500
17255551;-0.37000
17258329;-0.38500
17261106;-0.38000
17263884;-0.40000
17266662;-0.40500
17269440;-0.39500
17272217;-0.37500
17274995;-0.37500
17277773;-0.38500
17280551;-0.39000
17283328;-0.39000
17286106;-0.39000
17288884;-0.38500
17291662;-0.38500
17294440;-0.39000
17297217;-0.39000
17299995;-0.40500
17302773;-0.39500
17305551;-0.38500
17308328;-0.38500
17311106;-0.38500
17313884;-0.39500
17316662;-0.40000
17319440;-0.40000
17322217;-0.39000
17324995;-0.38500
17327773;-0.39500
17330551;-0.39500
17333328;-0.39500
17336106;-0.38500
17338884;-0.39500
17341662;-0.38000
17344440;-0.39500
17347217;-0.39500
17349995;-0.39500
17352773;-0.39500
17355551;-0.38000
17358328;-0.37000
17361106;-0.38500
17363884;-0.38500
17366662;-0.38000
17369440;-0.39000
17372217;-0.37500
17374995;-0.37500
17377773;-0.39500
17380551;-0.39500
17383328;-0.39500
17386106;-0.39000
17388884;-0.39000
17391662;-0.38500
17394440;-0.39000
17397217;-0.40000
17399995;-0.41500
17402773;-0.39500
17405551;-0.39000
17408328;-0.39000
17411106;-0.41000
17413884;-0.42000
17416662;-0.42000
17419440;-0.40500
17422217;-0.39500
17424995;-0.40000
17427773;-0.41000
17430551;-0.42000
17433328;-0.42500
17436106;-0.41500
17438884;-0.40000
17441662;-0.42000
17444440;-0.42000
17447217;-0.42500
17449995;-0.43000
17452773;-0.42500
17455551;-0.41500
17458328;-0.41500
17461106;-0.42500
17463884;-0.42500
17466662;-0.43000
17469440;-0.41500
17472217;-0.40000
17474995;-0.39500
17477773;-0.40000
17480551;-0.41000
17483328;-0.39500
17486106;-0.37500
17488884;-0.36500
17491662;-0.36500
17494440;-0.35000
17497217;-0.36000
17499995;-0.35500
17502773;-0.34500
17505551;-0.32000
17508328;-0.31000
17511106;-0.31500
17513884;-0.32000
17516662;-0.32500
17519440;-0.31000
17522217;-0.29500
17524995;-0.28000
17527773;-0.29000
17530551;-0.29500
17533328;-0.30000
17536106;-0.29000
17538884;-0.28000
17541662;-0.28500
17544440;-0.29000
17547217;-0.28000
17549995;-0.28500
17552773;-0.27500
17555551;-0.27500
17558328;-0.26500
17561106;-0.27000
17563884;-0.28000
17566662;-0.28500
17569440;-0.28500
17572217;-0.27500
17574995;-0.27500
17577773;-0.29000
17580551;-0.30500
17583328;-0.30000
17586106;-0.28000
17588884;-0.28500
17591662;-0.29000
17594440;-0.29000
17597217;-0.30000
17599995;-0.28500
17602773;-0.29000
17605551;-0.28000
17608328;-0.28500
17611106;-0.30000
17613884;-0.30500
17616662;-0.31000
17619440;-0.29500
17622217;-0.29500
17624995;-0.29500
17627773;-0.30500
17630551;-0.29500
17633328;-0.30000
17636106;-0.30500
17638884;-0.30000
17641662;-0.28000
17644440;-0.30000
17647217;-0.32500
17649995;-0.33000
17652773;-0.31000
17655551;-0.30500
17658328;-0.31000
17661106;-0.32000
17663884;-0.33000
17666662;-0.33500
17669439;-0.32500
17672217;-0.32000
17674995;-0.32000
17677773;-0.32500
17680551;-0.33000
17683328;-0.33500
17686106;-0.32000
17688884;-0.32000
17691662;-0.31000
17694439;-0.31500
17697217;-0.32000
17699995;-0.32500
17702773;-0.32000
17705551;-0.31000
17708328;-0.31500
17711106;-0.32500
17713884;-0.32000
17716662;-0.32000
17719439;-0.31000
17722217;-0.29500
17724995;-0.29500
17727773;-0.31500
17730551;-0.32000
17733328;-0.33000
17736106;-0.32500
17738884;-0.31000
17741662;-0.32000
17744439;-0.31000
17747217;-0.32000
17749995;-0.31500
17752773;-0.30500
17755551;-0.30000
17758328;-0.30000
17761106;-0.31000
17763884;-0.31500
17766662;-0.31000
17769439;-0.30000
17772217;-0.29500
17774995;-0.30000
17777773;-0.31500
17780551;-0.32500
17783328;-0.32000
17786106;-0.31500
17788884;-0.30000
17791662;-0.31000
17794439;-0.30500
17797217;-0.32500
17799995;-0.32500
17802773;-0.31000
17805551;-0.29000
17808328;-0.31000
17811106;-0.29000
17813884;-0.27000
17816662;-0.27000
17819439;-0.26000
17822217;-0.25000
17824995;-0.24500
17827773;-0.25500
17830551;-0.26000
17833328;-0.25000
17836106;-0.23000
17838884;-0.21500
17841662;-0.21000
17844439;-0.21500
17847217;-0.21500
17849995;-0.22500
17852773;-0.22500
17855551;-0.19000
17858328;-0.19000
17861106;-0.20500
17863884;-0.21000
17866662;-0.21000
17869439;-0.22000
17872217;-0.22000
17874995;-0.21500
17877773;-0.22000
17880551;-0.22500
17883328;-0.25000
17886106;-0.25000
17888884;-0.24000
17891662;-0.22500
17894439;-0.19500
17897217;-0.21000
17899995;-0.24000
17902773;-0.27000
17905551;-0.28000
17908328;-0.29500
17911106;-0.32000
17913884;-0.32500
17916662;-0.33000
17919439;-0.33000
17922217;-0.32000
17924995;-0.33000
17927773;-0.33500
17930551;-0.33500
17933328;-0.33000
17936106;-0.34000
17938884;-0.32000
17941662;-0.33000
17944439;-0.33000
17947217;-0.34500
17949995;-0.36000
17952773;-0.35500
17955551;-0.34000
17958328;-0.34000
17961106;-0.35000
17963884;-0.34000
17966662;-0.34500
17969439;-0.34500
17972217;-0.33500
17974995;-0.34500
17977773;-0.34000
17980551;-0.35500
17983328;-0.36500
17986106;-0.39000
17988884;-0.42500
17991662;-0.45000
17994439;-0.47500
17997217;-0.52000
17999995;-0.57000
18002773;-0.56000
18005551;-0.48000
18008328;-0.34500
18011106;-0.21500
18013884;-0.05500
18016662;0.18500
18019439;0.49500
18022217;0.75000
18024995;0.89500
18027773;0.93000
18030551;0.75000
18033328;0.36000
18036106;-0.06000
18038884;-0.35500
18041662;-0.46500
18044439;-0.48000
18047217;-0.44500
18049995;-0.41000
18052773;-0.38000
18055550;-0.37500
18058328;-0.37500
18061106;-0.38500
18063884;-0.38000
18066662;-0.37500
18069439;-0.37000
18072217;-0.36500
18074995;-0.36000
18077773;-0.37500
18080550;-0.39000
18083328;-0.40000
18086106;-0.38000
18088884;-0.37500
18091662;-0.37000
18094439;-0.37500
18097217;-0.38500
18099995;-0.39500
18102773;-0.39000
18105550;-0.37500
18108328;-0.37500
18111106;-0.36500
18113884;-0.38500
18116662;-0.39000
18119439;-0.39000
18122217;-0.38000
18124995;-0.38500
18127773;-0.41000
18130550;-0.40500
18133328;-0.40000
18136106;-0.40500
18138884;-0.40500
18141662;-0.40000
18144439;-0.39000
18147217;-0.39000
18149995;-0.39000
18152773;-0.38500
18155550;-0.38500
18158328;-0.38500
18161106;-0.38500
18163884;-0.39500
18166662;-0.39000
18169439;-0.38000
18172217;-0.38000
18174995;-0.38000
18177773;-0.40500
18180550;-0.40500
18183328;-0.41500
18186106;-0.41500
18188884;-0.41000
18191662;-0.40000
18194439;-0.38500
18197217;-0.38000
18199995;-0.38500
18202773;-0.37500
18205550;-0.37000
18208328;-0.37000
18211106;-0.39000
18213884;-0.39000
18216662;-0.39500
18219439;-0.39500
18222217;-0.38500
18224995;-0.38500
18227773;-0.41000
18230550;-0.41500
18233328;-0.41000
18236106;-0.41000
18238884;-0.40500
18241662;-0.39500
18244439;-0.40000
18247217;-0.42000
18249995;-0.43500
18252773;-0.42500
18255550;-0.41500
18258328;-0.43500
18261106;-0.42500
18263884;-0.43000
18266662;-0.43500
18269439;-0.44000
18272217;-0.42500
18274995;-0.42500
18277773;-0.42500
18280550;-0.43500
18283328;-0.43500
18286106;-0.42500
18288884;-0.41000
18291662;-0.41500
18294439;-0.40500
18297217;-0.41500
18299995;-0.42000
18302773;-0.41500
18305550;-0.39500
18308328;-0.39500
18311106;-0.40000
18313884;-0.40500
18316662;-0.40500
18319439;-0.37000
18322217;-0.34500
18324995;-0.32500
18327773;-0.33000
18330550;-0.32500
18333328;-0.33500
18336106;-0.31000
18338884;-0.28000
18341662;-0.27500
18344439;-0.28000
18347217;-0.31000
18349995;-0.30500
18352773;-0.30000
18355550;-0.29000
18358328;-0.28500
18361106;-0.30000
18363884;-0.30000
18366662;-0.31000
18369439;-0.30000
18372217;-0.29000
18374995;-0.29000
18377773;-0.29500
18380550;-0.30000
18383328;-0.28500
18386106;-0.28500
18388884;-0.27500
18391662;-0.27500
18394439;-0.28000
18397217;-0.29000
18399995;-0.31000
18402773;-0.30000
18405550;-0.29000
18408328;-0.29500
18411106;-0.29500
18413884;-0.30500
18416662;-0.31500
18419439;-0.32000
18422217;-0.31500
18424995;-0.31500
18427773;-0.31000
18430550;-0.32500
18433328;-0.31500
18436106;-0.30500
18438884;-0.29500
18441662;-0.30500
18444439;-0.31500
18447217;-0.32500
18449995;-0.32000
18452773;-0.31000
18455550;-0.29000
18458328;-0.30500
18461106;-0.32000
18463884;-0.34000
18466661;-0.34500
18469439;-0.34500
18472217;-0.33500
18474995;-0.31500
18477773;-0.33000
18480550;-0.34000
18483328;-0.34000
18486106;-0.32500
18488884;-0.32500
18491661;-0.32500
18494439;-0.34000
18497217;-0.34500
18499995;-0.35000
18502773;-0.34000
18505550;-0.33000
18508328;-0.33500
18511106;-0.32500
18513884;-0.32500
18516661;-0.33000
18519439;-0.31500
18522217;-0.32500
18524995;-0.31500
18527773;-0.33000
18530550;-0.32000
18533328;-0.32500
18536106;-0.32500
18538884;-0.31000
18541661;-0.32500
18544439;-0.35500
18547217;-0.35000
18549995;-0.34000
18552773;-0.33500
18555550;-0.33000
18558328;-0.33500
18561106;-0.34000
18563884;-0.35000
18566661;-0.35000
18569439;-0.32500
18572217;-0.32000
18574995;-0.33000
18577773;-0.35500
18580550;-0.35500
18583328;-0.35500
18586106;-0.34500
18588884;-0.32500
18591661;-0.32000
18594439;-0.31500
18597217;-0.33000
18599995;-0.32500
18602773;-0.30500
18605550;-0.29500
18608328;-0.28000
18611106;-0.27000
18613884;-0.29000
18616661;-0.29500
18619439;-0.27500
18622217;-0.26500
18624995;-0.24500
18627773;-0.24500
18630550;-0.24500
18633328;-0.25000
18636106;-0.22000
18638884;-0.21000
18641661;-0.21000
18644439;-0.21500
18647217;-0.23000
18649995;-0.24500
18652773;-0.25500
18655550;-0.26500
18658328;-0.25500
18661106;-0.26000
18663884;-0.28000
18666661;-0.28000
18669439;-0.27000
18672217;-0.23500
18674995;-0.23000
18677773;-0.24500
18680550;-0.28000
18683328;-0.31000
18686106;-0.32000
18688884;-0.33000
18691661;-0.34000
18694439;-0.35500
18697217;-0.37500
18699995;-0.37000
18702773;-0.35500
18705550;-0.35000
18708328;-0.33500
18711106;-0.35000
18713884;-0.37000
18716661;-0.39000
18719439;-0.38000
18722217;-0.37000
18724995;-0.36000
18727773;-0.36000
18730550;-0.36000
18733328;-0.37500
18736106;-0.36000
18738884;-0.35500
18741661;-0.35500
18744439;-0.36000
18747217;-0.36000
18749995;-0.37500
18752773;-0.37000
18755550;-0.37000
18758328;-0.36500
18761106;-0.37000
18763884;-0.37500
18766661;-0.39000
18769439;-0.40500
18772217;-0.44000
18774995;-0.46500
18777773;-0.48500
18780550;-0.51000
18783328;-0.54500
18786106;-0.55000
18788884;-0.47500
18791661;-0.34000
18794439;-0.16000
18797217;0.02500
18799995;0.27500
18802773;0.55000
18805550;0.79500
18808328;0.93500
18811106;0.92500
18813884;0.69000
18816661;0.26000
18819439;-0.16500
18822217;-0.40500
18824995;-0.50000
18827773;-0.50000
18830550;-0.47000
18833328;-0.43500
18836106;-0.40500
18838884;-0.40500
18841661;-0.39500
18844439;-0.40000
18847217;-0.40500
18849995;-0.41000
18852772;-0.40000
18855550;-0.41000
18858328;-0.40500
18861106;-0.40500
18863884;-0.42500
18866661;-0.42500
18869439;-0.41000
18872217;-0.41000
18874995;-0.40500
18877772;-0.41500
18880550;-0.41500
18883328;-0.43000
18886106;-0.41500
18888884;-0.41500
18891661;-0.40500
18894439;-0.41000
18897217;-0.42000
18899995;-0.42500
18902772;-0.41000
18905550;-0.40500
18908328;-0.40000
18911106;-0.41000
18913884;-0.42000
18916661;-0.43000
18919439;-0.42000
18922217;-0.41000
18924995;-0.42000
18927772;-0.41500
18930550;-0.42500
18933328;-0.44000
18936106;-0.43000
18938884;-0.43000
18941661;-0.42000
18944439;-0.43000
18947217;-0.43000
18949995;-0.44500
18952772;-0.43500
18955550;-0.42000
18958328;-0.42500
18961106;-0.43500
18963884;-0.43500
18966661;-0.44000
18969439;-0.44000
18972217;-0.43500
18974995;-0.41500
18977772;-0.43000
18980550;-0.44500
18983328;-0.45000
18986106;-0.43500
18988884;-0.43500
18991661;-0.43000
18994439;-0.42500
18997217;-0.44000
18999995;-0.45000
19002772;-0.42500
19005550;-0.43500
19008328;-0.43500
19011106;-0.43500
19013884;-0.45500
19016661;-0.45500
19019439;-0.46000
19022217;-0.45000
19024995;-0.46500
19027772;-0.47000
19030550;-0.48000
19033328;-0.48500
19036106;-0.49000
19038884;-0.47500
19041661;-0.48000
19044439;-0.49000
19047217;-0.50500
19049995;-0.50500
19052772;-0.50000
19055550;-0.49500
19058328;-0.50500
19061106;-0.50500
19063884;-0.51000
19066661;-0.52000
19069439;-0.50500
19072217;-0.49500
19074995;-0.49000
19077772;-0.48500
19080550;-0.48500
19083328;-0.47000
19086106;-0.45500
19088884;-0.43500
19091661;-0.41500
19094439;-0.41000
19097217;-0.41000
19099995;-0.40000
19102772;-0.38000
19105550;-0.36500
19108328;-0.36000
19111106;-0.35500
19113884;-0.35500
19116661;-0.36500
19119439;-0.35000
19122217;-0.32500
19124995;-0.32500
19127772;-0.32500
19130550;-0.32500
19133328;-0.33000
19136106;-0.32000
19138884;-0.31500
19141661;-0.30500
19144439;-0.32000
19147217;-0.32500
19149995;-0.33500
19152772;-0.32500
19155550;-0.32500
19158328;-0.32000
19161106;-0.33000
