time_ms;ecg_value
0;-0.15500
2778;-0.16500
5556;-0.17500
8333;-0.17500
11111;-0.16500
13889;-0.15000
16667;-0.16500
19444;-0.17500
22222;-0.19500
25000;-0.18500
27778;-0.18500
30556;-0.18000
33333;-0.18500
36111;-0.18500
38889;-0.20500
41667;-0.20500
44444;-0.20000
47222;-0.19500
50000;-0.19500
52778;-0.19500
55556;-0.20500
58333;-0.20500
61111;-0.20000
63889;-0.19000
66667;-0.20500
69444;-0.20000
72222;-0.21000
75000;-0.20500
77778;-0.21000
80556;-0.20500
83333;-0.20000
86111;-0.20500
88889;-0.21500
91667;-0.22000
94444;-0.21000
97222;-0.20500
100000;-0.20500
102778;-0.21500
105556;-0.23500
108333;-0.22500
111111;-0.22000
113889;-0.22000
116667;-0.22500
119444;-0.22500
122222;-0.24000
125000;-0.24500
127778;-0.23000
130556;-0.22500
133333;-0.21500
136111;-0.23500
138889;-0.22500
141667;-0.23000
144444;-0.22500
147222;-0.21500
150000;-0.22500
152778;-0.22000
155556;-0.23000
158333;-0.23000
161111;-0.23000
163889;-0.22000
166667;-0.22000
169444;-0.22500
172222;-0.24500
175000;-0.23000
177778;-0.24000
180556;-0.22000
183333;-0.22000
186111;-0.22000
188889;-0.23000
191667;-0.23000
194444;-0.20500
197222;-0.17000
200000;-0.17000
202778;-0.16500
205555;-0.17000
208333;-0.16500
211111;-0.15500
213889;-0.14500
216667;-0.15000
219444;-0.13500
222222;-0.13500
225000;-0.12500
227778;-0.10500
230555;-0.10000
233333;-0.09500
236111;-0.10500
238889;-0.12500
241667;-0.13500
244444;-0.13000
247222;-0.13500
250000;-0.13500
252778;-0.13500
255555;-0.14000
258333;-0.16000
261111;-0.15000
263889;-0.13500
266667;-0.12500
269444;-0.11000
272222;-0.11000
275000;-0.14000
277778;-0.15500
280555;-0.17000
283333;-0.17000
286111;-0.20500
288889;-0.22000
291667;-0.22500
294444;-0.22500
297222;-0.22000
300000;-0.23500
302778;-0.25000
305555;-0.24500
308333;-0.25000
311111;-0.24500
313889;-0.24000
316667;-0.24000
319444;-0.24500
322222;-0.26000
325000;-0.27000
327778;-0.26500
330555;-0.25500
333333;-0.26000
336111;-0.25500
338889;-0.27000
341667;-0.26500
344444;-0.26500
347222;-0.26000
350000;-0.26000
352778;-0.26500
355555;-0.28500
358333;-0.28000
361111;-0.26500
363889;-0.26000
366667;-0.27000
369444;-0.30500
372222;-0.35000
375000;-0.37500
377778;-0.38500
380555;-0.40000
383333;-0.44000
386111;-0.47000
388889;-0.42500
391667;-0.32000
394444;-0.18000
397222;-0.04000
400000;0.14500
402778;0.38000
405555;0.65500
408333;0.86500
411111;0.98500
413889;0.98000
416667;0.78000
419444;0.42500
422222;0.02000
425000;-0.27000
427778;-0.41000
430555;-0.41000
433333;-0.37500
436111;-0.32000
438889;-0.32000
441667;-0.30000
444444;-0.29000
447222;-0.28000
450000;-0.29000
452778;-0.28500
455555;-0.31000
458333;-0.31500
461111;-0.29000
463889;-0.27500
466667;-0.28000
469444;-0.29000
472222;-0.31000
475000;-0.29500
477778;-0.28500
480555;-0.28000
483333;-0.29500
486111;-0.30500
488889;-0.31500
491667;-0.31500
494444;-0.31000
497222;-0.30000
500000;-0.29000
502778;-0.29500
505555;-0.30500
508333;-0.30000
511111;-0.28500
513889;-0.28000
516667;-0.28500
519444;-0.30000
522222;-0.30000
525000;-0.30000
527778;-0.29000
530555;-0.28500
533333;-0.29000
536111;-0.29500
538889;-0.31500
541667;-0.30500
544444;-0.31000
547222;-0.28000
550000;-0.29000
552778;-0.30000
555555;-0.31000
558333;-0.30500
561111;-0.30500
563889;-0.28500
566667;-0.29000
569444;-0.30500
572222;-0.30500
575000;-0.30000
577778;-0.29000
580555;-0.28000
583333;-0.28000
586111;-0.29000
588889;-0.28500
591667;-0.29500
594444;-0.29000
597222;-0.28000
600000;-0.28000
602778;-0.30000
605555;-0.29000
608333;-0.29000
611111;-0.28500
613889;-0.27000
616666;-0.28500
619444;-0.29500
622222;-0.29500
625000;-0.31000
627778;-0.29000
630555;-0.27000
633333;-0.29000
636111;-0.29500
638889;-0.31000
641666;-0.30500
644444;-0.29000
647222;-0.29000
650000;-0.29000
652778;-0.30000
655555;-0.31000
658333;-0.31000
661111;-0.31000
663889;-0.29000
666666;-0.29000
669444;-0.30500
672222;-0.31000
675000;-0.30000
677778;-0.29500
680555;-0.27500
683333;-0.30000
686111;-0.30500
688889;-0.31000
691666;-0.31000
694444;-0.31500
697222;-0.30500
700000;-0.31000
702778;-0.30500
705555;-0.31500
708333;-0.31000
711111;-0.28500
713889;-0.27500
716666;-0.27000
719444;-0.27000
722222;-0.26500
725000;-0.26000
727778;-0.25000
730555;-0.23500
733333;-0.22500
736111;-0.23500
738889;-0.23500
741666;-0.22500
744444;-0.22000
747222;-0.20000
750000;-0.21000
752778;-0.20000
755555;-0.23000
758333;-0.22000
761111;-0.20500
763889;-0.19500
766666;-0.20000
769444;-0.20500
772222;-0.22000
775000;-0.22000
777778;-0.21500
780555;-0.19500
783333;-0.19500
786111;-0.20500
788889;-0.22000
791666;-0.23000
794444;-0.21500
797222;-0.21000
800000;-0.21500
802778;-0.22000
805555;-0.23000
808333;-0.23500
811111;-0.24000
813889;-0.22500
816666;-0.22500
819444;-0.23500
822222;-0.24500
825000;-0.24500
827778;-0.23000
830555;-0.21500
833333;-0.24000
836111;-0.24000
838889;-0.24000
841666;-0.23500
844444;-0.24000
847222;-0.22000
850000;-0.23000
852778;-0.24500
855555;-0.25000
858333;-0.26000
861111;-0.24500
863889;-0.23500
866666;-0.25000
869444;-0.25000
872222;-0.27500
875000;-0.26500
877778;-0.25500
880555;-0.25000
883333;-0.26500
886111;-0.26000
888889;-0.28500
891666;-0.28500
894444;-0.28000
897222;-0.26500
900000;-0.26000
902778;-0.26500
905555;-0.27000
908333;-0.27000
911111;-0.26500
913889;-0.24500
916666;-0.25000
919444;-0.27500
922222;-0.28000
925000;-0.28000
927778;-0.28000
930555;-0.27000
933333;-0.27000
936111;-0.28500
938889;-0.29000
941666;-0.30000
944444;-0.29000
947222;-0.27500
950000;-0.28000
952778;-0.28500
955555;-0.30000
958333;-0.30500
961111;-0.28500
963889;-0.27500
966666;-0.27000
969444;-0.27500
972222;-0.26500
975000;-0.27500
977778;-0.28000
980555;-0.26500
983333;-0.27000
986111;-0.25000
988889;-0.25500
991666;-0.24500
994444;-0.22000
997222;-0.21000
1000000;-0.21500
1002777;-0.22000
1005555;-0.22500
1008333;-0.20500
1011111;-0.18500
1013889;-0.16000
1016666;-0.17000
1019444;-0.16500
1022222;-0.18000
1025000;-0.17500
1027777;-0.18500
1030555;-0.18000
1033333;-0.17000
1036111;-0.18000
1038889;-0.19000
1041666;-0.19000
1044444;-0.19000
1047222;-0.16500
1050000;-0.18500
1052777;-0.21500
1055555;-0.22000
1058333;-0.21500
1061111;-0.19000
1063889;-0.16500
1066666;-0.15000
1069444;-0.13000
1072222;-0.14000
1075000;-0.17500
1077777;-0.20000
1080555;-0.19000
1083333;-0.22000
1086111;-0.24000
1088889;-0.26500
1091666;-0.28500
1094444;-0.27500
1097222;-0.28000
1100000;-0.29500
1102777;-0.30000
1105555;-0.31000
1108333;-0.31500
1111111;-0.30500
1113889;-0.29500
1116666;-0.30000
1119444;-0.30000
1122222;-0.31500
1125000;-0.33500
1127777;-0.31500
1130555;-0.30500
1133333;-0.31500
1136111;-0.32000
1138889;-0.32500
1141666;-0.32500
1144444;-0.31000
1147222;-0.29500
1150000;-0.32000
1152777;-0.32000
1155555;-0.32500
1158333;-0.33000
1161111;-0.33500
1163889;-0.32500
1166666;-0.35500
1169444;-0.39000
1172222;-0.43500
1175000;-0.45000
1177777;-0.46500
1180555;-0.49500
1183333;-0.51500
1186111;-0.51500
1188889;-0.44500
1191666;-0.33000
1194444;-0.20000
1197222;-0.05000
1200000;0.15500
1202777;0.41500
1205555;0.64500
1208333;0.79500
1211111;0.87000
1213889;0.84500
1216666;0.62000
1219444;0.29000
1222222;-0.05000
1225000;-0.32000
1227777;-0.45000
1230555;-0.48000
1233333;-0.47000
1236111;-0.44000
1238889;-0.41500
1241666;-0.39000
1244444;-0.37000
1247222;-0.35500
1250000;-0.36000
1252777;-0.36500
1255555;-0.36000
1258333;-0.36500
1261111;-0.35000
1263889;-0.34500
1266666;-0.35000
1269444;-0.36000
1272222;-0.36000
1275000;-0.36000
1277777;-0.34000
1280555;-0.33500
1283333;-0.33500
1286111;-0.35500
1288889;-0.36500
1291666;-0.36000
1294444;-0.37000
1297222;-0.36000
1300000;-0.35500
1302777;-0.36000
1305555;-0.36500
1308333;-0.36500
1311111;-0.35500
1313889;-0.33500
1316666;-0.34000
1319444;-0.35500
1322222;-0.35500
1325000;-0.36000
1327777;-0.35000
1330555;-0.35000
1333333;-0.36000
1336111;-0.36000
1338889;-0.37500
1341666;-0.38000
1344444;-0.37000
1347222;-0.35000
1350000;-0.34000
1352777;-0.34500
1355555;-0.34000
1358333;-0.35000
1361111;-0.34000
1363889;-0.33500
1366666;-0.33500
1369444;-0.34500
1372222;-0.35000
1375000;-0.35500
1377777;-0.36000
1380555;-0.34500
1383333;-0.36000
1386111;-0.36500
1388888;-0.38000
1391666;-0.37500
1394444;-0.36000
1397222;-0.35000
1400000;-0.35000
1402777;-0.37000
1405555;-0.38000
1408333;-0.38000
1411111;-0.36500
1413888;-0.34000
1416666;-0.34500
1419444;-0.35000
1422222;-0.35000
1425000;-0.35500
1427777;-0.35500
1430555;-0.35000
1433333;-0.36000
1436111;-0.36000
1438888;-0.37500
1441666;-0.37000
1444444;-0.36000
1447222;-0.35000
1450000;-0.35000
1452777;-0.37000
1455555;-0.37000
1458333;-0.37000
1461111;-0.36000
1463888;-0.34500
1466666;-0.35000
1469444;-0.36000
1472222;-0.35500
1475000;-0.37000
1477777;-0.36500
1480555;-0.35000
1483333;-0.36000
1486111;-0.36000
1488888;-0.38000
1491666;-0.37500
1494444;-0.38500
1497222;-0.38000
1500000;-0.37000
1502777;-0.36000
1505555;-0.37000
1508333;-0.36000
1511111;-0.36000
1513888;-0.33500
1516666;-0.34500
1519444;-0.33500
1522222;-0.33500
1525000;-0.34000
1527777;-0.32000
1530555;-0.31000
1533333;-0.31000
1536111;-0.30000
1538888;-0.30000
1541666;-0.30500
1544444;-0.29500
1547222;-0.28500
1550000;-0.27000
1552777;-0.28000
1555555;-0.27000
1558333;-0.28000
1561111;-0.27000
1563888;-0.26000
1566666;-0.26500
1569444;-0.26500
1572222;-0.27000
1575000;-0.27500
1577777;-0.27500
1580555;-0.27500
1583333;-0.27000
1586111;-0.28000
1588888;-0.28500
1591666;-0.29000
1594444;-0.28500
1597222;-0.27500
1600000;-0.28000
1602777;-0.28500
1605555;-0.30000
1608333;-0.29500
1611111;-0.28500
1613888;-0.28000
1616666;-0.28500
1619444;-0.28500
1622222;-0.28000
1625000;-0.28000
1627777;-0.27000
1630555;-0.27000
1633333;-0.28000
1636111;-0.29500
1638888;-0.31000
1641666;-0.31000
1644444;-0.29000
1647222;-0.27500
1650000;-0.29500
1652777;-0.30500
1655555;-0.30500
1658333;-0.30500
1661111;-0.30000
1663888;-0.30500
1666666;-0.29500
1669444;-0.31000
1672222;-0.32000
1675000;-0.32500
1677777;-0.31000
1680555;-0.30500
1683333;-0.31000
1686111;-0.31000
1688888;-0.32500
1691666;-0.33500
1694444;-0.32500
1697222;-0.31000
1700000;-0.31500
1702777;-0.31500
1705555;-0.33000
1708333;-0.33000
1711111;-0.32000
1713888;-0.30000
1716666;-0.31000
1719444;-0.32000
1722222;-0.34000
1725000;-0.34000
1727777;-0.32500
1730555;-0.30000
1733333;-0.32000
1736111;-0.31000
1738888;-0.32500
1741666;-0.33500
1744444;-0.32500
1747222;-0.32500
1750000;-0.33000
1752777;-0.32500
1755555;-0.33500
1758333;-0.34000
1761111;-0.32000
1763888;-0.31000
1766666;-0.32000
1769444;-0.31000
1772222;-0.30500
1775000;-0.29500
1777777;-0.26500
1780555;-0.26000
1783333;-0.24500
1786111;-0.24500
1788888;-0.25500
1791666;-0.25500
1794444;-0.23500
1797222;-0.22000
1799999;-0.21000
1802777;-0.20500
1805555;-0.20000
1808333;-0.20500
1811111;-0.19500
1813888;-0.18500
1816666;-0.20500
1819444;-0.21500
1822222;-0.22000
1824999;-0.24000
1827777;-0.22500
1830555;-0.22000
1833333;-0.21000
1836111;-0.22500
1838888;-0.22000
1841666;-0.22500
1844444;-0.22500
1847222;-0.22500
1849999;-0.23500
1852777;-0.22000
1855555;-0.20000
1858333;-0.17000
1861111;-0.18000
1863888;-0.20000
1866666;-0.25000
1869444;-0.27500
1872222;-0.29500
1874999;-0.30500
1877777;-0.30500
1880555;-0.30000
1883333;-0.31000
1886111;-0.33000
1888888;-0.34000
1891666;-0.34500
1894444;-0.32500
1897222;-0.32500
1899999;-0.32500
1902777;-0.33000
1905555;-0.33500
1908333;-0.35000
1911111;-0.35000
1913888;-0.35000
1916666;-0.34500
1919444;-0.34500
1922222;-0.34500
1924999;-0.35000
1927777;-0.33500
1930555;-0.33000
1933333;-0.33000
1936111;-0.33000
1938888;-0.35500
1941666;-0.36000
1944444;-0.36000
1947222;-0.36000
1949999;-0.39000
1952777;-0.42500
1955555;-0.47000
1958333;-0.48500
1961111;-0.50500
1963888;-0.54500
1966666;-0.56000
1969444;-0.53500
1972222;-0.47000
1974999;-0.38000
1977777;-0.28000
1980555;-0.18500
1983333;-0.07500
1986111;0.04500
1988888;0.21500
1991666;0.40500
1994444;0.59500
1997222;0.73000
1999999;0.82500
2002777;0.85500
2005555;0.80500
2008333;0.55500
2011111;0.21500
2013888;-0.12000
2016666;-0.36000
2019444;-0.47000
2022222;-0.48000
2024999;-0.45000
2027777;-0.39500
2030555;-0.38000
2033333;-0.38500
2036111;-0.39000
2038888;-0.38000
2041666;-0.38000
2044444;-0.37500
2047222;-0.35000
2049999;-0.36500
2052777;-0.37500
2055555;-0.38000
2058333;-0.38000
2061111;-0.35500
2063888;-0.36000
2066666;-0.36500
2069444;-0.37000
2072222;-0.38000
2074999;-0.38500
2077777;-0.37500
2080555;-0.38000
2083333;-0.37500
2086111;-0.38500
2088888;-0.39000
2091666;-0.40000
2094444;-0.39000
2097222;-0.37000
2099999;-0.37500
2102777;-0.38000
2105555;-0.39000
2108333;-0.40000
2111111;-0.38000
2113888;-0.37000
2116666;-0.37500
2119444;-0.39500
2122222;-0.39500
2124999;-0.39500
2127777;-0.38500
2130555;-0.36500
2133333;-0.36500
2136111;-0.36500
2138888;-0.37000
2141666;-0.38000
2144444;-0.36000
2147222;-0.36000
2149999;-0.35500
2152777;-0.37000
2155555;-0.36500
2158333;-0.38000
2161111;-0.36500
2163888;-0.36500
2166666;-0.36000
2169444;-0.36500
2172222;-0.37500
2174999;-0.38000
2177777;-0.38000
2180555;-0.36000
2183333;-0.36500
2186110;-0.38000
2188888;-0.37500
2191666;-0.37000
2194444;-0.36500
2197222;-0.37000
2199999;-0.36500
2202777;-0.37500
2205555;-0.37500
2208333;-0.38500
2211110;-0.37000
2213888;-0.35500
2216666;-0.37500
2219444;-0.38500
2222222;-0.37500
2224999;-0.37000
2227777;-0.35500
2230555;-0.35500
2233333;-0.36000
2236110;-0.36000
2238888;-0.36500
2241666;-0.38000
2244444;-0.37000
2247222;-0.36500
2249999;-0.36000
2252777;-0.38000
2255555;-0.38500
2258333;-0.39000
2261110;-0.37500
2263888;-0.36500
2266666;-0.37500
2269444;-0.37500
2272222;-0.37500
2274999;-0.38000
2277777;-0.37000
2280555;-0.36000
2283333;-0.35500
2286110;-0.36000
2288888;-0.37500
2291666;-0.37000
2294444;-0.36000
2297222;-0.34500
2299999;-0.35000
2302777;-0.33500
2305555;-0.35000
2308333;-0.33500
2311110;-0.31500
2313888;-0.30000
2316666;-0.31000
2319444;-0.30500
2322222;-0.31000
2324999;-0.29500
2327777;-0.28000
2330555;-0.28000
2333333;-0.26000
2336110;-0.28000
2338888;-0.29500
2341666;-0.28500
2344444;-0.28000
2347222;-0.26500
2349999;-0.26000
2352777;-0.27500
2355555;-0.27000
2358333;-0.28500
2361110;-0.28000
2363888;-0.27000
2366666;-0.27500
2369444;-0.27500
2372222;-0.28000
2374999;-0.28500
2377777;-0.27500
2380555;-0.26000
2383333;-0.27000
2386110;-0.27000
2388888;-0.28000
2391666;-0.28500
2394444;-0.28000
2397222;-0.27000
2399999;-0.26500
2402777;-0.28000
2405555;-0.29000
2408333;-0.31000
2411110;-0.29500
2413888;-0.28500
2416666;-0.29000
2419444;-0.29000
2422222;-0.30500
2424999;-0.31000
2427777;-0.29500
2430555;-0.28500
2433333;-0.29500
2436110;-0.29500
2438888;-0.31000
2441666;-0.32000
2444444;-0.30500
2447222;-0.28500
2449999;-0.29500
2452777;-0.30500
2455555;-0.31000
2458333;-0.31500
2461110;-0.30500
2463888;-0.30000
2466666;-0.29500
2469444;-0.31000
2472222;-0.31500
2474999;-0.31500
2477777;-0.31000
2480555;-0.30500
2483333;-0.31000
2486110;-0.31500
2488888;-0.32500
2491666;-0.34000
2494444;-0.33000
2497222;-0.31500
2499999;-0.32000
2502777;-0.32500
2505555;-0.33500
2508333;-0.33000
2511110;-0.31500
2513888;-0.32000
2516666;-0.32000
2519444;-0.33000
2522222;-0.33500
2524999;-0.34500
2527777;-0.32500
2530555;-0.31500
2533333;-0.32000
2536110;-0.32500
2538888;-0.32000
2541666;-0.32000
2544444;-0.30500
2547222;-0.30500
2549999;-0.30000
2552777;-0.31000
2555555;-0.31000
2558333;-0.30500
2561110;-0.28500
2563888;-0.28000
2566666;-0.26500
2569444;-0.26000
2572222;-0.26500
2574999;-0.25500
2577777;-0.24500
2580555;-0.23000
2583333;-0.23000
2586110;-0.22500
2588888;-0.23000
2591666;-0.23000
2594444;-0.20500
2597221;-0.18500
2599999;-0.19000
2602777;-0.20500
2605555;-0.20500
2608333;-0.22500
2611110;-0.22000
2613888;-0.20500
2616666;-0.22000
2619444;-0.22000
2622221;-0.21500
2624999;-0.23500
2627777;-0.22500
2630555;-0.22500
2633333;-0.19000
2636110;-0.18500
2638888;-0.19500
2641666;-0.23500
2644444;-0.24500
2647221;-0.25000
2649999;-0.26500
2652777;-0.31000
2655555;-0.30500
2658333;-0.32500
2661110;-0.31500
2663888;-0.31500
2666666;-0.32000
2669444;-0.32500
2672221;-0.33000
2674999;-0.34500
2677777;-0.32500
2680555;-0.31500
2683333;-0.32000
2686110;-0.32000
2688888;-0.33500
2691666;-0.34000
2694444;-0.34000
2697221;-0.32000
2699999;-0.32500
2702777;-0.32500
2705555;-0.33500
2708333;-0.34500
2711110;-0.34000
2713888;-0.32500
2716666;-0.33500
2719444;-0.34500
2722221;-0.34000
2724999;-0.35000
2727777;-0.34500
2730555;-0.34500
2733333;-0.37500
2736110;-0.40500
2738888;-0.45000
2741666;-0.45500
2744444;-0.46000
2747221;-0.48000
2749999;-0.53000
2752777;-0.56500
2755555;-0.51000
2758333;-0.42000
2761110;-0.29000
2763888;-0.16500
2766666;0.01000
2769444;0.25000
2772221;0.52000
2774999;0.71000
2777777;0.84000
2780555;0.83000
2783333;0.62000
2786110;0.27500
2788888;-0.09000
2791666;-0.37000
2794444;-0.48000
2797221;-0.45500
2799999;-0.41000
2802777;-0.38000
2805555;-0.36500
2808333;-0.38000
2811110;-0.37000
2813888;-0.35000
2816666;-0.35000
2819444;-0.35500
2822221;-0.37000
2824999;-0.37500
2827777;-0.36500
2830555;-0.35500
2833333;-0.36000
2836110;-0.35500
2838888;-0.35500
2841666;-0.36000
2844444;-0.35000
2847221;-0.33500
2849999;-0.33000
2852777;-0.35500
2855555;-0.34500
2858333;-0.35500
2861110;-0.32500
2863888;-0.33000
2866666;-0.33500
2869444;-0.34500
2872221;-0.35500
2874999;-0.35500
2877777;-0.34500
2880555;-0.34000
2883333;-0.33000
2886110;-0.35000
2888888;-0.35500
2891666;-0.36000
2894444;-0.34500
2897221;-0.34000
2899999;-0.33000
2902777;-0.34000
2905555;-0.35500
2908333;-0.35000
2911110;-0.34500
2913888;-0.33000
2916666;-0.34500
2919444;-0.34000
2922221;-0.34500
2924999;-0.34500
2927777;-0.32500
2930555;-0.32500
2933333;-0.32000
2936110;-0.32500
2938888;-0.32500
2941666;-0.33000
2944444;-0.32500
2947221;-0.31000
2949999;-0.32500
2952777;-0.33500
2955555;-0.34000
2958333;-0.35000
2961110;-0.34000
2963888;-0.33000
2966666;-0.32500
2969444;-0.32500
2972221;-0.33500
2974999;-0.34500
2977777;-0.34000
2980555;-0.33000
2983332;-0.33500
2986110;-0.34000
2988888;-0.33500
2991666;-0.34500
2994444;-0.32500
2997221;-0.32000
2999999;-0.33000
3002777;-0.32500
3005555;-0.33500
3008332;-0.33000
3011110;-0.33000
3013888;-0.32000
3016666;-0.31500
3019444;-0.32500
3022221;-0.33000
3024999;-0.34500
3027777;-0.33500
3030555;-0.32000
3033332;-0.32500
3036110;-0.34000
3038888;-0.34500
3041666;-0.35000
3044444;-0.34500
3047221;-0.33500
3049999;-0.33000
3052777;-0.32000
3055555;-0.32500
3058332;-0.32000
3061110;-0.31000
3063888;-0.28000
3066666;-0.28500
3069444;-0.28500
3072221;-0.28000
3074999;-0.28500
3077777;-0.26500
3080555;-0.24000
3083332;-0.24500
3086110;-0.24000
3088888;-0.24000
3091666;-0.23000
3094444;-0.22500
3097221;-0.21000
3099999;-0.20500
3102777;-0.20500
3105555;-0.21000
3108332;-0.21000
3111110;-0.21500
3113888;-0.20000
3116666;-0.21500
3119444;-0.22500
3122221;-0.23500
3124999;-0.24500
3127777;-0.24000
3130555;-0.21000
3133332;-0.21500
3136110;-0.21000
3138888;-0.22500
3141666;-0.23000
3144444;-0.23500
3147221;-0.22500
3149999;-0.22500
3152777;-0.24500
3155555;-0.25500
3158332;-0.25500
3161110;-0.25000
3163888;-0.23000
3166666;-0.23000
3169444;-0.23500
3172221;-0.24000
3174999;-0.25000
3177777;-0.23500
3180555;-0.24500
3183332;-0.23500
3186110;-0.24000
3188888;-0.25000
3191666;-0.27500
3194444;-0.26500
3197221;-0.25500
3199999;-0.25000
3202777;-0.25500
3205555;-0.26500
3208332;-0.27000
3211110;-0.27500
3213888;-0.27000
3216666;-0.27500
3219444;-0.29000
3222221;-0.29000
3224999;-0.28000
3227777;-0.27000
3230555;-0.26000
3233332;-0.26500
3236110;-0.27000
3238888;-0.29000
3241666;-0.28500
3244444;-0.27500
3247221;-0.26500
3249999;-0.27500
3252777;-0.28500
3255555;-0.28500
3258332;-0.30000
3261110;-0.27500
3263888;-0.27500
3266666;-0.26500
3269444;-0.28000
3272221;-0.28500
3274999;-0.29500
3277777;-0.28500
3280555;-0.27000
3283332;-0.27500
3286110;-0.28500
3288888;-0.29500
3291666;-0.28000
3294444;-0.27500
3297221;-0.27000
3299999;-0.26500
3302777;-0.28000
3305555;-0.29500
3308332;-0.30000
3311110;-0.29000
3313888;-0.26500
3316666;-0.25500
3319444;-0.25000
3322221;-0.24000
3324999;-0.22500
3327777;-0.22000
3330555;-0.19500
3333332;-0.19500
3336110;-0.20000
3338888;-0.20500
3341666;-0.20000
3344444;-0.17000
3347221;-0.16500
3349999;-0.16000
3352777;-0.16500
3355555;-0.17500
3358332;-0.18500
3361110;-0.17500
3363888;-0.18000
3366666;-0.19500
3369444;-0.20000
3372221;-0.19500
3374999;-0.20500
3377777;-0.20000
3380555;-0.20500
3383332;-0.19500
3386110;-0.18500
3388888;-0.16000
3391666;-0.16500
3394443;-0.19500
3397221;-0.21000
3399999;-0.22000
3402777;-0.25000
3405555;-0.28500
3408332;-0.31000
3411110;-0.28500
3413888;-0.28500
3416666;-0.29500
3419443;-0.29500
3422221;-0.31000
3424999;-0.31500
3427777;-0.31500
3430555;-0.30500
3433332;-0.30500
3436110;-0.30500
3438888;-0.30000
3441666;-0.30500
3444443;-0.29500
3447221;-0.29500
3449999;-0.31500
3452777;-0.33000
3455555;-0.32500
3458332;-0.31000
3461110;-0.29500
3463888;-0.29000
3466666;-0.29500
3469443;-0.30500
3472221;-0.32000
3474999;-0.32500
3477777;-0.33500
3480555;-0.36500
3483332;-0.40500
3486110;-0.43500
3488888;-0.44000
3491666;-0.47000
3494443;-0.51000
3497221;-0.52000
3499999;-0.48500
3502777;-0.37500
3505555;-0.22500
3508332;-0.05500
3511110;0.20000
3513888;0.51500
3516666;0.77500
3519443;0.90500
3522221;0.86500
3524999;0.60500
3527777;0.22000
3530555;-0.15500
3533332;-0.39000
3536110;-0.47000
3538888;-0.45500
3541666;-0.40500
3544443;-0.36000
3547221;-0.36000
3549999;-0.37000
3552777;-0.37500
3555555;-0.36500
3558332;-0.36500
3561110;-0.35500
3563888;-0.35500
3566666;-0.34500
3569443;-0.36000
3572221;-0.36000
3574999;-0.36500
3577777;-0.34500
3580555;-0.33500
3583332;-0.34000
3586110;-0.35500
3588888;-0.36500
3591666;-0.37000
3594443;-0.36500
3597221;-0.34000
3599999;-0.34500
3602777;-0.35500
3605555;-0.36000
3608332;-0.36500
3611110;-0.35000
3613888;-0.34500
3616666;-0.35500
3619443;-0.35000
3622221;-0.37000
3624999;-0.37500
3627777;-0.36000
3630555;-0.36000
3633332;-0.35000
3636110;-0.36000
3638888;-0.36500
3641666;-0.36000
3644443;-0.34500
3647221;-0.35500
3649999;-0.35500
3652777;-0.36500
3655555;-0.38000
3658332;-0.38500
3661110;-0.37000
3663888;-0.36500
3666666;-0.35500
3669443;-0.36000
3672221;-0.36000
3674999;-0.36500
3677777;-0.35000
3680555;-0.34500
3683332;-0.35500
3686110;-0.36000
3688888;-0.38000
3691666;-0.37000
3694443;-0.36000
3697221;-0.35000
3699999;-0.35500
3702777;-0.34500
3705555;-0.35000
3708332;-0.35500
3711110;-0.36000
3713888;-0.34500
3716666;-0.35500
3719443;-0.36000
3722221;-0.37500
3724999;-0.36500
3727777;-0.36000
3730555;-0.34500
3733332;-0.34500
3736110;-0.35000
3738888;-0.36000
3741666;-0.37500
3744443;-0.36000
3747221;-0.35500
3749999;-0.36500
3752777;-0.37500
3755555;-0.39000
3758332;-0.39500
3761110;-0.38000
3763888;-0.37500
3766666;-0.38500
3769443;-0.38500
3772221;-0.39500
3774999;-0.38000
3777777;-0.37500
3780554;-0.37000
3783332;-0.37000
3786110;-0.39000
3788888;-0.39000
3791666;-0.39500
3794443;-0.38500
3797221;-0.36500
3799999;-0.35500
3802777;-0.35500
3805554;-0.35000
3808332;-0.34500
3811110;-0.32500
3813888;-0.30000
3816666;-0.30000
3819443;-0.30000
3822221;-0.28500
3824999;-0.28000
3827777;-0.27000
3830554;-0.26000
3833332;-0.25000
3836110;-0.24500
3838888;-0.26000
3841666;-0.26000
3844443;-0.24500
3847221;-0.24000
3849999;-0.24000
3852777;-0.23000
3855554;-0.24500
3858332;-0.24500
3861110;-0.23000
3863888;-0.22500
3866666;-0.24000
3869443;-0.24000
3872221;-0.25000
3874999;-0.26500
3877777;-0.25500
3880554;-0.25000
3883332;-0.24500
3886110;-0.26000
3888888;-0.26000
3891666;-0.27000
3894443;-0.26000
3897221;-0.25000
3899999;-0.25000
3902777;-0.26000
3905554;-0.26500
3908332;-0.26500
3911110;-0.27500
3913888;-0.27000
3916666;-0.27000
3919443;-0.26000
3922221;-0.27000
3924999;-0.28000
3927777;-0.26000
3930554;-0.25000
3933332;-0.25500
3936110;-0.25500
3938888;-0.27000
3941666;-0.27500
3944443;-0.27000
3947221;-0.26000
3949999;-0.26000
3952777;-0.27500
3955554;-0.28500
3958332;-0.29000
3961110;-0.27500
3963888;-0.26500
3966666;-0.26500
3969443;-0.27500
3972221;-0.28000
3974999;-0.28500
3977777;-0.28500
3980554;-0.28000
3983332;-0.27500
3986110;-0.28500
3988888;-0.29000
3991666;-0.29500
3994443;-0.28000
3997221;-0.27000
3999999;-0.28000
4002777;-0.29000
4005554;-0.28000
4008332;-0.28000
4011110;-0.28000
4013888;-0.27500
4016666;-0.27500
4019443;-0.28500
4022221;-0.27500
4024999;-0.27500
4027777;-0.27500
4030554;-0.27000
4033332;-0.27500
4036110;-0.27000
4038888;-0.29500
4041666;-0.29000
4044443;-0.27500
4047221;-0.26500
4049999;-0.25500
4052777;-0.26500
4055554;-0.26500
4058332;-0.26000
4061110;-0.24000
4063888;-0.22000
4066666;-0.20500
4069443;-0.20500
4072221;-0.22500
4074999;-0.22000
4077777;-0.19000
4080554;-0.16500
4083332;-0.15000
4086110;-0.15500
4088888;-0.16000
4091666;-0.17500
4094443;-0.15500
4097221;-0.14500
4099999;-0.16000
4102777;-0.17000
4105554;-0.18000
4108332;-0.19000
4111110;-0.18000
4113888;-0.17000
4116666;-0.18000
4119443;-0.20000
4122221;-0.20000
4124999;-0.17500
4127777;-0.15000
4130554;-0.14000
4133332;-0.17000
4136110;-0.20500
4138888;-0.23000
4141666;-0.26000
4144443;-0.26500
4147221;-0.25500
4149999;-0.26000
4152777;-0.27500
4155554;-0.29000
4158332;-0.28500
4161110;-0.27500
4163888;-0.27500
4166666;-0.28000
4169443;-0.28000
4172221;-0.29000
4174999;-0.29500
4177777;-0.29500
4180554;-0.29000
4183332;-0.28000
4186110;-0.28000
4188888;-0.29000
4191665;-0.31000
4194443;-0.30000
4197221;-0.27500
4199999;-0.29000
4202777;-0.28500
4205554;-0.28500
4208332;-0.30500
4211110;-0.29000
4213888;-0.27500
4216665;-0.29500
4219443;-0.32000
4222221;-0.35500
4224999;-0.40000
4227777;-0.39500
4230554;-0.37500
4233332;-0.40000
4236110;-0.46000
4238888;-0.50000
4241665;-0.49000
4244443;-0.38500
4247221;-0.24000
4249999;-0.08000
4252777;0.10000
4255554;0.36000
4258332;0.65500
4261110;0.87000
4263888;0.95000
4266665;0.83000
4269443;0.49500
4272221;0.06500
4274999;-0.27500
4277777;-0.43000
4280554;-0.43000
4283332;-0.38500
4286110;-0.34500
4288888;-0.32500
4291665;-0.33500
4294443;-0.33500
4297221;-0.32500
4299999;-0.32000
4302777;-0.33000
4305554;-0.33000
4308332;-0.33500
4311110;-0.33500
4313888;-0.32000
4316665;-0.32000
4319443;-0.32000
4322221;-0.33000
4324999;-0.34500
4327777;-0.32000
4330554;-0.32000
4333332;-0.32000
4336110;-0.33000
4338888;-0.32000
4341665;-0.33500
4344443;-0.32500
4347221;-0.31500
4349999;-0.32500
4352777;-0.33000
4355554;-0.34000
4358332;-0.34000
4361110;-0.33500
4363888;-0.31500
4366665;-0.32000
4369443;-0.31000
4372221;-0.33000
4374999;-0.32000
4377777;-0.31500
4380554;-0.30500
4383332;-0.31000
4386110;-0.32500
4388888;-0.32500
4391665;-0.31500
4394443;-0.31500
4397221;-0.30000
4399999;-0.30000
4402777;-0.30000
4405554;-0.30500
4408332;-0.31500
4411110;-0.31500
4413888;-0.29500
4416665;-0.30500
4419443;-0.30500
4422221;-0.31500
4424999;-0.31000
4427777;-0.30500
4430554;-0.29500
4433332;-0.30000
4436110;-0.29500
4438888;-0.31000
4441665;-0.31000
4444443;-0.30000
4447221;-0.30000
4449999;-0.31000
4452777;-0.31000
4455554;-0.30000
4458332;-0.31500
4461110;-0.31000
4463888;-0.30500
4466665;-0.30500
4469443;-0.29500
4472221;-0.30500
4474999;-0.30500
4477777;-0.30000
4480554;-0.28500
4483332;-0.28500
4486110;-0.30500
4488888;-0.30500
4491665;-0.31500
4494443;-0.30000
4497221;-0.29500
4499999;-0.30000
4502777;-0.30500
4505554;-0.33000
4508332;-0.33500
4511110;-0.32000
4513888;-0.31500
4516665;-0.32000
4519443;-0.31500
4522221;-0.31500
4524999;-0.32500
4527777;-0.30500
4530554;-0.30500
4533332;-0.29000
4536110;-0.28500
4538888;-0.29000
4541665;-0.27500
4544443;-0.25000
4547221;-0.24000
4549999;-0.22500
4552777;-0.23000
4555554;-0.23000
4558332;-0.22500
4561110;-0.21500
4563888;-0.19500
4566665;-0.21000
4569443;-0.21000
4572221;-0.21500
4574999;-0.20500
4577776;-0.20500
4580554;-0.19500
4583332;-0.19500
4586110;-0.20500
4588888;-0.22000
4591665;-0.21500
4594443;-0.20500
4597221;-0.19500
4599999;-0.20000
4602776;-0.20000
4605554;-0.21500
4608332;-0.21000
4611110;-0.20000
4613888;-0.19500
4616665;-0.19000
4619443;-0.20500
4622221;-0.20000
4624999;-0.21000
4627776;-0.21000
4630554;-0.19500
4633332;-0.19500
4636110;-0.21000
4638888;-0.21500
4641665;-0.22000
4644443;-0.21500
4647221;-0.21500
4649999;-0.21500
4652776;-0.22000
4655554;-0.23000
4658332;-0.23500
4661110;-0.22500
4663888;-0.22000
4666665;-0.23000
4669443;-0.22500
4672221;-0.23500
4674999;-0.24500
4677776;-0.23500
4680554;-0.24500
4683332;-0.24000
4686110;-0.24000
4688888;-0.24500
4691665;-0.25000
4694443;-0.23500
4697221;-0.23000
4699999;-0.23000
4702776;-0.24000
4705554;-0.24500
4708332;-0.25500
4711110;-0.24500
4713888;-0.25000
4716665;-0.25000
4719443;-0.25000
4722221;-0.27000
4724999;-0.27000
4727776;-0.27500
4730554;-0.26000
4733332;-0.25500
4736110;-0.26000
4738888;-0.27500
4741665;-0.26500
4744443;-0.26000
4747221;-0.26000
4749999;-0.26500
4752776;-0.26500
4755554;-0.27000
4758332;-0.27500
4761110;-0.27000
4763888;-0.24500
4766665;-0.25000
4769443;-0.25500
4772221;-0.26500
4774999;-0.25000
4777776;-0.24500
4780554;-0.24000
4783332;-0.24000
4786110;-0.24000
4788888;-0.25000
4791665;-0.25000
4794443;-0.22500
4797221;-0.20500
4799999;-0.19000
4802776;-0.19500
4805554;-0.19000
4808332;-0.19500
4811110;-0.17500
4813888;-0.15000
4816665;-0.15000
4819443;-0.15000
4822221;-0.15500
4824999;-0.15000
4827776;-0.14500
4830554;-0.13500
4833332;-0.13500
4836110;-0.14500
4838888;-0.16500
4841665;-0.18000
4844443;-0.16500
4847221;-0.15000
4849999;-0.15000
4852776;-0.16000
4855554;-0.18500
4858332;-0.19000
4861110;-0.15500
4863888;-0.13000
4866665;-0.11500
4869443;-0.13500
4872221;-0.16500
4874999;-0.18500
4877776;-0.19000
4880554;-0.19000
4883332;-0.19000
4886110;-0.21000
4888888;-0.23500
4891665;-0.25000
4894443;-0.23500
4897221;-0.23000
4899999;-0.24000
4902776;-0.24500
4905554;-0.25500
4908332;-0.26500
4911110;-0.27000
4913888;-0.27000
4916665;-0.27500
4919443;-0.28000
4922221;-0.28000
4924999;-0.29000
4927776;-0.28500
4930554;-0.28000
4933332;-0.27500
4936110;-0.28000
4938888;-0.29000
4941665;-0.29000
4944443;-0.27500
4947221;-0.28000
4949999;-0.27500
4952776;-0.29000
4955554;-0.29000
4958332;-0.30000
4961110;-0.30000
4963887;-0.29000
4966665;-0.30500
4969443;-0.32000
4972221;-0.36500
4974999;-0.41500
4977776;-0.42000
4980554;-0.44500
4983332;-0.48000
4986110;-0.50000
4988887;-0.45500
4991665;-0.34500
4994443;-0.18000
4997221;-0.03000
4999999;0.18000
5002776;0.44000
5005554;0.70000
5008332;0.88500
5011110;0.94500
5013887;0.85500
5016665;0.56000
5019443;0.15500
5022221;-0.19000
5024999;-0.39000
5027776;-0.44000
5030554;-0.41000
5033332;-0.36500
5036110;-0.32500
5038887;-0.32500
5041665;-0.32500
5044443;-0.32500
5047221;-0.31500
5049999;-0.31000
5052776;-0.32000
5055554;-0.33500
5058332;-0.33500
5061110;-0.33500
5063887;-0.32000
5066665;-0.31500
5069443;-0.32500
5072221;-0.33500
5074999;-0.33500
5077776;-0.32000
5080554;-0.31000
5083332;-0.32000
5086110;-0.30500
5088887;-0.31500
5091665;-0.32000
5094443;-0.31500
5097221;-0.30000
5099999;-0.30500
5102776;-0.31500
5105554;-0.31000
5108332;-0.31500
5111110;-0.31000
5113887;-0.30500
5116665;-0.31500
5119443;-0.31500
5122221;-0.32500
5124999;-0.33500
5127776;-0.31000
5130554;-0.29000
5133332;-0.29500
5136110;-0.30000
5138887;-0.32000
5141665;-0.32500
5144443;-0.31000
5147221;-0.30000
5149999;-0.31000
5152776;-0.31000
5155554;-0.32000
5158332;-0.31500
5161110;-0.31000
5163887;-0.31000
5166665;-0.29500
5169443;-0.30500
5172221;-0.31000
5174999;-0.31000
5177776;-0.30000
5180554;-0.29000
5183332;-0.31000
5186110;-0.31000
5188887;-0.32000
5191665;-0.31500
5194443;-0.30000
5197221;-0.30500
5199999;-0.30000
5202776;-0.30000
5205554;-0.31500
5208332;-0.30500
5211110;-0.29500
5213887;-0.30000
5216665;-0.29500
5219443;-0.30000
5222221;-0.30000
5224999;-0.30000
5227776;-0.30500
5230554;-0.29000
5233332;-0.29000
5236110;-0.30500
5238887;-0.30500
5241665;-0.30000
5244443;-0.31000
5247221;-0.30000
5249999;-0.30500
5252776;-0.32000
5255554;-0.32000
5258332;-0.33000
5261110;-0.32000
5263887;-0.31500
5266665;-0.31000
5269443;-0.32000
5272221;-0.33000
5274999;-0.33500
5277776;-0.31500
5280554;-0.31000
5283332;-0.30500
5286110;-0.31500
5288887;-0.31500
5291665;-0.32000
5294443;-0.30000
5297221;-0.29500
5299999;-0.28000
5302776;-0.27000
5305554;-0.27500
5308332;-0.28000
5311110;-0.25500
5313887;-0.24000
5316665;-0.23000
5319443;-0.23500
5322221;-0.24000
5324999;-0.24500
5327776;-0.21500
5330554;-0.21500
5333332;-0.20000
5336110;-0.21500
5338887;-0.22000
5341665;-0.22000
5344443;-0.20500
5347221;-0.20000
5349999;-0.19500
5352776;-0.20500
5355554;-0.20000
5358332;-0.20500
5361110;-0.19500
5363887;-0.19500
5366665;-0.20500
5369443;-0.20000
5372221;-0.21500
5374998;-0.22000
5377776;-0.21000
5380554;-0.20000
5383332;-0.19500
5386110;-0.20000
5388887;-0.21000
5391665;-0.20000
5394443;-0.20000
5397221;-0.20000
5399998;-0.20000
5402776;-0.20500
5405554;-0.21500
5408332;-0.22000
5411110;-0.20500
5413887;-0.19500
5416665;-0.21000
5419443;-0.21000
5422221;-0.22000
5424998;-0.23500
5427776;-0.22500
5430554;-0.22000
5433332;-0.22000
5436110;-0.22500
5438887;-0.23500
5441665;-0.24500
5444443;-0.24000
5447221;-0.23000
5449998;-0.23000
5452776;-0.22500
5455554;-0.25000
5458332;-0.26000
5461110;-0.24000
5463887;-0.23000
5466665;-0.22000
5469443;-0.24500
5472221;-0.25000
5474998;-0.26500
5477776;-0.24000
5480554;-0.23500
5483332;-0.24500
5486110;-0.25000
5488887;-0.26000
5491665;-0.26500
5494443;-0.26000
5497221;-0.25500
5499998;-0.25500
5502776;-0.26000
5505554;-0.27500
5508332;-0.27500
5511110;-0.26500
5513887;-0.26000
5516665;-0.27000
5519443;-0.26500
5522221;-0.27000
5524998;-0.27500
5527776;-0.27000
5530554;-0.24500
5533332;-0.24000
5536110;-0.25500
5538887;-0.26000
5541665;-0.26000
5544443;-0.25000
5547221;-0.25000
5549998;-0.24500
5552776;-0.24500
5555554;-0.26000
5558332;-0.25500
5561110;-0.25500
5563887;-0.25000
5566665;-0.24500
5569443;-0.24500
5572221;-0.24500
5574998;-0.24500
5577776;-0.22000
5580554;-0.21000
5583332;-0.19500
5586110;-0.20000
5588887;-0.20000
5591665;-0.20500
5594443;-0.19500
5597221;-0.18500
5599998;-0.17000
5602776;-0.17500
5605554;-0.17500
5608332;-0.16500
5611110;-0.15000
5613887;-0.14000
5616665;-0.14500
5619443;-0.14000
5622221;-0.16000
5624998;-0.15500
5627776;-0.16500
5630554;-0.16000
5633332;-0.16000
5636110;-0.15500
5638887;-0.16500
5641665;-0.19000
5644443;-0.18000
5647221;-0.17000
5649998;-0.15000
5652776;-0.13500
5655554;-0.16500
5658332;-0.18000
5661110;-0.20000
5663887;-0.20500
5666665;-0.20500
5669443;-0.21500
5672221;-0.24500
5674998;-0.26000
5677776;-0.24500
5680554;-0.24500
5683332;-0.25000
5686110;-0.26500
5688887;-0.26500
5691665;-0.28500
5694443;-0.27500
5697221;-0.28500
5699998;-0.27500
5702776;-0.27500
5705554;-0.28500
5708332;-0.29500
5711110;-0.29500
5713887;-0.28500
5716665;-0.28000
5719443;-0.28500
5722221;-0.29500
5724998;-0.29500
5727776;-0.29500
5730554;-0.29000
5733332;-0.29000
5736110;-0.31000
5738887;-0.31000
5741665;-0.30000
5744443;-0.30500
5747221;-0.29500
5749998;-0.29000
5752776;-0.30000
5755554;-0.31500
5758332;-0.33500
5761109;-0.35000
5763887;-0.37500
5766665;-0.40500
5769443;-0.42000
5772221;-0.46000
5774998;-0.49500
5777776;-0.49500
5780554;-0.44500
5783332;-0.34000
5786109;-0.22000
5788887;-0.09500
5791665;0.08000
5794443;0.33500
5797221;0.60000
5799998;0.83000
5802776;0.95500
5805554;0.97500
5808332;0.83500
5811109;0.53500
5813887;0.16500
5816665;-0.17000
5819443;-0.38500
5822221;-0.46500
5824998;-0.45000
5827776;-0.40000
5830554;-0.34500
5833332;-0.32000
5836109;-0.32000
5838887;-0.33000
5841665;-0.34000
5844443;-0.32500
5847221;-0.32000
5849998;-0.32000
5852776;-0.32000
5855554;-0.32500
5858332;-0.33000
5861109;-0.32500
5863887;-0.31000
5866665;-0.32000
5869443;-0.33000
5872221;-0.33500
5874998;-0.33000
5877776;-0.32500
5880554;-0.31500
5883332;-0.31500
5886109;-0.32000
5888887;-0.32000
5891665;-0.32500
5894443;-0.33000
5897221;-0.31500
5899998;-0.31500
5902776;-0.31000
5905554;-0.32500
5908332;-0.32500
5911109;-0.30500
5913887;-0.30000
5916665;-0.29500
5919443;-0.31500
5922221;-0.32500
5924998;-0.33500
5927776;-0.32500
5930554;-0.30000
5933332;-0.30500
5936109;-0.31500
5938887;-0.32000
5941665;-0.33000
5944443;-0.32000
5947221;-0.30500
5949998;-0.30500
5952776;-0.31500
5955554;-0.31000
5958332;-0.31000
5961109;-0.30500
5963887;-0.30000
5966665;-0.30500
5969443;-0.31500
5972221;-0.31500
5974998;-0.32000
5977776;-0.31500
5980554;-0.31500
5983332;-0.31500
5986109;-0.31000
5988887;-0.31500
5991665;-0.32500
5994443;-0.31500
5997221;-0.30500
5999998;-0.30000
6002776;-0.30500
6005554;-0.30000
6008332;-0.31500
6011109;-0.30500
6013887;-0.29500
6016665;-0.30500
6019443;-0.31000
6022221;-0.31000
6024998;-0.32000
6027776;-0.30500
6030554;-0.29500
6033332;-0.29000
6036109;-0.30000
6038887;-0.31500
6041665;-0.31000
6044443;-0.30500
6047221;-0.30500
6049998;-0.30000
6052776;-0.31500
6055554;-0.32000
6058332;-0.33000
6061109;-0.31500
6063887;-0.31000
6066665;-0.30500
6069443;-0.30500
6072221;-0.31500
6074998;-0.31500
6077776;-0.30500
6080554;-0.29500
6083332;-0.30000
6086109;-0.29500
6088887;-0.30500
6091665;-0.30500
6094443;-0.30500
6097221;-0.29500
6099998;-0.29500
6102776;-0.29000
6105554;-0.30000
6108332;-0.30500
6111109;-0.27000
6113887;-0.27500
6116665;-0.25000
6119443;-0.25500
6122221;-0.26000
6124998;-0.26000
6127776;-0.25000
6130554;-0.23000
6133332;-0.22500
6136109;-0.23000
6138887;-0.24500
6141665;-0.24000
6144443;-0.22000
6147221;-0.20500
6149998;-0.20500
6152776;-0.20000
6155554;-0.20500
6158332;-0.20500
6161109;-0.20000
6163887;-0.20500
6166665;-0.20000
6169443;-0.19500
6172220;-0.21000
6174998;-0.21000
6177776;-0.20500
6180554;-0.19500
6183332;-0.20500
6186109;-0.19500
6188887;-0.21000
6191665;-0.20500
6194443;-0.20500
6197220;-0.21000
6199998;-0.19500
6202776;-0.21000
6205554;-0.21500
6208332;-0.22000
6211109;-0.20000
6213887;-0.20000
6216665;-0.20500
6219443;-0.21000
6222220;-0.23000
6224998;-0.22500
6227776;-0.22000
6230554;-0.21000
6233332;-0.20500
6236109;-0.22000
6238887;-0.23000
6241665;-0.23000
6244443;-0.22000
6247220;-0.21500
6249998;-0.21000
6252776;-0.22500
6255554;-0.24000
6258332;-0.24500
6261109;-0.23500
6263887;-0.23000
6266665;-0.23000
6269443;-0.23500
6272220;-0.24500
6274998;-0.25500
6277776;-0.24500
6280554;-0.23500
6283332;-0.23500
6286109;-0.24500
6288887;-0.25500
6291665;-0.25500
6294443;-0.25500
6297220;-0.25000
6299998;-0.25500
6302776;-0.24500
6305554;-0.27000
6308332;-0.26500
6311109;-0.27000
6313887;-0.24500
6316665;-0.25000
6319443;-0.25500
6322220;-0.25500
6324998;-0.26500
6327776;-0.25000
6330554;-0.24500
6333332;-0.24500
6336109;-0.25000
6338887;-0.26000
6341665;-0.26500
6344443;-0.26000
6347220;-0.24500
6349998;-0.25500
6352776;-0.25000
6355554;-0.26000
6358332;-0.26500
6361109;-0.26000
6363887;-0.25500
6366665;-0.24500
6369443;-0.24500
6372220;-0.24500
6374998;-0.23000
6377776;-0.22500
6380554;-0.19500
6383332;-0.19000
6386109;-0.19500
6388887;-0.19500
6391665;-0.19500
6394443;-0.19000
6397220;-0.16000
6399998;-0.16500
6402776;-0.15500
6405554;-0.14500
6408332;-0.14000
6411109;-0.13500
6413887;-0.12500
6416665;-0.12500
6419443;-0.14000
6422220;-0.16000
6424998;-0.17000
6427776;-0.16500
6430554;-0.15000
6433332;-0.16000
6436109;-0.17500
6438887;-0.19000
6441665;-0.19000
6444443;-0.16500
6447220;-0.13500
6449998;-0.12000
6452776;-0.15000
6455554;-0.18500
6458332;-0.21000
6461109;-0.21000
6463887;-0.20500
6466665;-0.22000
6469443;-0.22500
6472220;-0.25500
6474998;-0.27000
6477776;-0.26500
6480554;-0.26000
6483332;-0.27000
6486109;-0.27500
6488887;-0.28000
6491665;-0.28500
6494443;-0.28000
6497220;-0.27500
6499998;-0.26500
6502776;-0.28000
6505554;-0.29000
6508332;-0.29000
6511109;-0.29500
6513887;-0.29000
6516665;-0.29000
6519443;-0.29000
6522220;-0.30500
6524998;-0.31000
6527776;-0.30500
6530554;-0.29000
6533332;-0.28000
6536109;-0.29000
6538887;-0.29500
6541665;-0.31000
6544443;-0.30500
6547220;-0.30000
6549998;-0.31500
6552776;-0.37000
6555554;-0.40500
6558331;-0.43000
6561109;-0.44500
6563887;-0.47000
6566665;-0.51000
6569443;-0.51500
6572220;-0.45500
6574998;-0.35500
6577776;-0.24000
6580554;-0.08500
6583331;0.10500
6586109;0.37000
6588887;0.61500
6591665;0.78000
6594443;0.89000
6597220;0.84500
6599998;0.65500
6602776;0.32000
6605554;-0.02500
6608331;-0.31500
6611109;-0.43500
6613887;-0.45500
6616665;-0.41000
6619443;-0.38000
6622220;-0.34000
6624998;-0.34000
6627776;-0.34000
6630554;-0.33000
6633331;-0.32000
6636109;-0.32500
6638887;-0.32500
6641665;-0.34500
6644443;-0.33000
6647220;-0.33000
6649998;-0.34000
6652776;-0.34000
6655554;-0.35000
6658331;-0.35500
6661109;-0.34500
6663887;-0.33000
6666665;-0.33000
6669443;-0.34500
6672220;-0.35500
6674998;-0.35000
6677776;-0.34500
6680554;-0.34000
6683331;-0.33000
6686109;-0.33500
6688887;-0.34500
6691665;-0.35500
6694443;-0.34500
6697220;-0.33500
6699998;-0.33000
6702776;-0.32000
6705554;-0.34500
6708331;-0.35000
6711109;-0.33500
6713887;-0.33000
6716665;-0.34000
6719443;-0.34000
6722220;-0.35000
6724998;-0.35500
6727776;-0.34000
6730554;-0.33000
6733331;-0.34000
6736109;-0.35000
6738887;-0.35500
6741665;-0.35000
6744443;-0.34500
6747220;-0.34500
6749998;-0.33000
6752776;-0.34500
6755554;-0.35000
6758331;-0.34500
6761109;-0.34000
6763887;-0.32500
6766665;-0.32500
6769443;-0.33500
6772220;-0.34000
6774998;-0.34500
6777776;-0.34000
6780554;-0.32000
6783331;-0.31500
6786109;-0.32500
6788887;-0.35000
6791665;-0.33000
6794443;-0.32500
6797220;-0.31000
6799998;-0.33000
6802776;-0.32000
6805554;-0.33500
6808331;-0.34000
6811109;-0.32500
6813887;-0.32000
6816665;-0.32500
6819443;-0.32000
6822220;-0.33000
6824998;-0.34500
6827776;-0.33000
6830554;-0.32500
6833331;-0.33500
6836109;-0.35000
6838887;-0.34000
6841665;-0.34000
6844443;-0.34000
6847220;-0.34000
6849998;-0.33500
6852776;-0.34000
6855554;-0.34000
6858331;-0.34500
6861109;-0.34500
6863887;-0.33000
6866665;-0.33000
6869443;-0.33500
6872220;-0.34500
6874998;-0.34000
6877776;-0.34000
6880554;-0.33000
6883331;-0.32500
6886109;-0.33500
6888887;-0.34000
6891665;-0.34000
6894443;-0.33000
6897220;-0.32000
6899998;-0.31500
6902776;-0.30500
6905554;-0.31500
6908331;-0.29500
6911109;-0.29500
6913887;-0.28500
6916665;-0.26500
6919443;-0.28500
6922220;-0.29000
6924998;-0.27500
6927776;-0.27000
6930554;-0.25500
6933331;-0.25000
6936109;-0.25500
6938887;-0.25500
6941665;-0.25500
6944442;-0.24500
6947220;-0.24000
6949998;-0.23000
6952776;-0.23500
6955554;-0.24000
6958331;-0.24000
6961109;-0.22500
6963887;-0.22000
6966665;-0.23000
6969442;-0.22500
6972220;-0.25000
6974998;-0.23000
6977776;-0.24000
6980554;-0.23500
6983331;-0.24000
6986109;-0.24000
6988887;-0.25000
6991665;-0.26000
6994442;-0.24500
6997220;-0.23500
6999998;-0.24000
7002776;-0.24000
7005554;-0.25500
7008331;-0.25000
7011109;-0.24500
7013887;-0.23500
7016665;-0.24000
7019442;-0.25000
7022220;-0.25500
7024998;-0.26000
7027776;-0.24000
7030554;-0.24000
7033331;-0.24000
7036109;-0.26500
7038887;-0.27000
7041665;-0.28000
7044442;-0.26000
7047220;-0.25500
7049998;-0.26000
7052776;-0.27000
7055554;-0.28000
7058331;-0.28000
7061109;-0.26500
7063887;-0.26500
7066665;-0.27000
7069442;-0.26500
7072220;-0.27500
7074998;-0.28000
7077776;-0.26500
7080554;-0.27000
7083331;-0.26500
7086109;-0.27000
7088887;-0.28000
7091665;-0.29000
7094442;-0.27500
7097220;-0.27500
7099998;-0.27000
7102776;-0.27500
7105554;-0.28500
7108331;-0.28500
7111109;-0.28500
7113887;-0.28500
7116665;-0.28000
7119442;-0.29500
7122220;-0.30500
7124998;-0.30000
7127776;-0.28000
7130554;-0.28500
7133331;-0.28000
7136109;-0.29000
7138887;-0.28000
7141665;-0.28000
7144442;-0.28000
7147220;-0.27000
7149998;-0.26500
7152776;-0.27000
7155554;-0.29000
7158331;-0.30000
7161109;-0.29000
7163887;-0.27500
7166665;-0.27000
7169442;-0.26000
7172220;-0.26500
7174998;-0.26500
7177776;-0.23500
7180554;-0.23000
7183331;-0.22500
7186109;-0.23000
7188887;-0.23500
7191665;-0.23500
7194442;-0.22500
7197220;-0.20500
7199998;-0.19500
7202776;-0.18500
7205554;-0.19000
7208331;-0.19500
7211109;-0.18500
7213887;-0.18500
7216665;-0.18500
7219442;-0.19000
7222220;-0.21000
7224998;-0.20500
7227776;-0.21000
7230554;-0.20000
7233331;-0.21000
7236109;-0.22000
7238887;-0.22500
7241665;-0.20000
7244442;-0.17500
7247220;-0.17500
7249998;-0.21000
7252776;-0.25000
7255554;-0.27000
7258331;-0.28000
7261109;-0.30000
7263887;-0.29000
7266665;-0.30000
7269442;-0.31000
7272220;-0.31000
7274998;-0.32500
7277776;-0.32000
7280554;-0.31000
7283331;-0.30500
7286109;-0.31000
7288887;-0.32000
7291665;-0.33000
7294442;-0.33000
7297220;-0.32500
7299998;-0.32000
7302776;-0.35000
7305554;-0.33500
7308331;-0.35000
7311109;-0.33500
7313887;-0.34000
7316665;-0.34000
7319442;-0.33000
7322220;-0.35000
7324998;-0.35500
7327776;-0.35000
7330554;-0.35000
7333331;-0.39000
7336109;-0.43000
7338887;-0.47000
7341665;-0.48500
7344442;-0.49500
7347220;-0.54000
7349998;-0.58500
7352776;-0.58000
7355553;-0.51500
7358331;-0.42500
7361109;-0.33500
7363887;-0.26000
7366665;-0.18000
7369442;-0.08000
7372220;0.04500
7374998;0.24000
7377776;0.45500
7380553;0.62500
7383331;0.74000
7386109;0.83000
7388887;0.86500
7391665;0.78500
7394442;0.56000
7397220;0.19500
7399998;-0.14500
7402776;-0.40500
7405553;-0.50500
7408331;-0.50500
7411109;-0.44500
7413887;-0.39000
7416665;-0.38500
7419442;-0.38500
7422220;-0.39500
7424998;-0.39000
7427776;-0.38500
7430553;-0.37500
7433331;-0.36000
7436109;-0.37500
7438887;-0.37500
7441665;-0.39500
7444442;-0.38000
7447220;-0.37000
7449998;-0.36000
7452776;-0.38000
7455553;-0.38500
7458331;-0.39500
7461109;-0.38000
7463887;-0.38000
7466665;-0.38500
7469442;-0.38500
7472220;-0.39500
7474998;-0.39500
7477776;-0.39500
7480553;-0.38500
7483331;-0.39000
7486109;-0.39000
7488887;-0.39000
7491665;-0.39500
7494442;-0.38000
7497220;-0.38000
7499998;-0.36500
7502776;-0.37500
7505553;-0.38500
7508331;-0.39000
7511109;-0.38000
7513887;-0.37500
7516665;-0.38000
7519442;-0.39000
7522220;-0.40000
7524998;-0.40000
7527776;-0.39000
7530553;-0.38000
7533331;-0.37000
7536109;-0.37500
7538887;-0.38500
7541665;-0.39500
7544442;-0.39000
7547220;-0.37500
7549998;-0.37500
7552776;-0.38000
7555553;-0.40000
7558331;-0.39500
7561109;-0.38500
7563887;-0.38000
7566665;-0.38000
7569442;-0.39500
7572220;-0.40000
7574998;-0.39000
7577776;-0.38000
7580553;-0.36000
7583331;-0.37000
7586109;-0.37500
7588887;-0.38500
7591665;-0.38500
7594442;-0.37500
7597220;-0.37500
7599998;-0.36500
7602776;-0.37500
7605553;-0.38000
7608331;-0.39000
7611109;-0.38000
7613887;-0.37000
7616665;-0.37000
7619442;-0.38500
7622220;-0.39500
7624998;-0.40500
7627776;-0.39000
7630553;-0.38500
7633331;-0.39500
7636109;-0.40000
7638887;-0.40000
7641665;-0.41000
7644442;-0.40500
7647220;-0.39500
7649998;-0.40500
7652776;-0.40000
7655553;-0.39500
7658331;-0.40500
7661109;-0.39000
7663887;-0.38000
7666665;-0.38500
7669442;-0.39000
7672220;-0.38500
7674998;-0.39000
7677776;-0.37500
7680553;-0.36000
7683331;-0.35500
7686109;-0.35500
7688887;-0.36500
7691665;-0.35500
7694442;-0.32500
7697220;-0.32000
7699998;-0.32000
7702776;-0.32000
7705553;-0.32000
7708331;-0.32500
7711109;-0.32000
7713887;-0.30500
7716665;-0.30000
7719442;-0.30000
7722220;-0.31500
7724998;-0.32000
7727776;-0.31000
7730553;-0.30000
7733331;-0.30000
7736109;-0.31500
7738887;-0.31500
7741664;-0.31500
7744442;-0.31000
7747220;-0.30000
7749998;-0.30000
7752776;-0.31000
7755553;-0.31000
7758331;-0.31500
7761109;-0.31500
7763887;-0.30500
7766664;-0.31500
7769442;-0.31500
7772220;-0.32500
7774998;-0.33500
7777776;-0.32000
7780553;-0.31500
7783331;-0.31500
7786109;-0.32000
7788887;-0.33000
7791664;-0.33500
7794442;-0.32000
7797220;-0.33000
7799998;-0.32000
7802776;-0.31500
7805553;-0.34500
7808331;-0.33500
7811109;-0.33500
7813887;-0.31500
7816664;-0.32500
7819442;-0.33000
7822220;-0.35000
7824998;-0.35500
7827776;-0.34000
7830553;-0.34000
7833331;-0.33000
7836109;-0.33000
7838887;-0.34500
7841664;-0.35500
7844442;-0.33500
7847220;-0.34000
7849998;-0.34000
7852776;-0.35000
7855553;-0.36000
7858331;-0.37500
7861109;-0.36000
7863887;-0.36000
7866664;-0.37500
7869442;-0.36500
7872220;-0.37000
7874998;-0.37500
7877776;-0.36500
7880553;-0.36500
7883331;-0.36000
7886109;-0.37000
7888887;-0.38500
7891664;-0.38500
7894442;-0.37000
7897220;-0.37000
7899998;-0.36500
7902776;-0.37000
7905553;-0.37000
7908331;-0.36500
7911109;-0.36000
7913887;-0.35000
7916664;-0.35000
7919442;-0.36000
7922220;-0.37500
7924998;-0.38500
7927776;-0.37500
7930553;-0.37500
7933331;-0.36000
7936109;-0.36500
7938887;-0.36000
7941664;-0.35500
7944442;-0.33000
7947220;-0.31000
7949998;-0.30500
7952776;-0.30500
7955553;-0.30500
7958331;-0.30500
7961109;-0.30000
7963887;-0.29000
7966664;-0.28000
7969442;-0.27000
7972220;-0.27500
7974998;-0.27000
7977776;-0.26500
7980553;-0.25000
7983331;-0.25000
7986109;-0.24500
7988887;-0.26000
7991664;-0.27000
7994442;-0.26500
7997220;-0.25500
7999998;-0.27000
8002776;-0.27500
8005553;-0.26000
8008331;-0.27000
8011109;-0.28000
8013887;-0.28500
8016664;-0.29000
8019442;-0.28500
8022220;-0.27000
8024998;-0.26500
8027776;-0.27500
8030553;-0.30000
8033331;-0.32000
8036109;-0.33500
8038887;-0.36000
8041664;-0.38500
8044442;-0.38500
8047220;-0.38500
8049998;-0.39500
8052776;-0.40000
8055553;-0.40000
8058331;-0.40000
8061109;-0.38500
8063887;-0.38500
8066664;-0.38000
8069442;-0.40000
8072220;-0.40000
8074998;-0.40000
8077776;-0.39000
8080553;-0.38000
8083331;-0.38500
8086109;-0.38500
8088887;-0.40500
8091664;-0.41500
8094442;-0.41000
8097220;-0.40500
8099998;-0.40000
8102776;-0.41500
8105553;-0.44000
8108331;-0.46500
8111109;-0.48500
8113887;-0.50000
8116664;-0.51500
8119442;-0.57000
8122220;-0.62000
8124998;-0.61000
8127776;-0.53000
8130553;-0.40500
8133331;-0.28000
8136109;-0.11000
8138887;0.12000
8141664;0.40000
8144442;0.66000
8147220;0.81500
8149998;0.83500
8152775;0.66000
8155553;0.30000
8158331;-0.10500
8161109;-0.40000
8163887;-0.54500
8166664;-0.56500
8169442;-0.54000
8172220;-0.50000
8174998;-0.48000
8177775;-0.45500
8180553;-0.43500
8183331;-0.42000
8186109;-0.42000
8188887;-0.42500
8191664;-0.43000
8194442;-0.42000
8197220;-0.41500
8199998;-0.42000
8202775;-0.42500
8205553;-0.43500
8208331;-0.44000
8211109;-0.43500
8213887;-0.44000
8216664;-0.43500
8219442;-0.44500
8222220;-0.44500
8224998;-0.45500
8227775;-0.44000
8230553;-0.44000
8233331;-0.44500
8236109;-0.45000
8238887;-0.45500
8241664;-0.46000
8244442;-0.46500
8247220;-0.45000
8249998;-0.45500
8252775;-0.46000
8255553;-0.46500
8258331;-0.47500
8261109;-0.46000
8263887;-0.45500
8266664;-0.44500
8269442;-0.45000
8272220;-0.46000
8274998;-0.44500
8277775;-0.43500
8280553;-0.43000
8283331;-0.44000
8286109;-0.44000
8288887;-0.44500
8291664;-0.45500
8294442;-0.45000
8297220;-0.43500
8299998;-0.44000
8302775;-0.45000
8305553;-0.46500
8308331;-0.46500
8311109;-0.45500
8313887;-0.44500
8316664;-0.45000
8319442;-0.44500
8322220;-0.45500
8324998;-0.46500
8327775;-0.45500
8330553;-0.44000
8333331;-0.43000
8336109;-0.44500
8338887;-0.44000
8341664;-0.44500
8344442;-0.43500
8347220;-0.43000
8349998;-0.42500
8352775;-0.45000
8355553;-0.45500
8358331;-0.46500
8361109;-0.45000
8363887;-0.45000
8366664;-0.44500
8369442;-0.46000
8372220;-0.46500
8374998;-0.46500
8377775;-0.46000
8380553;-0.44500
8383331;-0.45000
8386109;-0.44500
8388887;-0.46000
8391664;-0.47000
8394442;-0.47000
8397220;-0.47000
8399998;-0.46000
8402775;-0.47000
8405553;-0.48000
8408331;-0.49500
8411109;-0.49500
8413887;-0.49000
8416664;-0.48500
8419442;-0.49500
8422220;-0.51500
8424998;-0.51000
8427775;-0.50500
8430553;-0.50000
8433331;-0.48000
8436109;-0.48000
8438887;-0.47500
8441664;-0.47500
8444442;-0.45500
8447220;-0.44000
8449998;-0.42500
8452775;-0.41000
8455553;-0.42000
8458331;-0.41500
8461109;-0.40000
8463887;-0.39000
8466664;-0.37500
8469442;-0.38000
8472220;-0.38000
8474998;-0.36500
8477775;-0.36000
8480553;-0.35000
8483331;-0.33500
8486109;-0.33500
8488887;-0.34000
8491664;-0.35000
8494442;-0.33000
8497220;-0.33500
8499998;-0.33000
8502775;-0.33500
8505553;-0.34000
8508331;-0.34000
8511109;-0.32500
8513887;-0.32500
8516664;-0.32500
8519442;-0.33500
8522220;-0.34500
8524998;-0.34000
8527775;-0.34000
8530553;-0.33000
8533331;-0.32000
8536109;-0.33500
8538886;-0.34500
8541664;-0.34500
8544442;-0.34000
8547220;-0.33000
8549998;-0.32500
8552775;-0.32000
8555553;-0.33500
8558331;-0.33500
8561109;-0.32500
8563886;-0.31000
8566664;-0.33000
8569442;-0.33000
8572220;-0.34000
8574998;-0.35000
8577775;-0.34500
8580553;-0.33500
8583331;-0.33500
8586109;-0.33500
8588886;-0.34500
8591664;-0.34500
8594442;-0.35000
8597220;-0.32500
8599998;-0.33500
8602775;-0.34000
8605553;-0.35500
8608331;-0.36000
8611109;-0.34500
8613886;-0.34000
8616664;-0.33500
8619442;-0.34000
8622220;-0.35000
8624998;-0.35500
8627775;-0.34000
8630553;-0.34000
8633331;-0.34000
8636109;-0.34500
8638886;-0.36000
8641664;-0.35500
8644442;-0.34500
8647220;-0.34500
8649998;-0.34000
8652775;-0.35000
8655553;-0.35000
8658331;-0.36500
8661109;-0.35000
8663886;-0.34500
8666664;-0.34000
8669442;-0.34500
8672220;-0.35000
8674998;-0.35500
8677775;-0.34000
8680553;-0.34000
8683331;-0.34000
8686109;-0.34000
8688886;-0.34000
8691664;-0.33000
8694442;-0.33000
8697220;-0.33000
8699998;-0.32000
8702775;-0.32500
8705553;-0.32000
8708331;-0.33500
8711109;-0.33000
8713886;-0.32000
8716664;-0.32000
8719442;-0.32000
8722220;-0.32500
8724998;-0.32000
8727775;-0.30000
8730553;-0.28000
8733331;-0.26000
8736109;-0.28000
8738886;-0.27000
8741664;-0.28000
8744442;-0.27000
8747220;-0.24500
8749998;-0.23500
8752775;-0.23000
8755553;-0.23000
8758331;-0.23000
8761109;-0.22000
8763886;-0.21500
8766664;-0.21000
8769442;-0.22000
8772220;-0.22500
8774998;-0.24000
8777775;-0.22500
8780553;-0.22500
8783331;-0.22500
8786109;-0.25000
8788886;-0.23500
8791664;-0.22000
8794442;-0.20500
8797220;-0.19500
8799998;-0.22000
8802775;-0.24500
8805553;-0.27500
8808331;-0.28500
8811109;-0.28500
8813886;-0.29500
8816664;-0.29500
8819442;-0.32000
8822220;-0.33000
8824998;-0.34000
8827775;-0.34500
8830553;-0.33000
8833331;-0.33000
8836109;-0.32500
8838886;-0.34000
8841664;-0.34500
8844442;-0.34000
8847220;-0.32500
8849998;-0.34000
8852775;-0.33500
8855553;-0.36000
8858331;-0.35500
8861109;-0.34500
8863886;-0.35500
8866664;-0.34000
8869442;-0.35000
8872220;-0.35500
8874998;-0.37000
8877775;-0.36500
8880553;-0.38000
8883331;-0.41500
8886109;-0.46500
8888886;-0.46500
8891664;-0.48000
8894442;-0.50000
8897220;-0.54000
8899998;-0.57500
8902775;-0.57500
8905553;-0.53000
8908331;-0.45000
8911109;-0.32500
8913886;-0.19500
8916664;-0.01000
8919442;0.25000
8922220;0.53000
8924998;0.75000
8927775;0.86500
8930553;0.82000
8933331;0.54500
8936109;0.13500
8938886;-0.24500
8941664;-0.47500
8944442;-0.51000
8947220;-0.46000
8949997;-0.39500
8952775;-0.37500
8955553;-0.37500
8958331;-0.39000
8961109;-0.38000
8963886;-0.38000
8966664;-0.35500
8969442;-0.36000
8972220;-0.37000
8974997;-0.38000
8977775;-0.37500
8980553;-0.36500
8983331;-0.35500
8986109;-0.37000
8988886;-0.37500
8991664;-0.38000
8994442;-0.37500
8997220;-0.37000
8999997;-0.36000
9002775;-0.36000
9005553;-0.37500
9008331;-0.39500
9011109;-0.37000
9013886;-0.37000
9016664;-0.35500
9019442;-0.36000
9022220;-0.37500
9024997;-0.37000
9027775;-0.37000
9030553;-0.36000
9033331;-0.34500
9036109;-0.35500
9038886;-0.36000
9041664;-0.37000
9044442;-0.35000
9047220;-0.34500
9049997;-0.35000
9052775;-0.36000
9055553;-0.36000
9058331;-0.35500
9061109;-0.36000
9063886;-0.35500
9066664;-0.35500
9069442;-0.36000
9072220;-0.36500
9074997;-0.37500
9077775;-0.37000
9080553;-0.36000
9083331;-0.36500
9086109;-0.35000
9088886;-0.36500
9091664;-0.35500
9094442;-0.36000
9097220;-0.35000
9099997;-0.33500
9102775;-0.34000
9105553;-0.34500
9108331;-0.36000
9111109;-0.35500
9113886;-0.34000
9116664;-0.33500
9119442;-0.34500
9122220;-0.34500
9124997;-0.35000
9127775;-0.34000
9130553;-0.33000
9133331;-0.31500
9136109;-0.33000
9138886;-0.35000
9141664;-0.35500
9144442;-0.35000
9147220;-0.34500
9149997;-0.34500
9152775;-0.34500
9155553;-0.35500
9158331;-0.36000
9161109;-0.35500
9163886;-0.35500
9166664;-0.33000
9169442;-0.34000
9172220;-0.34500
9174997;-0.35500
9177775;-0.35000
9180553;-0.34000
9183331;-0.34000
9186109;-0.33500
9188886;-0.34500
9191664;-0.34500
9194442;-0.34000
9197220;-0.33000
9199997;-0.32500
9202775;-0.33500
9205553;-0.33000
9208331;-0.32500
9211109;-0.32000
9213886;-0.30000
9216664;-0.30000
9219442;-0.29000
9222220;-0.28500
9224997;-0.28500
9227775;-0.27500
9230553;-0.27500
9233331;-0.25000
9236109;-0.24500
9238886;-0.25500
9241664;-0.26500
9244442;-0.24000
9247220;-0.23500
9249997;-0.23500
9252775;-0.23000
9255553;-0.24000
9258331;-0.24500
9261109;-0.24000
9263886;-0.23500
9266664;-0.23500
9269442;-0.23500
9272220;-0.23500
9274997;-0.25000
9277775;-0.24500
9280553;-0.23000
9283331;-0.24000
9286109;-0.23500
9288886;-0.23500
9291664;-0.24500
9294442;-0.24500
9297220;-0.23000
9299997;-0.23000
9302775;-0.22500
9305553;-0.22500
9308331;-0.23000
9311109;-0.22500
9313886;-0.23000
9316664;-0.24000
9319442;-0.23500
9322220;-0.24500
9324997;-0.24500
9327775;-0.24000
9330553;-0.24500
9333331;-0.24000
9336108;-0.24500
9338886;-0.24500
9341664;-0.26000
9344442;-0.25500
9347220;-0.25000
9349997;-0.24500
9352775;-0.25500
9355553;-0.26500
9358331;-0.26000
9361108;-0.26000
9363886;-0.25500
9366664;-0.25000
9369442;-0.25000
9372220;-0.26000
9374997;-0.26500
9377775;-0.27000
9380553;-0.25000
9383331;-0.25000
9386108;-0.25000
9388886;-0.27500
9391664;-0.26500
9394442;-0.27000
9397220;-0.25500
9399997;-0.25500
9402775;-0.26000
9405553;-0.26500
9408331;-0.27500
9411108;-0.26500
9413886;-0.25500
9416664;-0.26500
9419442;-0.27000
9422220;-0.28000
9424997;-0.28000
9427775;-0.26500
9430553;-0.27500
9433331;-0.26000
9436108;-0.26000
9438886;-0.25500
9441664;-0.27500
9444442;-0.27000
9447220;-0.27500
9449997;-0.27000
9452775;-0.27000
9455553;-0.25500
9458331;-0.26500
9461108;-0.26000
9463886;-0.24500
9466664;-0.24500
9469442;-0.23500
9472220;-0.24000
9474997;-0.25000
9477775;-0.22500
9480553;-0.21000
9483331;-0.21000
9486108;-0.21000
9488886;-0.20000
9491664;-0.19000
9494442;-0.18500
9497220;-0.18000
9499997;-0.17500
9502775;-0.17000
9505553;-0.16000
9508331;-0.15500
9511108;-0.15500
9513886;-0.14000
9516664;-0.12000
9519442;-0.12000
9522220;-0.14500
9524997;-0.16000
9527775;-0.14000
9530553;-0.13500
9533331;-0.13500
9536108;-0.14500
9538886;-0.15000
9541664;-0.14500
9544442;-0.13000
9547220;-0.13000
9549997;-0.13000
9552775;-0.14000
9555553;-0.12500
9558331;-0.12000
9561108;-0.13500
9563886;-0.16500
9566664;-0.18000
9569442;-0.20000
9572220;-0.22500
9574997;-0.24000
9577775;-0.25500
9580553;-0.26000
9583331;-0.27000
9586108;-0.27500
9588886;-0.27000
9591664;-0.27500
9594442;-0.27000
9597220;-0.26500
9599997;-0.26500
9602775;-0.27000
9605553;-0.27500
9608331;-0.28000
9611108;-0.27000
9613886;-0.26500
9616664;-0.26500
9619442;-0.27500
9622220;-0.28500
9624997;-0.29500
9627775;-0.29000
9630553;-0.27000
9633331;-0.28000
9636108;-0.28000
9638886;-0.29000
9641664;-0.31000
9644442;-0.32000
9647220;-0.36000
9649997;-0.39000
9652775;-0.41000
9655553;-0.45500
9658331;-0.50000
9661108;-0.49500
9663886;-0.41500
9666664;-0.29000
9669442;-0.14500
9672220;0.03500
9674997;0.28500
9677775;0.58500
9680553;0.79500
9683331;0.87000
9686108;0.79000
9688886;0.51500
9691664;0.12500
9694442;-0.23000
9697220;-0.40500
9699997;-0.45000
9702775;-0.40500
9705553;-0.35000
9708331;-0.33500
9711108;-0.32500
9713886;-0.32000
9716664;-0.31500
9719442;-0.30500
9722220;-0.31000
9724997;-0.32000
9727775;-0.31500
9730553;-0.29000
9733331;-0.28500
9736108;-0.29000
9738886;-0.30000
9741664;-0.32500
9744442;-0.30500
9747219;-0.30500
9749997;-0.28500
9752775;-0.29500
9755553;-0.30000
9758331;-0.31000
9761108;-0.32000
9763886;-0.30000
9766664;-0.30500
9769442;-0.29500
9772219;-0.31500
9774997;-0.31000
9777775;-0.29500
9780553;-0.29500
9783331;-0.30000
9786108;-0.31000
9788886;-0.31000
9791664;-0.32000
9794442;-0.31000
9797219;-0.30000
9799997;-0.30000
9802775;-0.30500
9805553;-0.30500
9808331;-0.30000
9811108;-0.29000
9813886;-0.29000
9816664;-0.28500
9819442;-0.28500
9822219;-0.29000
9824997;-0.30500
9827775;-0.30000
9830553;-0.29500
9833331;-0.28500
9836108;-0.29000
9838886;-0.29500
9841664;-0.30500
9844442;-0.30000
9847219;-0.29500
9849997;-0.29000
9852775;-0.28500
9855553;-0.30500
9858331;-0.31500
9861108;-0.30500
9863886;-0.31000
9866664;-0.28500
9869442;-0.28500
9872219;-0.30000
9874997;-0.30000
9877775;-0.30500
9880553;-0.28500
9883331;-0.28500
9886108;-0.28000
9888886;-0.27500
9891664;-0.28500
9894442;-0.29000
9897219;-0.28000
9899997;-0.26500
9902775;-0.28500
9905553;-0.29000
9908331;-0.29000
9911108;-0.28500
9913886;-0.28500
9916664;-0.29000
9919442;-0.29000
9922219;-0.30000
9924997;-0.30500
9927775;-0.31000
9930553;-0.30000
9933331;-0.29500
9936108;-0.29500
9938886;-0.30000
9941664;-0.31500
9944442;-0.30500
9947219;-0.31000
9949997;-0.30000
9952775;-0.31000
9955553;-0.32500
9958331;-0.31500
9961108;-0.31000
9963886;-0.28500
9966664;-0.28500
9969442;-0.28000
9972219;-0.28000
9974997;-0.27500
9977775;-0.25000
9980553;-0.24000
9983331;-0.23000
9986108;-0.23000
9988886;-0.22500
9991664;-0.23500
9994442;-0.22000
9997219;-0.21000
9999997;-0.20500
10002775;-0.20000
10005553;-0.20000
10008331;-0.22000
10011108;-0.21500
10013886;-0.19000
10016664;-0.19500
10019442;-0.19500
10022219;-0.20000
10024997;-0.20500
10027775;-0.19500
10030553;-0.18500
10033331;-0.18500
10036108;-0.19000
10038886;-0.19000
10041664;-0.20500
10044442;-0.19500
10047219;-0.18000
10049997;-0.17500
10052775;-0.17500
10055553;-0.19500
10058331;-0.20500
10061108;-0.19500
10063886;-0.18500
10066664;-0.18000
10069442;-0.18500
10072219;-0.20000
10074997;-0.21000
10077775;-0.20000
10080553;-0.20000
10083331;-0.20000
10086108;-0.19500
10088886;-0.20000
10091664;-0.21000
10094442;-0.21500
10097219;-0.21000
10099997;-0.20000
10102775;-0.20500
10105553;-0.22000
10108331;-0.23000
10111108;-0.22500
10113886;-0.21500
10116664;-0.21000
10119442;-0.22000
10122219;-0.22000
10124997;-0.23000
10127775;-0.22500
10130553;-0.21000
10133330;-0.20500
10136108;-0.22000
10138886;-0.23500
10141664;-0.23000
10144442;-0.22500
10147219;-0.21500
10149997;-0.23000
10152775;-0.24000
10155553;-0.23500
10158330;-0.24500
10161108;-0.24000
10163886;-0.23000
10166664;-0.24000
10169442;-0.23500
10172219;-0.25000
10174997;-0.24500
10177775;-0.24500
10180553;-0.23500
10183330;-0.23000
10186108;-0.23000
10188886;-0.23000
10191664;-0.24000
10194442;-0.25500
10197219;-0.23000
10199997;-0.23500
10202775;-0.23000
10205553;-0.24000
10208330;-0.25000
10211108;-0.24500
10213886;-0.24000
10216664;-0.23000
10219442;-0.23000
10222219;-0.23500
10224997;-0.25500
10227775;-0.24500
10230553;-0.23500
10233330;-0.22000
10236108;-0.21500
10238886;-0.20000
10241664;-0.21500
10244442;-0.20000
10247219;-0.18000
10249997;-0.17000
10252775;-0.15500
10255553;-0.15500
10258330;-0.16000
10261108;-0.16000
10263886;-0.15000
10266664;-0.14000
10269442;-0.12500
10272219;-0.12500
10274997;-0.12500
10277775;-0.11500
10280553;-0.10500
10283330;-0.10500
10286108;-0.11500
10288886;-0.12500
10291664;-0.15000
10294442;-0.14500
10297219;-0.13500
10299997;-0.12000
10302775;-0.12500
10305553;-0.13000
10308330;-0.13000
10311108;-0.10000
10313886;-0.09500
10316664;-0.12000
10319442;-0.16500
10322219;-0.19500
10324997;-0.21000
10327775;-0.21500
10330553;-0.22500
10333330;-0.22000
10336108;-0.24500
10338886;-0.26500
10341664;-0.27000
10344442;-0.27000
10347219;-0.25000
10349997;-0.24500
10352775;-0.25000
10355553;-0.27000
10358330;-0.27000
10361108;-0.28000
10363886;-0.27500
10366664;-0.27500
10369442;-0.27500
10372219;-0.28500
10374997;-0.29000
10377775;-0.28500
10380553;-0.28500
10383330;-0.28000
10386108;-0.29000
10388886;-0.28500
10391664;-0.30500
10394442;-0.30000
10397219;-0.29000
10399997;-0.28500
10402775;-0.29500
10405553;-0.30000
10408330;-0.31500
10411108;-0.31500
10413886;-0.31500
10416664;-0.34000
10419442;-0.37500
10422219;-0.39500
10424997;-0.43500
10427775;-0.47500
10430553;-0.50000
10433330;-0.47000
10436108;-0.41000
10438886;-0.30500
10441664;-0.16500
10444442;0.03500
10447219;0.30500
10449997;0.58000
10452775;0.78000
10455553;0.85000
10458330;0.74000
10461108;0.46000
10463886;0.08500
10466664;-0.25000
10469442;-0.42500
10472219;-0.46000
10474997;-0.42000
10477775;-0.36000
10480553;-0.32500
10483330;-0.32500
10486108;-0.32500
10488886;-0.32000
10491664;-0.32500
10494442;-0.31500
10497219;-0.30500
10499997;-0.30000
10502775;-0.32000
10505553;-0.32500
10508330;-0.33000
10511108;-0.32500
10513886;-0.32000
10516664;-0.31000
10519441;-0.31500
10522219;-0.33000
10524997;-0.35000
10527775;-0.34500
10530553;-0.32500
10533330;-0.33000
10536108;-0.32500
10538886;-0.32500
10541664;-0.33500
10544441;-0.33500
10547219;-0.32000
10549997;-0.33000
10552775;-0.31500
10555553;-0.31500
10558330;-0.33500
10561108;-0.32500
10563886;-0.32000
10566664;-0.32000
10569441;-0.31500
10572219;-0.33500
10574997;-0.34500
10577775;-0.33500
10580553;-0.32500
10583330;-0.33000
10586108;-0.33500
10588886;-0.34000
10591664;-0.34500
10594441;-0.35000
10597219;-0.34500
10599997;-0.34000
10602775;-0.34000
10605553;-0.34500
10608330;-0.34500
10611108;-0.33500
10613886;-0.32500
10616664;-0.32000
10619441;-0.32500
10622219;-0.34500
10624997;-0.33000
10627775;-0.33500
10630553;-0.32000
10633330;-0.33500
10636108;-0.33000
10638886;-0.33500
10641664;-0.35000
10644441;-0.34000
10647219;-0.33500
10649997;-0.33000
10652775;-0.33000
10655553;-0.33000
10658330;-0.34500
10661108;-0.33500
10663886;-0.32000
10666664;-0.31000
10669441;-0.32500
10672219;-0.33000
10674997;-0.34000
10677775;-0.34000
10680553;-0.34000
10683330;-0.33000
10686108;-0.33000
10688886;-0.34000
10691664;-0.35500
10694441;-0.33500
10697219;-0.33000
10699997;-0.33500
10702775;-0.34500
10705553;-0.34000
10708330;-0.35500
10711108;-0.35500
10713886;-0.36000
10716664;-0.36000
10719441;-0.37000
10722219;-0.36500
10724997;-0.39000
10727775;-0.37500
10730553;-0.35000
10733330;-0.34000
10736108;-0.33000
10738886;-0.33500
10741664;-0.32000
10744441;-0.30000
10747219;-0.29500
10749997;-0.28000
10752775;-0.27500
10755553;-0.28500
10758330;-0.28000
10761108;-0.27000
10763886;-0.25500
10766664;-0.25500
10769441;-0.25000
10772219;-0.26000
10774997;-0.26500
10777775;-0.26000
10780553;-0.24500
10783330;-0.24500
10786108;-0.25000
10788886;-0.26500
10791664;-0.27500
10794441;-0.26000
10797219;-0.25500
10799997;-0.24500
10802775;-0.25000
10805553;-0.25500
10808330;-0.26500
10811108;-0.26500
10813886;-0.25000
10816664;-0.24000
10819441;-0.25000
10822219;-0.25500
10824997;-0.27000
10827775;-0.26500
10830553;-0.25500
10833330;-0.25500
10836108;-0.24500
10838886;-0.26000
10841664;-0.26500
10844441;-0.27000
10847219;-0.27000
10849997;-0.27000
10852775;-0.27000
10855553;-0.29000
10858330;-0.30000
10861108;-0.29000
10863886;-0.28500
10866664;-0.27000
10869441;-0.27500
10872219;-0.29500
10874997;-0.30000
10877775;-0.30000
10880553;-0.29000
10883330;-0.28000
10886108;-0.28000
10888886;-0.29000
10891664;-0.30500
10894441;-0.29500
10897219;-0.29000
10899997;-0.29000
10902775;-0.29500
10905553;-0.30500
10908330;-0.31000
10911108;-0.31000
10913886;-0.30000
10916664;-0.29500
10919441;-0.30000
10922219;-0.30000
10924997;-0.32500
10927775;-0.31500
10930552;-0.31000
10933330;-0.30000
10936108;-0.31000
10938886;-0.32000
10941664;-0.32500
10944441;-0.31500
10947219;-0.31000
10949997;-0.31500
10952775;-0.30500
10955552;-0.31500
10958330;-0.33500
10961108;-0.32000
10963886;-0.31500
10966664;-0.31000
10969441;-0.31500
10972219;-0.31500
10974997;-0.32000
10977775;-0.31000
10980552;-0.30500
10983330;-0.29000
10986108;-0.31000
10988886;-0.31000
10991664;-0.32000
10994441;-0.30500
10997219;-0.30500
10999997;-0.29000
11002775;-0.30500
11005552;-0.30500
11008330;-0.31000
11011108;-0.29500
11013886;-0.27000
11016664;-0.27000
11019441;-0.26000
11022219;-0.26000
11024997;-0.26500
11027775;-0.25500
11030552;-0.24500
11033330;-0.23500
11036108;-0.22500
11038886;-0.23000
11041664;-0.23000
11044441;-0.22500
11047219;-0.19500
11049997;-0.19500
11052775;-0.19500
11055552;-0.20000
11058330;-0.21500
11061108;-0.21000
11063886;-0.21000
11066664;-0.19500
11069441;-0.19500
11072219;-0.19500
11074997;-0.21000
11077775;-0.20000
11080552;-0.18500
11083330;-0.16500
11086108;-0.18000
11088886;-0.22500
11091664;-0.25500
11094441;-0.26500
11097219;-0.27000
11099997;-0.27500
11102775;-0.29000
11105552;-0.32000
11108330;-0.34000
11111108;-0.33500
11113886;-0.33000
11116664;-0.33500
11119441;-0.33000
11122219;-0.33500
11124997;-0.33000
11127775;-0.34000
11130552;-0.33500
11133330;-0.31500
11136108;-0.32500
11138886;-0.34500
11141664;-0.36000
11144441;-0.34500
11147219;-0.36000
11149997;-0.35500
11152775;-0.35000
11155552;-0.36000
11158330;-0.37000
11161108;-0.36500
11163886;-0.37000
11166664;-0.36500
11169441;-0.37000
11172219;-0.37500
11174997;-0.39000
11177775;-0.36500
11180552;-0.37500
11183330;-0.36500
11186108;-0.38500
11188886;-0.42500
11191664;-0.46500
11194441;-0.48500
11197219;-0.47500
11199997;-0.52000
11202775;-0.56000
11205552;-0.58500
11208330;-0.54000
11211108;-0.43000
11213886;-0.30000
11216664;-0.13000
11219441;0.07500
11222219;0.34500
11224997;0.59000
11227775;0.78500
11230552;0.87500
11233330;0.81000
11236108;0.58500
11238886;0.24000
11241664;-0.11000
11244441;-0.36000
11247219;-0.49000
11249997;-0.52000
11252775;-0.49000
11255552;-0.45500
11258330;-0.42500
11261108;-0.41000
11263886;-0.41000
11266664;-0.40500
11269441;-0.40500
11272219;-0.39500
11274997;-0.40500
11277775;-0.40000
11280552;-0.40000
11283330;-0.38500
11286108;-0.39000
11288886;-0.40000
11291664;-0.40500
11294441;-0.40000
11297219;-0.39000
11299997;-0.39000
11302775;-0.40000
11305552;-0.40500
11308330;-0.41500
11311108;-0.41000
11313886;-0.40000
11316663;-0.41000
11319441;-0.40000
11322219;-0.40500
11324997;-0.41500
11327775;-0.41500
11330552;-0.41000
11333330;-0.39000
11336108;-0.39500
11338886;-0.40000
11341663;-0.39000
11344441;-0.39500
11347219;-0.38500
11349997;-0.37500
11352775;-0.38000
11355552;-0.39000
11358330;-0.40000
11361108;-0.40000
11363886;-0.38500
11366663;-0.39500
11369441;-0.39000
11372219;-0.41000
11374997;-0.41000
11377775;-0.39500
11380552;-0.38500
11383330;-0.37500
11386108;-0.38500
11388886;-0.39000
11391663;-0.40500
11394441;-0.39500
11397219;-0.39500
11399997;-0.37500
11402775;-0.37500
11405552;-0.39000
11408330;-0.39000
11411108;-0.38500
11413886;-0.38000
11416663;-0.36500
11419441;-0.37500
11422219;-0.38000
11424997;-0.39500
11427775;-0.38500
11430552;-0.37000
11433330;-0.36500
11436108;-0.36000
11438886;-0.36000
11441663;-0.37000
11444441;-0.36000
11447219;-0.36500
11449997;-0.36000
11452775;-0.36500
11455552;-0.37500
11458330;-0.39000
11461108;-0.40500
11463886;-0.40000
11466663;-0.39000
11469441;-0.40000
11472219;-0.40000
11474997;-0.40500
11477775;-0.41000
11480552;-0.41500
11483330;-0.41000
11486108;-0.42000
11488886;-0.42500
11491663;-0.42500
11494441;-0.41500
11497219;-0.43000
11499997;-0.42000
11502775;-0.42000
11505552;-0.42500
11508330;-0.43000
11511108;-0.43000
11513886;-0.41500
11516663;-0.40500
11519441;-0.40500
11522219;-0.41500
11524997;-0.41000
11527775;-0.39500
11530552;-0.38000
11533330;-0.35000
11536108;-0.35000
11538886;-0.35500
11541663;-0.35000
11544441;-0.34500
11547219;-0.31500
11549997;-0.30500
11552775;-0.30500
11555552;-0.29500
11558330;-0.30500
11561108;-0.29000
11563886;-0.29000
11566663;-0.26500
11569441;-0.27500
11572219;-0.27500
11574997;-0.28500
11577775;-0.28000
11580552;-0.27000
11583330;-0.26500
11586108;-0.27500
11588886;-0.28500
11591663;-0.29000
11594441;-0.29500
11597219;-0.28500
11599997;-0.28000
11602775;-0.28000
11605552;-0.28500
11608330;-0.29500
11611108;-0.30000
11613886;-0.28000
11616663;-0.28500
11619441;-0.28000
11622219;-0.30000
11624997;-0.30500
11627775;-0.31000
11630552;-0.29000
11633330;-0.28500
11636108;-0.29500
11638886;-0.30000
11641663;-0.30500
11644441;-0.30000
11647219;-0.28500
11649997;-0.28500
11652775;-0.30000
11655552;-0.30500
11658330;-0.30000
11661108;-0.29000
11663886;-0.30000
11666663;-0.29000
11669441;-0.29000
11672219;-0.30500
11674997;-0.32000
11677775;-0.31500
11680552;-0.31500
11683330;-0.30000
11686108;-0.31000
11688886;-0.32500
11691663;-0.33500
11694441;-0.33000
11697219;-0.31000
11699997;-0.30500
11702775;-0.32500
11705552;-0.33500
11708330;-0.34000
11711108;-0.34000
11713886;-0.32500
11716663;-0.31500
11719441;-0.32500
11722219;-0.33000
11724997;-0.34000
11727774;-0.32500
11730552;-0.32000
11733330;-0.31500
11736108;-0.32500
11738886;-0.32500
11741663;-0.34000
11744441;-0.33000
11747219;-0.32000
11749997;-0.31500
11752774;-0.32500
11755552;-0.32500
11758330;-0.33000
11761108;-0.33500
11763886;-0.32500
11766663;-0.32000
11769441;-0.33000
11772219;-0.32500
11774997;-0.34000
11777774;-0.34000
11780552;-0.33000
11783330;-0.32000
11786108;-0.32000
11788886;-0.32500
11791663;-0.33000
11794441;-0.31000
11797219;-0.29500
11799997;-0.28500
11802774;-0.27500
11805552;-0.29000
11808330;-0.28000
11811108;-0.26000
11813886;-0.25000
11816663;-0.24000
11819441;-0.24500
11822219;-0.25500
11824997;-0.25500
11827774;-0.23000
11830552;-0.22500
11833330;-0.21500
11836108;-0.22500
11838886;-0.22000
11841663;-0.23000
11844441;-0.22000
11847219;-0.21000
11849997;-0.20500
11852774;-0.20500
11855552;-0.22000
11858330;-0.22500
11861108;-0.24000
11863886;-0.22500
11866663;-0.23000
11869441;-0.22000
11872219;-0.23000
11874997;-0.22500
11877774;-0.21500
11880552;-0.19500
11883330;-0.16500
11886108;-0.18500
11888886;-0.22500
11891663;-0.25500
11894441;-0.27000
11897219;-0.27000
11899997;-0.29000
11902774;-0.31000
11905552;-0.33500
11908330;-0.34500
11911108;-0.36000
11913886;-0.35500
11916663;-0.34500
11919441;-0.34500
11922219;-0.35000
11924997;-0.37000
11927774;-0.36500
11930552;-0.36000
11933330;-0.36500
11936108;-0.36500
11938886;-0.37500
11941663;-0.39000
11944441;-0.37500
11947219;-0.38000
11949997;-0.37000
11952774;-0.37000
11955552;-0.37500
11958330;-0.39000
11961108;-0.38000
11963886;-0.38500
11966663;-0.38500
11969441;-0.37500
11972219;-0.38500
11974997;-0.41500
11977774;-0.43000
11980552;-0.46000
11983330;-0.49000
11986108;-0.50000
11988886;-0.54000
11991663;-0.59500
11994441;-0.61000
11997219;-0.55500
11999997;-0.44500
12002774;-0.32000
12005552;-0.17500
12008330;0.01000
12011108;0.28500
12013886;0.55000
12016663;0.73000
12019441;0.82000
12022219;0.77500
12024997;0.54500
12027774;0.20000
12030552;-0.15000
12033330;-0.40000
12036108;-0.53000
12038886;-0.59000
12041663;-0.59000
12044441;-0.57000
12047219;-0.54000
12049997;-0.48500
12052774;-0.44000
12055552;-0.43000
12058330;-0.43000
12061108;-0.43500
12063886;-0.43000
12066663;-0.42000
12069441;-0.42000
12072219;-0.42500
12074997;-0.42000
12077774;-0.41500
12080552;-0.41000
12083330;-0.39500
12086108;-0.41000
12088886;-0.41000
12091663;-0.42000
12094441;-0.43000
12097219;-0.41000
12099997;-0.40000
12102774;-0.42000
12105552;-0.41000
12108330;-0.43000
12111108;-0.42000
12113885;-0.41500
12116663;-0.41000
12119441;-0.41000
12122219;-0.41000
12124997;-0.42000
12127774;-0.42000
12130552;-0.40500
12133330;-0.40000
12136108;-0.40000
12138885;-0.41000
12141663;-0.43000
12144441;-0.42000
12147219;-0.40500
12149997;-0.40000
12152774;-0.40000
12155552;-0.41000
12158330;-0.41000
12161108;-0.40500
12163885;-0.40000
12166663;-0.39000
12169441;-0.40000
12172219;-0.40500
12174997;-0.41500
12177774;-0.41500
12180552;-0.41000
12183330;-0.40500
12186108;-0.40000
12188885;-0.41000
12191663;-0.42000
12194441;-0.41500
12197219;-0.40500
12199997;-0.40000
12202774;-0.40000
12205552;-0.40500
12208330;-0.42500
12211108;-0.41000
12213885;-0.41000
12216663;-0.39500
12219441;-0.40000
12222219;-0.40500
12224997;-0.41000
12227774;-0.39000
12230552;-0.39500
12233330;-0.37500
12236108;-0.38500
12238885;-0.38500
12241663;-0.38500
12244441;-0.39000
12247219;-0.38000
12249997;-0.38000
12252774;-0.39000
12255552;-0.39500
12258330;-0.41500
12261108;-0.40000
12263885;-0.39500
12266663;-0.39500
12269441;-0.40000
12272219;-0.40000
12274997;-0.42000
12277774;-0.42000
12280552;-0.40000
12283330;-0.41000
12286108;-0.41000
12288885;-0.41000
12291663;-0.42500
12294441;-0.42500
12297219;-0.41500
12299997;-0.41000
12302774;-0.41000
12305552;-0.41500
12308330;-0.41500
12311108;-0.41000
12313885;-0.41000
12316663;-0.39500
12319441;-0.39500
12322219;-0.39000
12324997;-0.39500
12327774;-0.38500
12330552;-0.37000
12333330;-0.35500
12336108;-0.36000
12338885;-0.36000
12341663;-0.36000
12344441;-0.35500
12347219;-0.36000
12349997;-0.33500
12352774;-0.33500
12355552;-0.33000
12358330;-0.34500
12361108;-0.34000
12363885;-0.32500
12366663;-0.32500
12369441;-0.33000
12372219;-0.33000
12374997;-0.34500
12377774;-0.32000
12380552;-0.31000
12383330;-0.32500
12386108;-0.31000
12388885;-0.32000
12391663;-0.33500
12394441;-0.32000
12397219;-0.32000
12399997;-0.30500
12402774;-0.31500
12405552;-0.31500
12408330;-0.32500
12411108;-0.30500
12413885;-0.31000
12416663;-0.31000
12419441;-0.30500
12422219;-0.31000
12424997;-0.33000
12427774;-0.32500
12430552;-0.33000
12433330;-0.31500
12436108;-0.32500
12438885;-0.32500
12441663;-0.33500
12444441;-0.34000
12447219;-0.34000
12449997;-0.33000
12452774;-0.34000
12455552;-0.34500
12458330;-0.35000
12461108;-0.35500
12463885;-0.34500
12466663;-0.33500
12469441;-0.34000
12472219;-0.35000
12474997;-0.36000
12477774;-0.35000
12480552;-0.34000
12483330;-0.33500
12486108;-0.33000
12488885;-0.35500
12491663;-0.37000
12494441;-0.35500
12497219;-0.34500
12499996;-0.34500
12502774;-0.34500
12505552;-0.35500
12508330;-0.37000
12511108;-0.36500
12513885;-0.36000
12516663;-0.36000
12519441;-0.37000
12522219;-0.36500
12524996;-0.37500
12527774;-0.38000
12530552;-0.37000
12533330;-0.36000
12536108;-0.36500
12538885;-0.37000
12541663;-0.37500
12544441;-0.37000
12547219;-0.38000
12549996;-0.36000
12552774;-0.37000
12555552;-0.37500
12558330;-0.38000
12561108;-0.38000
12563885;-0.36500
12566663;-0.36000
12569441;-0.36000
12572219;-0.36000
12574996;-0.38000
12577774;-0.37000
12580552;-0.36500
12583330;-0.36000
12586108;-0.36000
12588885;-0.36000
12591663;-0.37500
12594441;-0.35500
12597219;-0.36000
12599996;-0.35500
12602774;-0.36000
12605552;-0.37000
12608330;-0.37000
12611108;-0.37000
12613885;-0.37000
12616663;-0.36000
12619441;-0.36000
12622219;-0.37000
12624996;-0.37500
12627774;-0.36000
12630552;-0.34000
12633330;-0.33000
12636108;-0.33000
12638885;-0.32500
12641663;-0.33000
12644441;-0.32000
12647219;-0.30500
12649996;-0.29000
12652774;-0.27000
12655552;-0.29000
12658330;-0.28000
12661108;-0.27500
12663885;-0.25500
12666663;-0.24000
12669441;-0.23000
12672219;-0.24000
12674996;-0.26000
12677774;-0.26500
12680552;-0.25000
12683330;-0.25500
12686108;-0.26500
12688885;-0.26000
12691663;-0.26000
12694441;-0.26000
12697219;-0.25000
12699996;-0.25500
12702774;-0.25500
12705552;-0.24000
12708330;-0.22500
12711108;-0.23500
12713885;-0.25500
12716663;-0.29000
12719441;-0.30000
12722219;-0.31000
12724996;-0.33000
12727774;-0.32000
12730552;-0.31500
12733330;-0.32000
12736108;-0.33000
12738885;-0.35000
12741663;-0.36000
12744441;-0.37000
12747219;-0.37000
12749996;-0.37500
12752774;-0.37500
12755552;-0.39000
12758330;-0.41500
12761108;-0.40000
12763885;-0.38000
12766663;-0.38500
12769441;-0.39000
12772219;-0.41000
12774996;-0.41500
12777774;-0.42000
12780552;-0.40500
12783330;-0.39500
12786108;-0.40500
12788885;-0.42000
12791663;-0.43000
12794441;-0.41500
12797219;-0.42500
12799996;-0.42000
12802774;-0.41500
12805552;-0.42500
12808330;-0.42500
12811108;-0.43000
12813885;-0.42500
12816663;-0.42500
12819441;-0.44000
12822219;-0.47000
12824996;-0.51500
12827774;-0.54500
12830552;-0.54500
12833330;-0.57000
12836108;-0.61000
12838885;-0.63500
12841663;-0.61000
12844441;-0.51000
12847219;-0.39500
12849996;-0.26000
12852774;-0.08000
12855552;0.13500
12858330;0.37000
12861108;0.57500
12863885;0.69000
12866663;0.72000
12869441;0.61000
12872219;0.35000
12874996;-0.00500
12877774;-0.31500
12880552;-0.51500
12883330;-0.57000
12886108;-0.56500
12888885;-0.53500
12891663;-0.50000
12894441;-0.48500
12897219;-0.47000
12899996;-0.47000
12902774;-0.46000
12905552;-0.46500
12908330;-0.46500
12911107;-0.44500
12913885;-0.44500
12916663;-0.44000
12919441;-0.44500
12922219;-0.45500
12924996;-0.46000
12927774;-0.46000
12930552;-0.45500
12933330;-0.45500
12936107;-0.45000
12938885;-0.47000
12941663;-0.47000
12944441;-0.46000
12947219;-0.46000
12949996;-0.45000
12952774;-0.45500
12955552;-0.47000
12958330;-0.47500
12961107;-0.46000
12963885;-0.46000
12966663;-0.45000
12969441;-0.44500
12972219;-0.45500
12974996;-0.47500
12977774;-0.47000
12980552;-0.46000
12983330;-0.46000
12986107;-0.44000
12988885;-0.46000
12991663;-0.46500
12994441;-0.46500
12997219;-0.44500
12999996;-0.44000
13002774;-0.44000
13005552;-0.45000
13008330;-0.45500
13011107;-0.45000
13013885;-0.46000
13016663;-0.45500
13019441;-0.46000
13022219;-0.47000
13024996;-0.45500
13027774;-0.45500
13030552;-0.44500
13033330;-0.44000
13036107;-0.44500
13038885;-0.44000
13041663;-0.45000
13044441;-0.44000
13047219;-0.44000
13049996;-0.42500
13052774;-0.42500
13055552;-0.43500
13058330;-0.44500
13061107;-0.43500
13063885;-0.42500
13066663;-0.42000
13069441;-0.42000
13072219;-0.42000
13074996;-0.44000
13077774;-0.44000
13080552;-0.43500
13083330;-0.42500
13086107;-0.43500
13088885;-0.44500
13091663;-0.45000
13094441;-0.45000
13097219;-0.43500
13099996;-0.43500
13102774;-0.44000
13105552;-0.43500
13108330;-0.46000
13111107;-0.46000
13113885;-0.44500
13116663;-0.44500
13119441;-0.44500
13122219;-0.45500
13124996;-0.47000
13127774;-0.47500
13130552;-0.47000
13133330;-0.46000
13136107;-0.45000
13138885;-0.45500
13141663;-0.47000
13144441;-0.46500
13147219;-0.46000
13149996;-0.46000
13152774;-0.45500
13155552;-0.46500
13158330;-0.48500
13161107;-0.47500
13163885;-0.47000
13166663;-0.46500
13169441;-0.45500
13172219;-0.46500
13174996;-0.46500
13177774;-0.45000
13180552;-0.44000
13183330;-0.43500
13186107;-0.41500
13188885;-0.42000
13191663;-0.43000
13194441;-0.43000
13197219;-0.41000
13199996;-0.39000
13202774;-0.38500
13205552;-0.39000
13208330;-0.39000
13211107;-0.39000
13213885;-0.38000
13216663;-0.37000
13219441;-0.36500
13222219;-0.36000
13224996;-0.38000
13227774;-0.37000
13230552;-0.35500
13233330;-0.35000
13236107;-0.35000
13238885;-0.36000
13241663;-0.36500
13244441;-0.37000
13247219;-0.36000
13249996;-0.36500
13252774;-0.35500
13255552;-0.38500
13258330;-0.37500
13261107;-0.37500
13263885;-0.37000
13266663;-0.36000
13269441;-0.36500
13272219;-0.37000
13274996;-0.38500
13277774;-0.38500
13280552;-0.38000
13283330;-0.37000
13286107;-0.38000
13288885;-0.38000
13291663;-0.40500
13294441;-0.38500
13297218;-0.38000
13299996;-0.37500
13302774;-0.36500
13305552;-0.38000
13308330;-0.39000
13311107;-0.37500
13313885;-0.37500
13316663;-0.37000
13319441;-0.37500
13322218;-0.37500
13324996;-0.38500
13327774;-0.40500
13330552;-0.39000
13333330;-0.38500
13336107;-0.39000
13338885;-0.39500
13341663;-0.40000
13344441;-0.40500
13347218;-0.40000
13349996;-0.39500
13352774;-0.40000
13355552;-0.41000
13358330;-0.42000
13361107;-0.41500
13363885;-0.40500
13366663;-0.39500
13369441;-0.40000
13372218;-0.41000
13374996;-0.40500
13377774;-0.40000
13380552;-0.39000
13383330;-0.39000
13386107;-0.40500
13388885;-0.41000
13391663;-0.42000
13394441;-0.41500
13397218;-0.39500
13399996;-0.39500
13402774;-0.40500
13405552;-0.40500
13408330;-0.41500
13411107;-0.42500
13413885;-0.40500
13416663;-0.41000
13419441;-0.41500
13422218;-0.42500
13424996;-0.42500
13427774;-0.44000
13430552;-0.43500
13433330;-0.41500
13436107;-0.41500
13438885;-0.41500
13441663;-0.43000
13444441;-0.41500
13447218;-0.42000
13449996;-0.41000
13452774;-0.42000
13455552;-0.41500
13458330;-0.42000
13461107;-0.40500
13463885;-0.39000
13466663;-0.39000
13469441;-0.38500
13472218;-0.40000
13474996;-0.42000
13477774;-0.41000
13480552;-0.39500
13483330;-0.39500
13486107;-0.40000
13488885;-0.39000
13491663;-0.37500
13494441;-0.37000
13497218;-0.36000
13499996;-0.35000
13502774;-0.36000
13505552;-0.35500
13508330;-0.36000
13511107;-0.35000
13513885;-0.33000
13516663;-0.31000
13519441;-0.30500
13522218;-0.29500
13524996;-0.30500
13527774;-0.29000
13530552;-0.29000
13533330;-0.28000
13536107;-0.29000
13538885;-0.31000
13541663;-0.33500
13544441;-0.33500
13547218;-0.32500
13549996;-0.30000
13552774;-0.30500
13555552;-0.31500
13558330;-0.31500
13561107;-0.31000
13563885;-0.29000
13566663;-0.29000
13569441;-0.31500
13572218;-0.36000
13574996;-0.38500
13577774;-0.39500
13580552;-0.38500
13583330;-0.40500
13586107;-0.43000
13588885;-0.43500
13591663;-0.44500
13594441;-0.45500
13597218;-0.44500
13599996;-0.42000
13602774;-0.42500
13605552;-0.44000
13608330;-0.45500
13611107;-0.45500
13613885;-0.45000
13616663;-0.45000
13619441;-0.45500
13622218;-0.46500
13624996;-0.49000
13627774;-0.48000
13630552;-0.46000
13633330;-0.46500
13636107;-0.46500
13638885;-0.47000
13641663;-0.48000
13644441;-0.47500
13647218;-0.46500
13649996;-0.45500
13652774;-0.47000
13655552;-0.50000
13658330;-0.55000
13661107;-0.58000
13663885;-0.57000
13666663;-0.57000
13669441;-0.58500
13672218;-0.62000
13674996;-0.68500
13677774;-0.72500
13680552;-0.72000
13683330;-0.69500
13686107;-0.66500
13688885;-0.60500
13691663;-0.51500
13694441;-0.40000
13697218;-0.24500
13699996;-0.03500
13702774;0.23500
13705552;0.47000
13708329;0.63000
13711107;0.68000
13713885;0.56500
13716663;0.29500
13719441;-0.07500
13722218;-0.38000
13724996;-0.57500
13727774;-0.62500
13730552;-0.62000
13733329;-0.55500
13736107;-0.52000
13738885;-0.52000
13741663;-0.53000
13744441;-0.53000
13747218;-0.50500
13749996;-0.49500
13752774;-0.51000
13755552;-0.51500
13758329;-0.52500
13761107;-0.53000
13763885;-0.51500
13766663;-0.50000
13769441;-0.50500
13772218;-0.51000
13774996;-0.52000
13777774;-0.51500
13780552;-0.50000
13783329;-0.49500
13786107;-0.50500
13788885;-0.52000
13791663;-0.53000
13794441;-0.52000
13797218;-0.51000
13799996;-0.50500
13802774;-0.51000
