time_ms;ecg_value
0;0.85000
2778;0.92000
5556;0.89500
8333;0.68500
11111;0.32500
13889;-0.05000
16667;-0.31500
19444;-0.43500
22222;-0.47000
25000;-0.45000
27778;-0.43500
30556;-0.40000
33333;-0.37500
36111;-0.37000
38889;-0.36000
41667;-0.36500
44444;-0.36000
47222;-0.35500
50000;-0.38500
52778;-0.38000
55556;-0.37500
58333;-0.36500
61111;-0.36500
63889;-0.37000
66667;-0.38000
69444;-0.37500
72222;-0.36000
75000;-0.35500
77778;-0.37000
80556;-0.38000
83333;-0.38000
86111;-0.37500
88889;-0.37000
91667;-0.36000
94444;-0.36000
97222;-0.36500
100000;-0.37500
102778;-0.37000
105556;-0.36500
108333;-0.35500
111111;-0.36000
113889;-0.37000
116667;-0.38500
119444;-0.38000
122222;-0.39000
125000;-0.38500
127778;-0.37500
130556;-0.38000
133333;-0.38500
136111;-0.38000
138889;-0.37000
141667;-0.36500
144444;-0.36000
147222;-0.38000
150000;-0.39500
152778;-0.39000
155556;-0.37500
158333;-0.36500
161111;-0.37000
163889;-0.37500
166667;-0.38000
169444;-0.38500
172222;-0.38000
175000;-0.38000
177778;-0.38000
180556;-0.37500
183333;-0.39000
186111;-0.39000
188889;-0.37000
191667;-0.36500
194444;-0.38000
197222;-0.38500
200000;-0.38500
202778;-0.38500
205555;-0.36000
208333;-0.36500
211111;-0.36000
213889;-0.37000
216667;-0.38500
219444;-0.37500
222222;-0.37000
225000;-0.36500
227778;-0.37000
230555;-0.38000
233333;-0.39500
236111;-0.39000
238889;-0.39000
241667;-0.38000
244444;-0.38000
247222;-0.39000
250000;-0.39000
252778;-0.40000
255555;-0.40000
258333;-0.39000
261111;-0.37500
263889;-0.39000
266667;-0.40500
269444;-0.40500
272222;-0.39000
275000;-0.38500
277778;-0.39000
280555;-0.40000
283333;-0.41500
286111;-0.41000
288889;-0.39500
291667;-0.37500
294444;-0.37000
297222;-0.37000
300000;-0.37500
302778;-0.36000
305555;-0.34500
308333;-0.34000
311111;-0.33000
313889;-0.33000
316667;-0.34000
319444;-0.32500
322222;-0.30000
325000;-0.29000
327778;-0.29000
330555;-0.29000
333333;-0.30000
336111;-0.29000
338889;-0.27500
341667;-0.25500
344444;-0.25500
347222;-0.26000
350000;-0.27000
352778;-0.26000
355555;-0.25500
358333;-0.26500
361111;-0.26500
363889;-0.26000
366667;-0.27000
369444;-0.26000
372222;-0.25000
375000;-0.24500
377778;-0.25500
380555;-0.26000
383333;-0.26500
386111;-0.26500
388889;-0.25000
391667;-0.25500
394444;-0.24500
397222;-0.27000
400000;-0.29000
402778;-0.27500
405555;-0.28000
408333;-0.28000
411111;-0.29000
413889;-0.29000
416667;-0.30000
419444;-0.29000
422222;-0.28000
425000;-0.25500
427778;-0.26500
430555;-0.27500
433333;-0.27500
436111;-0.27500
438889;-0.28000
441667;-0.27500
444444;-0.28000
447222;-0.30000
450000;-0.30000
452778;-0.29500
455555;-0.28500
458333;-0.29000
461111;-0.30000
463889;-0.31500
466667;-0.31000
469444;-0.30500
472222;-0.28500
475000;-0.28500
477778;-0.30000
480555;-0.31500
483333;-0.32500
486111;-0.32000
488889;-0.31500
491667;-0.29000
494444;-0.29500
497222;-0.30500
500000;-0.31000
502778;-0.31500
505555;-0.30500
508333;-0.30000
511111;-0.29000
513889;-0.29500
516667;-0.31000
519444;-0.31000
522222;-0.30500
525000;-0.29000
527778;-0.29500
530555;-0.29500
533333;-0.31000
536111;-0.30000
538889;-0.30000
541667;-0.29500
544444;-0.30000
547222;-0.31500
550000;-0.32000
552778;-0.31500
555555;-0.31500
558333;-0.32000
561111;-0.31500
563889;-0.30500
566667;-0.29500
569444;-0.29500
572222;-0.28500
575000;-0.27500
577778;-0.27500
580555;-0.28000
583333;-0.28500
586111;-0.27000
588889;-0.24500
591667;-0.22000
594444;-0.21500
597222;-0.23500
600000;-0.23500
602778;-0.24000
605555;-0.22500
608333;-0.21000
611111;-0.20500
613889;-0.20500
616666;-0.21000
619444;-0.20000
622222;-0.20000
625000;-0.20000
627778;-0.21500
630555;-0.22000
633333;-0.23500
636111;-0.23000
638889;-0.21500
641666;-0.19500
644444;-0.20500
647222;-0.20000
650000;-0.21500
652778;-0.22000
655555;-0.19500
658333;-0.18000
661111;-0.20000
663889;-0.23000
666666;-0.25500
669444;-0.25500
672222;-0.26000
675000;-0.27500
677778;-0.27000
680555;-0.31000
683333;-0.31500
686111;-0.31500
688889;-0.31500
691666;-0.31000
694444;-0.30500
697222;-0.31500
700000;-0.33000
702778;-0.32500
705555;-0.32500
708333;-0.30000
711111;-0.30500
713889;-0.32000
716666;-0.32500
719444;-0.32500
722222;-0.32000
725000;-0.33000
727778;-0.33000
730555;-0.33500
733333;-0.33000
736111;-0.31500
738889;-0.30500
741666;-0.30500
744444;-0.31000
747222;-0.32000
750000;-0.35500
752778;-0.38000
755555;-0.42000
758333;-0.42500
761111;-0.45000
763889;-0.49000
766666;-0.52500
769444;-0.50000
772222;-0.41000
775000;-0.28500
777778;-0.15500
780555;0.01000
783333;0.21000
786111;0.48000
788889;0.72500
791666;0.90000
794444;0.97000
797222;0.90500
800000;0.65000
802778;0.29000
805555;-0.05500
808333;-0.27500
811111;-0.39000
813889;-0.44000
816666;-0.49000
819444;-0.49500
822222;-0.47000
825000;-0.41000
827778;-0.38500
830555;-0.38000
833333;-0.38000
836111;-0.37000
838889;-0.35000
841666;-0.35000
844444;-0.34500
847222;-0.36000
850000;-0.37000
852778;-0.38000
855555;-0.36500
858333;-0.36500
861111;-0.38000
863889;-0.38000
866666;-0.39500
869444;-0.39500
872222;-0.38500
875000;-0.36500
877778;-0.36000
880555;-0.36500
883333;-0.37000
886111;-0.37500
888889;-0.37500
891666;-0.36500
894444;-0.38000
897222;-0.38000
900000;-0.39000
902778;-0.38000
905555;-0.37000
908333;-0.37500
911111;-0.37500
913889;-0.38500
916666;-0.39000
919444;-0.39500
922222;-0.38500
925000;-0.37500
927778;-0.39000
930555;-0.39500
933333;-0.38500
936111;-0.41000
938889;-0.40000
941666;-0.37500
944444;-0.38500
947222;-0.38500
950000;-0.39500
952778;-0.40000
955555;-0.39000
958333;-0.37000
961111;-0.38000
963889;-0.38000
966666;-0.40000
969444;-0.39000
972222;-0.39000
975000;-0.37500
977778;-0.37500
980555;-0.39500
983333;-0.39000
986111;-0.39000
988889;-0.39000
991666;-0.36500
994444;-0.38000
997222;-0.38000
1000000;-0.39000
1002777;-0.39000
1005555;-0.38500
1008333;-0.37500
1011111;-0.38000
1013889;-0.39000
1016666;-0.38500
1019444;-0.38000
1022222;-0.37500
1025000;-0.37500
1027777;-0.37500
1030555;-0.39000
1033333;-0.40500
1036111;-0.40000
1038889;-0.39500
1041666;-0.38500
1044444;-0.39000
1047222;-0.40500
1050000;-0.41500
1052777;-0.41000
1055555;-0.42000
1058333;-0.40500
1061111;-0.41500
1063889;-0.42000
1066666;-0.42500
1069444;-0.42000
1072222;-0.42500
1075000;-0.40500
1077777;-0.39500
1080555;-0.39000
1083333;-0.38000
1086111;-0.36500
1088889;-0.34500
1091666;-0.31500
1094444;-0.30500
1097222;-0.30000
1100000;-0.30000
1102777;-0.28500
1105555;-0.27000
1108333;-0.25000
1111111;-0.24000
1113889;-0.24000
1116666;-0.24000
1119444;-0.25000
1122222;-0.23500
1125000;-0.22000
1127777;-0.22500
1130555;-0.22500
1133333;-0.24000
1136111;-0.24500
1138889;-0.22500
1141666;-0.20000
1144444;-0.20000
1147222;-0.20000
1150000;-0.21500
1152777;-0.21500
1155555;-0.20500
1158333;-0.20500
1161111;-0.22000
1163889;-0.21500
1166666;-0.22000
1169444;-0.22500
1172222;-0.21000
1175000;-0.21000
1177777;-0.20000
1180555;-0.21500
1183333;-0.22500
1186111;-0.21500
1188889;-0.20000
1191666;-0.20000
1194444;-0.21500
1197222;-0.22500
1200000;-0.23000
1202777;-0.22000
1205555;-0.22000
1208333;-0.22000
1211111;-0.22500
1213889;-0.22500
1216666;-0.23500
1219444;-0.23000
1222222;-0.22000
1225000;-0.21000
1227777;-0.22000
1230555;-0.23500
1233333;-0.23500
1236111;-0.23500
1238889;-0.23500
1241666;-0.22500
1244444;-0.23500
1247222;-0.23500
1250000;-0.24500
1252777;-0.24500
1255555;-0.25000
1258333;-0.23500
1261111;-0.24000
1263889;-0.26000
1266666;-0.26500
1269444;-0.25500
1272222;-0.25500
1275000;-0.25000
1277777;-0.24000
1280555;-0.25500
1283333;-0.25000
1286111;-0.25000
1288889;-0.25000
1291666;-0.24000
1294444;-0.24500
1297222;-0.23000
1300000;-0.25500
1302777;-0.25500
1305555;-0.23500
1308333;-0.22500
1311111;-0.22000
1313889;-0.24000
1316666;-0.24500
1319444;-0.24000
1322222;-0.24000
1325000;-0.23000
1327777;-0.24000
1330555;-0.24000
1333333;-0.24500
1336111;-0.24500
1338889;-0.24000
1341666;-0.23000
1344444;-0.23000
1347222;-0.24000
1350000;-0.24000
1352777;-0.24500
1355555;-0.23000
1358333;-0.22500
1361111;-0.22000
1363889;-0.23500
1366666;-0.24000
1369444;-0.23000
1372222;-0.22500
1375000;-0.20000
1377777;-0.21000
1380555;-0.19500
1383333;-0.18500
1386111;-0.18000
1388888;-0.17000
1391666;-0.16500
1394444;-0.16000
1397222;-0.17500
1400000;-0.17000
1402777;-0.16000
1405555;-0.14000
1408333;-0.12000
1411111;-0.12500
1413888;-0.12000
1416666;-0.12000
1419444;-0.12000
1422222;-0.12000
1425000;-0.12000
1427777;-0.14000
1430555;-0.14500
1433333;-0.15500
1436111;-0.16000
1438888;-0.15500
1441666;-0.14500
1444444;-0.14500
1447222;-0.15000
1450000;-0.13000
1452777;-0.12500
1455555;-0.14000
1458333;-0.15500
1461111;-0.18500
1463888;-0.21000
1466666;-0.23000
1469444;-0.25000
1472222;-0.25000
1475000;-0.24000
1477777;-0.24500
1480555;-0.26000
1483333;-0.26000
1486111;-0.26000
1488888;-0.24500
1491666;-0.23500
1494444;-0.24000
1497222;-0.25000
1500000;-0.26500
1502777;-0.26000
1505555;-0.24500
1508333;-0.24000
1511111;-0.25500
1513888;-0.26500
1516666;-0.25500
1519444;-0.27500
1522222;-0.25000
1525000;-0.24500
1527777;-0.25000
1530555;-0.26500
1533333;-0.27500
1536111;-0.27500
1538888;-0.26000
1541666;-0.26500
1544444;-0.27500
1547222;-0.31500
1550000;-0.35500
1552777;-0.39500
1555555;-0.40500
1558333;-0.41500
1561111;-0.44000
1563888;-0.44500
1566666;-0.36500
1569444;-0.22500
1572222;-0.05000
1575000;0.13000
1577777;0.34500
1580555;0.63500
1583333;0.88500
1586111;1.04500
1588888;1.12000
1591666;1.04000
1594444;0.71000
1597222;0.26000
1600000;-0.14500
1602777;-0.37500
1605555;-0.40500
1608333;-0.36000
1611111;-0.29500
1613888;-0.28500
1616666;-0.30000
1619444;-0.32000
1622222;-0.31500
1625000;-0.29500
1627777;-0.30000
1630555;-0.31500
1633333;-0.33500
1636111;-0.34000
1638888;-0.32500
1641666;-0.31500
1644444;-0.30500
1647222;-0.31500
1650000;-0.33500
1652777;-0.33500
1655555;-0.32500
1658333;-0.32000
1661111;-0.31500
1663888;-0.33000
1666666;-0.33500
1669444;-0.32500
1672222;-0.31500
1675000;-0.30000
1677777;-0.31000
1680555;-0.32000
1683333;-0.32000
1686111;-0.32500
1688888;-0.32000
1691666;-0.31000
1694444;-0.32000
1697222;-0.32500
1700000;-0.32500
1702777;-0.32500
1705555;-0.31500
1708333;-0.30500
1711111;-0.31500
1713888;-0.32000
1716666;-0.32000
1719444;-0.33000
1722222;-0.32500
1725000;-0.31500
1727777;-0.31000
1730555;-0.32500
1733333;-0.33500
1736111;-0.33500
1738888;-0.32000
1741666;-0.31500
1744444;-0.32000
1747222;-0.34500
1750000;-0.34000
1752777;-0.34000
1755555;-0.33500
1758333;-0.33000
1761111;-0.33500
1763888;-0.35000
1766666;-0.35500
1769444;-0.35000
1772222;-0.33500
1775000;-0.32500
1777777;-0.33000
1780555;-0.32500
1783333;-0.33500
1786111;-0.33500
1788888;-0.35000
1791666;-0.32000
1794444;-0.32500
1797222;-0.33000
1799999;-0.34000
1802777;-0.34000
1805555;-0.33000
1808333;-0.31500
1811111;-0.32000
1813888;-0.32500
1816666;-0.34000
1819444;-0.33500
1822222;-0.33500
1824999;-0.33000
1827777;-0.33500
1830555;-0.34000
1833333;-0.35000
1836111;-0.36000
1838888;-0.36000
1841666;-0.35000
1844444;-0.35000
1847222;-0.35500
1849999;-0.36000
1852777;-0.37000
1855555;-0.35000
1858333;-0.34000
1861111;-0.34500
1863888;-0.34000
1866666;-0.33000
1869444;-0.33500
1872222;-0.31500
1874999;-0.29000
1877777;-0.28500
1880555;-0.27000
1883333;-0.27000
1886111;-0.27000
1888888;-0.24500
1891666;-0.23000
1894444;-0.23500
1897222;-0.23000
1899999;-0.24000
1902777;-0.24500
1905555;-0.23000
1908333;-0.20000
1911111;-0.21000
1913888;-0.21500
1916666;-0.21500
1919444;-0.20500
1922222;-0.19000
1924999;-0.18000
1927777;-0.19000
1930555;-0.19500
1933333;-0.19500
1936111;-0.20000
1938888;-0.18500
1941666;-0.17500
1944444;-0.18000
1947222;-0.20000
1949999;-0.21000
1952777;-0.21500
1955555;-0.22000
1958333;-0.19000
1961111;-0.20500
1963888;-0.20000
1966666;-0.21500
1969444;-0.22000
1972222;-0.20500
1974999;-0.20000
1977777;-0.19500
1980555;-0.21500
1983333;-0.23000
1986111;-0.22000
1988888;-0.20500
1991666;-0.20500
1994444;-0.20000
1997222;-0.21500
1999999;-0.22500
2002777;-0.22500
2005555;-0.22000
2008333;-0.22000
2011111;-0.22000
2013888;-0.23000
2016666;-0.24000
2019444;-0.24000
2022222;-0.23000
2024999;-0.23000
2027777;-0.24000
2030555;-0.24000
2033333;-0.26500
2036111;-0.26500
2038888;-0.25000
2041666;-0.25000
2044444;-0.25000
2047222;-0.26500
2049999;-0.26000
2052777;-0.26500
2055555;-0.25500
2058333;-0.23000
2061111;-0.25500
2063888;-0.25000
2066666;-0.25500
2069444;-0.26500
2072222;-0.25500
2074999;-0.24500
2077777;-0.25000
2080555;-0.25500
2083333;-0.25500
2086111;-0.26500
2088888;-0.26000
2091666;-0.24500
2094444;-0.24500
2097222;-0.25500
2099999;-0.26000
2102777;-0.27000
2105555;-0.26000
2108333;-0.24000
2111111;-0.25000
2113888;-0.24500
2116666;-0.25000
2119444;-0.25500
2122222;-0.24000
2124999;-0.23000
2127777;-0.23000
2130555;-0.24000
2133333;-0.25000
2136111;-0.23000
2138888;-0.21000
2141666;-0.20000
2144444;-0.19000
2147222;-0.18500
2149999;-0.18000
2152777;-0.17500
2155555;-0.16500
2158333;-0.16500
2161111;-0.16500
2163888;-0.15500
2166666;-0.17000
2169444;-0.19000
2172222;-0.17000
2174999;-0.15000
2177777;-0.15000
2180555;-0.13500
2183333;-0.14000
2186110;-0.13000
2188888;-0.13500
2191666;-0.13000
2194444;-0.14500
2197222;-0.16500
2199999;-0.15500
2202777;-0.17000
2205555;-0.17500
2208333;-0.14500
2211110;-0.15500
2213888;-0.17000
2216666;-0.16500
2219444;-0.15000
2222222;-0.11500
2224999;-0.11000
2227777;-0.13000
2230555;-0.17000
2233333;-0.20000
2236110;-0.21500
2238888;-0.22000
2241666;-0.22000
2244444;-0.24000
2247222;-0.25000
2249999;-0.26500
2252777;-0.27500
2255555;-0.27500
2258333;-0.25500
2261110;-0.25500
2263888;-0.28000
2266666;-0.27000
2269444;-0.28000
2272222;-0.28000
2274999;-0.26500
2277777;-0.26500
2280555;-0.28000
2283333;-0.27500
2286110;-0.27500
2288888;-0.27000
2291666;-0.27000
2294444;-0.27000
2297222;-0.27500
2299999;-0.28500
2302777;-0.29000
2305555;-0.28000
2308333;-0.29500
2311110;-0.33000
2313888;-0.36500
2316666;-0.40500
2319444;-0.43000
2322222;-0.45500
2324999;-0.47000
2327777;-0.44500
2330555;-0.35000
2333333;-0.20000
2336110;-0.02500
2338888;0.17000
2341666;0.43500
2344444;0.71500
2347222;0.95000
2349999;1.10500
2352777;1.18000
2355555;1.17000
2358333;1.02500
2361110;0.72500
2363888;0.36000
2366666;0.03000
2369444;-0.24500
2372222;-0.39000
2374999;-0.42500
2377777;-0.41000
2380555;-0.37000
2383333;-0.34000
2386110;-0.33000
2388888;-0.33000
2391666;-0.31000
2394444;-0.32500
2397222;-0.33000
2399999;-0.33500
2402777;-0.34500
2405555;-0.34000
2408333;-0.33500
2411110;-0.33000
2413888;-0.34000
2416666;-0.34000
2419444;-0.35000
2422222;-0.33000
2424999;-0.33000
2427777;-0.33000
2430555;-0.34000
2433333;-0.35000
2436110;-0.34000
2438888;-0.34500
2441666;-0.35000
2444444;-0.34500
2447222;-0.34500
2449999;-0.35000
2452777;-0.35000
2455555;-0.33500
2458333;-0.33500
2461110;-0.34000
2463888;-0.34500
2466666;-0.35000
2469444;-0.35000
2472222;-0.34500
2474999;-0.33500
2477777;-0.34000
2480555;-0.35000
2483333;-0.35500
2486110;-0.36000
2488888;-0.35500
2491666;-0.33000
2494444;-0.34500
2497222;-0.35000
2499999;-0.35000
2502777;-0.35500
2505555;-0.35000
2508333;-0.33500
2511110;-0.33500
2513888;-0.34000
2516666;-0.34500
2519444;-0.35000
2522222;-0.34500
2524999;-0.34000
2527777;-0.34500
2530555;-0.34500
2533333;-0.34500
2536110;-0.35000
2538888;-0.34000
2541666;-0.34000
2544444;-0.34000
2547222;-0.34500
2549999;-0.35000
2552777;-0.34000
2555555;-0.34000
2558333;-0.33000
2561110;-0.33500
2563888;-0.34500
2566666;-0.36000
2569444;-0.35000
2572222;-0.36500
2574999;-0.36000
2577777;-0.37500
2580555;-0.37500
2583333;-0.36500
2586110;-0.37500
2588888;-0.35500
2591666;-0.34000
2594444;-0.35000
2597221;-0.35500
2599999;-0.36500
2602777;-0.37500
2605555;-0.37000
2608333;-0.35500
2611110;-0.36000
2613888;-0.36500
2616666;-0.38000
2619444;-0.36500
2622221;-0.36500
2624999;-0.36000
2627777;-0.35000
2630555;-0.36000
2633333;-0.37500
2636110;-0.36500
2638888;-0.35500
2641666;-0.33000
2644444;-0.34000
2647221;-0.31500
2649999;-0.31500
2652777;-0.30500
2655555;-0.28000
2658333;-0.26500
2661110;-0.26000
2663888;-0.25500
2666666;-0.25500
2669444;-0.26000
2672221;-0.25000
2674999;-0.22500
2677777;-0.24000
2680555;-0.23000
2683333;-0.23000
2686110;-0.23000
2688888;-0.22500
2691666;-0.20500
2694444;-0.21000
2697221;-0.22000
2699999;-0.22500
2702777;-0.22500
2705555;-0.21000
2708333;-0.20500
2711110;-0.22500
2713888;-0.23000
2716666;-0.23000
2719444;-0.23000
2722221;-0.22500
2724999;-0.21000
2727777;-0.21500
2730555;-0.21000
2733333;-0.22500
2736110;-0.23500
2738888;-0.23000
2741666;-0.22500
2744444;-0.22500
2747221;-0.24500
2749999;-0.25000
2752777;-0.25500
2755555;-0.24500
2758333;-0.24000
2761110;-0.24000
2763888;-0.25500
2766666;-0.26000
2769444;-0.25500
2772221;-0.26000
2774999;-0.25000
2777777;-0.24000
2780555;-0.24000
2783333;-0.25000
2786110;-0.25000
2788888;-0.25000
2791666;-0.24500
2794444;-0.24500
2797221;-0.25000
2799999;-0.26500
2802777;-0.26000
2805555;-0.26000
2808333;-0.26000
2811110;-0.25500
2813888;-0.27000
2816666;-0.28000
2819444;-0.28500
2822221;-0.28000
2824999;-0.26500
2827777;-0.27000
2830555;-0.28500
2833333;-0.29000
2836110;-0.28000
2838888;-0.27500
2841666;-0.26000
2844444;-0.27000
2847221;-0.27500
2849999;-0.28500
2852777;-0.28500
2855555;-0.28000
2858333;-0.26500
2861110;-0.27000
2863888;-0.29000
2866666;-0.28500
2869444;-0.29000
2872221;-0.27500
2874999;-0.27000
2877777;-0.28000
2880555;-0.28000
2883333;-0.29000
2886110;-0.28500
2888888;-0.29000
2891666;-0.27000
2894444;-0.27500
2897221;-0.27500
2899999;-0.28000
2902777;-0.29000
2905555;-0.26500
2908333;-0.25500
2911110;-0.26000
2913888;-0.26500
2916666;-0.27000
2919444;-0.27500
2922221;-0.26000
2924999;-0.25500
2927777;-0.24500
2930555;-0.24500
2933333;-0.24500
2936110;-0.22500
2938888;-0.21000
2941666;-0.19500
2944444;-0.19500
2947221;-0.20000
2949999;-0.20500
2952777;-0.20000
2955555;-0.18000
2958333;-0.16500
2961110;-0.15500
2963888;-0.14500
2966666;-0.16500
2969444;-0.17000
2972221;-0.16000
2974999;-0.15500
2977777;-0.17000
2980555;-0.17500
2983332;-0.18000
2986110;-0.20500
2988888;-0.18500
2991666;-0.16500
2994444;-0.16500
2997221;-0.18500
2999999;-0.18500
3002777;-0.20000
3005555;-0.18000
3008332;-0.16000
3011110;-0.15000
3013888;-0.14500
3016666;-0.18500
3019444;-0.21000
3022221;-0.22500
3024999;-0.22000
3027777;-0.24500
3030555;-0.25500
3033332;-0.28000
3036110;-0.29000
3038888;-0.28500
3041666;-0.28500
3044444;-0.27500
3047221;-0.28500
3049999;-0.28000
3052777;-0.30000
3055555;-0.28500
3058332;-0.27500
3061110;-0.29000
3063888;-0.29000
3066666;-0.29500
3069444;-0.30000
3072221;-0.28000
3074999;-0.27500
3077777;-0.28000
3080555;-0.29000
3083332;-0.29000
3086110;-0.29000
3088888;-0.30000
3091666;-0.30000
3094444;-0.30500
3097221;-0.32500
3099999;-0.35000
3102777;-0.40000
3105555;-0.41000
3108332;-0.42000
3111110;-0.44500
3113888;-0.49500
3116666;-0.52000
3119444;-0.49000
3122221;-0.37000
3124999;-0.24000
3127777;-0.11000
3130555;0.02500
3133332;0.19500
3136110;0.43000
3138888;0.68000
3141666;0.88500
3144444;1.00500
3147221;1.05000
3149999;0.97500
3152777;0.74000
3155555;0.34000
3158332;-0.03500
3161110;-0.32000
3163888;-0.44500
3166666;-0.45000
3169444;-0.38500
3172221;-0.33500
3174999;-0.32500
3177777;-0.34500
3180555;-0.34500
3183332;-0.35000
3186110;-0.35500
3188888;-0.35000
3191666;-0.33500
3194444;-0.35000
3197221;-0.35000
3199999;-0.35500
3202777;-0.35500
3205555;-0.34500
3208332;-0.33000
3211110;-0.34000
3213888;-0.35000
3216666;-0.35500
3219444;-0.35500
3222221;-0.35500
3224999;-0.33500
3227777;-0.34000
3230555;-0.34500
3233332;-0.35000
3236110;-0.35500
3238888;-0.34000
3241666;-0.34500
3244444;-0.34000
3247221;-0.35500
3249999;-0.36500
3252777;-0.37500
3255555;-0.37000
3258332;-0.37000
3261110;-0.36000
3263888;-0.35500
3266666;-0.37000
3269444;-0.35500
3272221;-0.35000
3274999;-0.35000
3277777;-0.35500
3280555;-0.36000
3283332;-0.36500
3286110;-0.37000
3288888;-0.35500
3291666;-0.35000
3294444;-0.34500
3297221;-0.35500
3299999;-0.37500
3302777;-0.36000
3305555;-0.34500
3308332;-0.32000
3311110;-0.32500
3313888;-0.34000
3316666;-0.33000
3319444;-0.35000
3322221;-0.35000
3324999;-0.35000
3327777;-0.34500
3330555;-0.37000
3333332;-0.37000
3336110;-0.38000
3338888;-0.37000
3341666;-0.36000
3344444;-0.36000
3347221;-0.36000
3349999;-0.36500
3352777;-0.37500
3355555;-0.37000
3358332;-0.36000
3361110;-0.36000
3363888;-0.37500
3366666;-0.37500
3369444;-0.39000
3372221;-0.36500
3374999;-0.37000
3377777;-0.36500
3380555;-0.37500
3383332;-0.38500
3386110;-0.40000
3388888;-0.38000
3391666;-0.38000
3394443;-0.38000
3397221;-0.38000
3399999;-0.39000
3402777;-0.39500
3405555;-0.39500
3408332;-0.37500
3411110;-0.38500
3413888;-0.39000
3416666;-0.38000
3419443;-0.38500
3422221;-0.38000
3424999;-0.36500
3427777;-0.36000
3430555;-0.35000
3433332;-0.34500
3436110;-0.34500
3438888;-0.33000
3441666;-0.31500
3444443;-0.31500
3447221;-0.30000
3449999;-0.31000
3452777;-0.31000
3455555;-0.29000
3458332;-0.28000
3461110;-0.28500
3463888;-0.28000
3466666;-0.28500
3469443;-0.28000
3472221;-0.27000
3474999;-0.26000
3477777;-0.26000
3480555;-0.26500
3483332;-0.26000
3486110;-0.26000
3488888;-0.25500
3491666;-0.23000
3494443;-0.25000
3497221;-0.25500
3499999;-0.25500
3502777;-0.27000
3505555;-0.26500
3508332;-0.25500
3511110;-0.26000
3513888;-0.27000
3516666;-0.28500
3519443;-0.29000
3522221;-0.28000
3524999;-0.26000
3527777;-0.26500
3530555;-0.26500
3533332;-0.28000
3536110;-0.29000
3538888;-0.29000
3541666;-0.28500
3544443;-0.27500
3547221;-0.28500
3549999;-0.28000
3552777;-0.29000
3555555;-0.28500
3558332;-0.28000
3561110;-0.28500
3563888;-0.29000
3566666;-0.29000
3569443;-0.29000
3572221;-0.29000
3574999;-0.28000
3577777;-0.28000
3580555;-0.28500
3583332;-0.28500
3586110;-0.29500
3588888;-0.30000
3591666;-0.30000
3594443;-0.31000
3597221;-0.31000
3599999;-0.31500
3602777;-0.32000
3605555;-0.32000
3608332;-0.30000
3611110;-0.31500
3613888;-0.31500
3616666;-0.32000
3619443;-0.32500
3622221;-0.32000
3624999;-0.31000
3627777;-0.32500
3630555;-0.33000
3633332;-0.33500
3636110;-0.32000
3638888;-0.31500
3641666;-0.31000
3644443;-0.30000
3647221;-0.31500
3649999;-0.32000
3652777;-0.32000
3655555;-0.31000
3658332;-0.31000
3661110;-0.32000
3663888;-0.33000
3666666;-0.32000
3669443;-0.31500
3672221;-0.30000
3674999;-0.30000
3677777;-0.30000
3680555;-0.30500
3683332;-0.32500
3686110;-0.33000
3688888;-0.32500
3691666;-0.29500
3694443;-0.29500
3697221;-0.30500
3699999;-0.33000
3702777;-0.32500
3705555;-0.30500
3708332;-0.30000
3711110;-0.29000
3713888;-0.28500
3716666;-0.27000
3719443;-0.26000
3722221;-0.25000
3724999;-0.24000
3727777;-0.23500
3730555;-0.24000
3733332;-0.24500
3736110;-0.23500
3738888;-0.21500
3741666;-0.21000
3744443;-0.22500
3747221;-0.21000
3749999;-0.20000
3752777;-0.20500
3755555;-0.20000
3758332;-0.19000
3761110;-0.19500
3763888;-0.20500
3766666;-0.20500
3769443;-0.21000
3772221;-0.21000
3774999;-0.20500
3777777;-0.21000
3780554;-0.21000
3783332;-0.23000
3786110;-0.24000
3788888;-0.23000
3791666;-0.21500
3794443;-0.19500
3797221;-0.20500
3799999;-0.24500
3802777;-0.26000
3805554;-0.25500
3808332;-0.26500
3811110;-0.29000
3813888;-0.30500
3816666;-0.32000
3819443;-0.33500
3822221;-0.31500
3824999;-0.31000
3827777;-0.32500
3830554;-0.33000
3833332;-0.33500
3836110;-0.33500
3838888;-0.33000
3841666;-0.34500
3844443;-0.34500
3847221;-0.35500
3849999;-0.35000
3852777;-0.37000
3855554;-0.35500
3858332;-0.34000
3861110;-0.33000
3863888;-0.32500
3866666;-0.32500
3869443;-0.34000
3872221;-0.34500
3874999;-0.33000
3877777;-0.34000
3880554;-0.38000
3883332;-0.41500
3886110;-0.44000
3888888;-0.45500
3891666;-0.48000
3894443;-0.51500
3897221;-0.51500
3899999;-0.43500
3902777;-0.30000
3905554;-0.13000
3908332;0.05500
3911110;0.30500
3913888;0.58000
3916666;0.79500
3919443;0.93000
3922221;0.92500
3924999;0.76000
3927777;0.44500
3930554;0.08500
3933332;-0.16000
3936110;-0.32000
3938888;-0.40500
3941666;-0.48000
3944443;-0.51500
3947221;-0.50500
3949999;-0.46500
3952777;-0.43000
3955554;-0.39000
3958332;-0.38500
3961110;-0.38000
3963888;-0.37500
3966666;-0.38500
3969443;-0.38500
3972221;-0.39000
3974999;-0.38500
3977777;-0.37000
3980554;-0.38000
3983332;-0.37500
3986110;-0.39000
3988888;-0.39000
3991666;-0.38500
3994443;-0.38500
3997221;-0.39000
3999999;-0.40000
4002777;-0.40500
4005554;-0.40000
4008332;-0.39000
4011110;-0.37500
4013888;-0.39000
4016666;-0.41000
4019443;-0.41500
4022221;-0.40500
4024999;-0.39000
4027777;-0.40000
4030554;-0.39000
4033332;-0.40000
4036110;-0.40500
4038888;-0.40000
4041666;-0.39000
4044443;-0.39000
4047221;-0.39500
4049999;-0.39000
4052777;-0.40000
4055554;-0.39500
4058332;-0.39000
4061110;-0.40000
4063888;-0.40000
4066666;-0.41000
4069443;-0.43000
4072221;-0.41000
4074999;-0.40500
4077777;-0.40000
4080554;-0.41000
4083332;-0.42000
4086110;-0.43000
4088888;-0.42500
4091666;-0.41500
4094443;-0.41000
4097221;-0.40500
4099999;-0.41000
4102777;-0.40000
4105554;-0.39000
4108332;-0.37500
4111110;-0.37000
4113888;-0.38500
4116666;-0.40000
4119443;-0.40000
4122221;-0.39000
4124999;-0.38000
4127777;-0.38000
4130554;-0.38500
4133332;-0.38500
4136110;-0.39500
4138888;-0.39000
4141666;-0.38500
4144443;-0.37500
4147221;-0.39500
4149999;-0.41000
4152777;-0.42000
4155554;-0.41500
4158332;-0.41500
4161110;-0.41500
4163888;-0.43000
4166666;-0.44000
4169443;-0.44500
4172221;-0.44500
4174999;-0.43500
4177777;-0.43500
4180554;-0.46500
4183332;-0.47000
4186110;-0.46000
4188888;-0.44000
4191665;-0.42500
4194443;-0.44000
4197221;-0.46500
4199999;-0.45000
4202777;-0.44500
4205554;-0.43000
4208332;-0.41500
4211110;-0.42000
4213888;-0.41000
4216665;-0.41500
4219443;-0.39500
4222221;-0.37500
4224999;-0.35500
4227777;-0.34000
4230554;-0.32500
4233332;-0.33500
4236110;-0.32000
4238888;-0.30500
4241665;-0.29500
4244443;-0.29000
4247221;-0.28500
4249999;-0.29500
4252777;-0.28000
4255554;-0.26000
4258332;-0.26000
4261110;-0.26500
4263888;-0.27000
4266665;-0.27500
4269443;-0.28500
4272221;-0.27000
4274999;-0.25000
4277777;-0.25500
4280554;-0.26000
4283332;-0.26500
4286110;-0.26500
4288888;-0.26500
4291665;-0.25500
4294443;-0.25500
4297221;-0.26500
4299999;-0.27500
4302777;-0.26500
4305554;-0.26000
4308332;-0.25500
4311110;-0.26000
4313888;-0.26500
4316665;-0.29000
4319443;-0.28000
4322221;-0.27000
4324999;-0.26000
4327777;-0.26000
4330554;-0.27500
4333332;-0.27000
4336110;-0.27500
4338888;-0.27000
4341665;-0.27500
4344443;-0.27000
4347221;-0.27500
4349999;-0.28000
4352777;-0.28000
4355554;-0.27000
4358332;-0.27000
4361110;-0.26500
4363888;-0.27500
4366665;-0.29000
4369443;-0.29000
4372221;-0.28500
4374999;-0.28000
4377777;-0.28000
4380554;-0.29000
4383332;-0.29000
4386110;-0.29000
4388888;-0.28500
4391665;-0.27500
4394443;-0.27000
4397221;-0.28000
4399999;-0.30000
4402777;-0.30500
4405554;-0.29500
4408332;-0.28500
4411110;-0.28000
4413888;-0.30000
4416665;-0.29500
4419443;-0.29000
4422221;-0.28000
4424999;-0.26500
4427777;-0.27500
4430554;-0.28000
4433332;-0.28500
4436110;-0.29000
4438888;-0.27000
4441665;-0.27500
4444443;-0.26000
4447221;-0.27000
4449999;-0.28500
4452777;-0.27500
4455554;-0.26500
4458332;-0.26000
4461110;-0.27000
4463888;-0.28000
4466665;-0.28000
4469443;-0.28500
4472221;-0.27000
4474999;-0.26000
4477777;-0.25000
4480554;-0.27000
4483332;-0.27500
4486110;-0.27500
4488888;-0.25500
4491665;-0.24500
4494443;-0.25000
4497221;-0.26500
4499999;-0.26500
4502777;-0.27000
4505554;-0.26500
4508332;-0.26000
4511110;-0.24500
4513888;-0.25000
4516665;-0.25500
4519443;-0.25500
4522221;-0.24000
4524999;-0.20500
4527777;-0.19500
4530554;-0.20500
4533332;-0.21000
4536110;-0.21000
4538888;-0.18500
4541665;-0.17500
4544443;-0.16000
4547221;-0.16000
4549999;-0.15000
4552777;-0.16000
4555554;-0.14000
4558332;-0.13000
4561110;-0.13500
4563888;-0.15000
4566665;-0.15500
4569443;-0.17000
4572221;-0.16500
4574999;-0.17000
4577776;-0.16000
4580554;-0.17500
4583332;-0.17500
4586110;-0.17500
4588888;-0.18500
4591665;-0.17500
4594443;-0.15000
4597221;-0.14000
4599999;-0.13500
4602776;-0.17000
4605554;-0.19500
4608332;-0.20000
4611110;-0.20500
4613888;-0.22500
4616665;-0.24000
4619443;-0.26000
4622221;-0.25000
4624999;-0.26500
4627776;-0.26000
4630554;-0.27000
4633332;-0.27000
4636110;-0.27500
4638888;-0.26500
4641665;-0.25500
4644443;-0.25500
4647221;-0.26000
4649999;-0.27500
4652776;-0.28000
4655554;-0.27500
4658332;-0.28000
4661110;-0.26500
4663888;-0.28000
4666665;-0.28000
4669443;-0.29000
4672221;-0.28000
4674999;-0.27500
4677776;-0.28500
4680554;-0.28500
4683332;-0.30000
4686110;-0.30500
4688888;-0.29000
4691665;-0.27500
4694443;-0.28500
4697221;-0.32000
4699999;-0.34000
4702776;-0.37000
4705554;-0.40000
4708332;-0.41000
4711110;-0.41000
4713888;-0.45000
4716665;-0.48500
4719443;-0.44500
4722221;-0.31500
4724999;-0.16000
4727776;0.00500
4730554;0.18000
4733332;0.40500
4736110;0.66000
4738888;0.89000
4741665;1.05000
4744443;1.05500
4747221;0.93000
4749999;0.58500
4752776;0.15000
4755554;-0.21000
4758332;-0.37500
4761110;-0.41500
4763888;-0.37000
4766665;-0.33000
4769443;-0.31500
4772221;-0.31500
4774999;-0.31000
4777776;-0.31500
4780554;-0.31500
4783332;-0.31500
4786110;-0.33000
4788888;-0.32000
4791665;-0.31500
4794443;-0.32000
4797221;-0.32000
4799999;-0.31500
4802776;-0.33500
4805554;-0.32000
4808332;-0.31000
4811110;-0.30500
4813888;-0.31000
4816665;-0.31500
4819443;-0.33500
4822221;-0.31000
4824999;-0.30000
4827776;-0.31500
4830554;-0.32000
4833332;-0.31500
4836110;-0.31500
4838888;-0.30500
4841665;-0.30000
4844443;-0.30000
4847221;-0.31000
4849999;-0.32000
4852776;-0.32000
4855554;-0.32500
4858332;-0.33000
4861110;-0.33500
4863888;-0.33500
4866665;-0.33500
4869443;-0.34500
4872221;-0.34000
4874999;-0.33000
4877776;-0.33000
4880554;-0.33500
4883332;-0.33000
4886110;-0.33000
4888888;-0.32500
4891665;-0.31000
4894443;-0.31500
4897221;-0.32500
4899999;-0.32500
4902776;-0.33500
4905554;-0.32500
4908332;-0.31500
4911110;-0.31500
4913888;-0.31000
4916665;-0.32000
4919443;-0.34000
4922221;-0.32000
4924999;-0.32500
4927776;-0.31500
4930554;-0.32500
4933332;-0.33000
4936110;-0.33000
4938888;-0.33500
4941665;-0.32000
4944443;-0.32000
4947221;-0.32500
4949999;-0.33500
4952776;-0.34000
4955554;-0.33500
4958332;-0.32500
4961110;-0.33000
4963887;-0.33500
4966665;-0.34500
4969443;-0.34500
4972221;-0.35000
4974999;-0.33000
4977776;-0.34000
4980554;-0.35500
4983332;-0.35500
4986110;-0.37000
4988887;-0.36500
4991665;-0.35500
4994443;-0.35500
4997221;-0.36500
4999999;-0.37000
5002776;-0.37500
5005554;-0.36000
5008332;-0.34500
5011110;-0.34000
5013887;-0.33500
5016665;-0.34500
5019443;-0.33500
5022221;-0.32000
5024999;-0.31000
5027776;-0.29500
5030554;-0.28500
5033332;-0.28000
5036110;-0.27500
5038887;-0.25500
5041665;-0.24000
5044443;-0.23500
5047221;-0.23000
5049999;-0.23500
5052776;-0.23500
5055554;-0.22000
5058332;-0.21500
5061110;-0.19500
5063887;-0.20000
5066665;-0.19500
5069443;-0.20500
5072221;-0.19000
5074999;-0.18000
5077776;-0.18000
5080554;-0.18000
5083332;-0.18500
5086110;-0.18000
5088887;-0.17000
5091665;-0.17000
5094443;-0.17000
5097221;-0.17500
5099999;-0.19500
5102776;-0.18000
5105554;-0.18000
5108332;-0.17000
5111110;-0.16500
5113887;-0.17000
5116665;-0.18500
5119443;-0.17500
5122221;-0.18000
5124999;-0.18000
5127776;-0.18000
5130554;-0.18500
5133332;-0.19000
5136110;-0.19500
5138887;-0.17500
5141665;-0.18000
5144443;-0.17500
5147221;-0.17500
5149999;-0.18500
5152776;-0.19000
5155554;-0.18500
5158332;-0.17000
5161110;-0.17000
5163887;-0.17500
5166665;-0.19500
5169443;-0.20000
5172221;-0.19500
5174999;-0.18000
5177776;-0.19000
5180554;-0.19000
5183332;-0.20000
5186110;-0.20000
5188887;-0.20000
5191665;-0.19000
5194443;-0.20000
5197221;-0.21000
5199999;-0.22500
5202776;-0.23000
5205554;-0.22500
5208332;-0.21000
5211110;-0.21000
5213887;-0.22500
5216665;-0.21500
5219443;-0.22500
5222221;-0.22000
5224999;-0.20500
5227776;-0.20500
5230554;-0.21000
5233332;-0.22000
5236110;-0.22000
5238887;-0.21500
5241665;-0.20500
5244443;-0.21000
5247221;-0.21000
5249999;-0.22000
5252776;-0.22000
5255554;-0.22000
5258332;-0.21000
5261110;-0.21000
5263887;-0.22000
5266665;-0.22000
5269443;-0.22500
5272221;-0.22500
5274999;-0.21500
5277776;-0.21000
5280554;-0.21500
5283332;-0.22500
5286110;-0.23000
5288887;-0.24000
5291665;-0.21500
5294443;-0.21000
5297221;-0.21500
5299999;-0.23000
5302776;-0.23000
5305554;-0.22000
5308332;-0.22000
5311110;-0.21000
5313887;-0.21000
5316665;-0.22500
5319443;-0.23000
5322221;-0.21500
5324999;-0.21000
5327776;-0.20500
5330554;-0.21000
5333332;-0.22000
5336110;-0.21500
5338887;-0.20000
5341665;-0.18500
5344443;-0.16500
5347221;-0.16500
5349999;-0.16000
5352776;-0.15500
5355554;-0.13500
5358332;-0.14000
5361110;-0.14000
5363887;-0.14000
5366665;-0.14500
5369443;-0.14000
5372221;-0.12500
5374998;-0.10500
5377776;-0.10000
5380554;-0.10000
5383332;-0.11000
5386110;-0.12000
5388887;-0.11000
5391665;-0.11000
5394443;-0.10500
5397221;-0.12000
5399998;-0.13000
5402776;-0.12500
5405554;-0.12500
5408332;-0.12000
5411110;-0.12000
5413887;-0.12500
5416665;-0.12000
5419443;-0.10500
5422221;-0.07500
5424998;-0.05500
5427776;-0.06000
5430554;-0.09000
5433332;-0.12000
5436110;-0.15500
5438887;-0.16000
5441665;-0.15500
5444443;-0.15500
5447221;-0.17000
5449998;-0.19000
5452776;-0.21000
5455554;-0.21000
5458332;-0.21500
5461110;-0.22500
5463887;-0.23500
5466665;-0.24000
5469443;-0.24500
5472221;-0.24000
5474998;-0.23000
5477776;-0.24000
5480554;-0.23500
5483332;-0.26000
5486110;-0.24500
5488887;-0.24500
5491665;-0.23000
5494443;-0.23000
5497221;-0.23500
5499998;-0.24000
5502776;-0.25000
5505554;-0.24500
5508332;-0.23000
5511110;-0.23000
5513887;-0.24500
5516665;-0.24500
5519443;-0.27500
5522221;-0.28500
5524998;-0.32000
5527776;-0.36000
5530554;-0.38000
5533332;-0.40500
5536110;-0.45000
5538887;-0.45500
5541665;-0.40500
5544443;-0.28000
5547221;-0.11000
5549998;0.04500
5552776;0.24500
5555554;0.50500
5558332;0.77500
5561110;1.00000
5563887;1.12000
5566665;1.12500
5569443;0.96000
5572221;0.62500
5574998;0.22000
5577776;-0.12000
5580554;-0.32500
5583332;-0.39000
5586110;-0.36500
5588887;-0.29500
5591665;-0.26500
5594443;-0.26000
5597221;-0.27500
5599998;-0.28500
5602776;-0.30000
5605554;-0.28500
5608332;-0.28000
5611110;-0.28500
5613887;-0.29000
5616665;-0.30000
5619443;-0.30500
5622221;-0.29500
5624998;-0.29000
5627776;-0.29500
5630554;-0.30000
5633332;-0.31000
5636110;-0.31000
5638887;-0.30000
5641665;-0.29500
5644443;-0.29000
5647221;-0.30000
5649998;-0.32000
5652776;-0.32000
5655554;-0.30000
5658332;-0.31000
5661110;-0.29500
5663887;-0.31000
5666665;-0.31500
5669443;-0.32000
5672221;-0.31000
5674998;-0.31500
5677776;-0.30000
5680554;-0.30500
5683332;-0.31500
5686110;-0.32500
5688887;-0.32000
5691665;-0.31500
5694443;-0.30000
5697221;-0.29000
5699998;-0.30500
5702776;-0.30500
5705554;-0.31500
5708332;-0.30000
5711110;-0.29500
5713887;-0.30500
5716665;-0.30500
5719443;-0.31500
5722221;-0.30500
5724998;-0.30000
5727776;-0.29500
5730554;-0.29500
5733332;-0.30000
5736110;-0.31500
5738887;-0.29500
5741665;-0.29500
5744443;-0.30000
5747221;-0.30000
5749998;-0.30500
5752776;-0.30500
5755554;-0.30500
5758332;-0.31000
5761109;-0.31000
5763887;-0.31500
5766665;-0.33000
5769443;-0.32500
5772221;-0.32500
5774998;-0.31000
5777776;-0.30500
5780554;-0.30500
5783332;-0.32000
5786109;-0.32000
5788887;-0.31500
5791665;-0.30000
5794443;-0.31000
5797221;-0.31000
5799998;-0.32500
5802776;-0.32000
5805554;-0.31500
5808332;-0.31500
5811109;-0.30500
5813887;-0.31500
5816665;-0.33000
5819443;-0.32500
5822221;-0.32000
5824998;-0.32000
5827776;-0.32000
5830554;-0.34000
5833332;-0.33500
5836109;-0.33000
5838887;-0.32000
5841665;-0.32000
5844443;-0.31500
5847221;-0.31000
5849998;-0.32000
5852776;-0.32500
5855554;-0.31000
5858332;-0.30500
5861109;-0.29000
5863887;-0.29000
5866665;-0.28500
5869443;-0.28500
5872221;-0.26000
5874998;-0.25000
5877776;-0.24500
5880554;-0.23000
5883332;-0.22500
5886109;-0.23000
5888887;-0.22000
5891665;-0.20000
5894443;-0.19000
5897221;-0.20000
5899998;-0.19500
5902776;-0.20000
5905554;-0.18500
5908332;-0.18500
5911109;-0.17500
5913887;-0.18500
5916665;-0.18500
5919443;-0.20000
5922221;-0.18500
5924998;-0.19500
5927776;-0.18000
5930554;-0.18500
5933332;-0.18500
5936109;-0.19500
5938887;-0.19500
5941665;-0.18500
5944443;-0.18000
5947221;-0.18500
5949998;-0.18500
5952776;-0.19000
5955554;-0.19000
5958332;-0.17500
5961109;-0.18000
5963887;-0.19000
5966665;-0.18500
5969443;-0.20500
5972221;-0.20000
5974998;-0.19000
5977776;-0.18500
5980554;-0.20500
5983332;-0.21000
5986109;-0.22500
5988887;-0.21500
5991665;-0.21000
5994443;-0.20500
5997221;-0.20500
5999998;-0.22000
6002776;-0.23000
6005554;-0.22000
6008332;-0.22000
6011109;-0.21500
6013887;-0.22500
6016665;-0.22500
6019443;-0.23000
6022221;-0.23000
6024998;-0.21500
6027776;-0.22500
6030554;-0.23500
6033332;-0.24000
6036109;-0.25500
6038887;-0.23500
6041665;-0.23500
6044443;-0.23000
6047221;-0.24500
6049998;-0.25000
6052776;-0.25500
6055554;-0.24500
6058332;-0.24000
6061109;-0.24000
6063887;-0.25000
6066665;-0.26000
6069443;-0.27000
6072221;-0.27000
6074998;-0.25500
6077776;-0.26000
6080554;-0.25500
6083332;-0.26500
6086109;-0.27500
6088887;-0.25500
6091665;-0.26000
6094443;-0.25000
6097221;-0.26000
6099998;-0.26500
6102776;-0.27500
6105554;-0.26500
6108332;-0.25000
6111109;-0.24500
6113887;-0.25000
6116665;-0.25500
6119443;-0.27000
6122221;-0.25500
6124998;-0.24500
6127776;-0.24000
6130554;-0.25500
6133332;-0.25000
6136109;-0.26500
6138887;-0.25000
6141665;-0.24000
6144443;-0.24000
6147221;-0.25500
6149998;-0.26500
6152776;-0.27000
6155554;-0.25500
6158332;-0.24500
6161109;-0.25000
6163887;-0.24500
6166665;-0.25500
6169443;-0.26000
6172220;-0.25000
6174998;-0.24500
6177776;-0.24000
6180554;-0.23000
6183332;-0.23500
6186109;-0.22500
6188887;-0.20500
6191665;-0.18500
6194443;-0.17500
6197220;-0.18000
6199998;-0.18000
6202776;-0.18500
6205554;-0.17500
6208332;-0.15500
6211109;-0.15000
6213887;-0.14000
6216665;-0.14000
6219443;-0.14000
6222220;-0.13500
6224998;-0.14000
6227776;-0.14000
6230554;-0.14500
6233332;-0.15500
6236109;-0.16000
6238887;-0.17000
6241665;-0.14000
6244443;-0.14000
6247220;-0.16000
6249998;-0.18000
6252776;-0.17000
6255554;-0.16500
6258332;-0.15000
6261109;-0.15000
6263887;-0.16000
6266665;-0.18500
6269443;-0.18500
6272220;-0.16000
6274998;-0.13000
6277776;-0.11500
6280554;-0.13500
6283332;-0.16000
6286109;-0.19000
6288887;-0.20500
6291665;-0.21000
6294443;-0.22000
6297220;-0.24000
6299998;-0.24000
6302776;-0.26000
6305554;-0.27000
6308332;-0.27000
6311109;-0.26500
6313887;-0.26000
6316665;-0.28000
6319443;-0.29000
6322220;-0.28000
6324998;-0.27000
6327776;-0.27000
6330554;-0.27000
6333332;-0.28500
6336109;-0.29000
6338887;-0.27500
6341665;-0.27500
6344443;-0.28000
6347220;-0.28000
6349998;-0.27000
6352776;-0.29000
6355554;-0.27500
6358332;-0.28500
6361109;-0.27500
6363887;-0.28000
6366665;-0.29000
6369443;-0.32000
6372220;-0.34500
6374998;-0.38000
6377776;-0.39500
6380554;-0.42000
6383332;-0.46500
6386109;-0.50500
6388887;-0.51500
6391665;-0.45000
6394443;-0.33500
6397220;-0.19500
6399998;-0.06500
6402776;0.10000
6405554;0.34500
6408332;0.62000
6411109;0.85000
6413887;0.99500
6416665;1.03500
6419443;0.89000
6422220;0.58000
6424998;0.16000
6427776;-0.18500
6430554;-0.39000
6433332;-0.44000
6436109;-0.39500
6438887;-0.34000
6441665;-0.31500
6444443;-0.30500
6447220;-0.32500
6449998;-0.33000
6452776;-0.33500
6455554;-0.33500
6458332;-0.32000
6461109;-0.32000
6463887;-0.33500
6466665;-0.34000
6469443;-0.36000
6472220;-0.36000
6474998;-0.34500
6477776;-0.33000
6480554;-0.34000
6483332;-0.35000
6486109;-0.35500
6488887;-0.34500
6491665;-0.33500
6494443;-0.34000
6497220;-0.33500
6499998;-0.34500
6502776;-0.35000
6505554;-0.34000
6508332;-0.33000
6511109;-0.32500
6513887;-0.33000
6516665;-0.33500
6519443;-0.34000
6522220;-0.34500
6524998;-0.33000
6527776;-0.32000
6530554;-0.32000
6533332;-0.33000
6536109;-0.34000
6538887;-0.34000
6541665;-0.33000
6544443;-0.34000
6547220;-0.35500
6549998;-0.34500
6552776;-0.35000
6555554;-0.34500
6558331;-0.33000
6561109;-0.33500
6563887;-0.33000
6566665;-0.32500
6569443;-0.34000
6572220;-0.33500
6574998;-0.32000
6577776;-0.33000
6580554;-0.33500
6583331;-0.33500
6586109;-0.34500
6588887;-0.32500
6591665;-0.33000
6594443;-0.33000
6597220;-0.32500
6599998;-0.33500
6602776;-0.35000
6605554;-0.34000
6608331;-0.33000
6611109;-0.33000
6613887;-0.34000
6616665;-0.35500
6619443;-0.36000
6622220;-0.33500
6624998;-0.33000
6627776;-0.33500
6630554;-0.34000
6633331;-0.34500
6636109;-0.35500
6638887;-0.33500
6641665;-0.31500
6644443;-0.32000
6647220;-0.33000
6649998;-0.32000
6652776;-0.32500
6655554;-0.33000
6658331;-0.32000
6661109;-0.32000
6663887;-0.33000
6666665;-0.35000
6669443;-0.35000
6672220;-0.33500
6674998;-0.33000
6677776;-0.33500
6680554;-0.34000
6683331;-0.34500
6686109;-0.34000
6688887;-0.33000
6691665;-0.32500
6694443;-0.31500
6697220;-0.31500
6699998;-0.33000
6702776;-0.33500
6705554;-0.32000
6708331;-0.31000
6711109;-0.31000
6713887;-0.30000
6716665;-0.30000
6719443;-0.30000
6722220;-0.28500
6724998;-0.27000
6727776;-0.25000
6730554;-0.24500
6733331;-0.25000
6736109;-0.25000
6738887;-0.22500
6741665;-0.21500
6744443;-0.20000
6747220;-0.20500
6749998;-0.21500
6752776;-0.22000
6755554;-0.23000
6758331;-0.22000
6761109;-0.20500
6763887;-0.20500
6766665;-0.21500
6769443;-0.22000
6772220;-0.21000
6774998;-0.20500
6777776;-0.20500
6780554;-0.22000
6783331;-0.23000
6786109;-0.23000
6788887;-0.23000
6791665;-0.22000
6794443;-0.21000
6797220;-0.21000
6799998;-0.21500
6802776;-0.22500
6805554;-0.21500
6808331;-0.21000
6811109;-0.21000
6813887;-0.22500
6816665;-0.24000
6819443;-0.23500
6822220;-0.24000
6824998;-0.23000
6827776;-0.21500
6830554;-0.22000
6833331;-0.24500
6836109;-0.24500
6838887;-0.24000
6841665;-0.23000
6844443;-0.24000
6847220;-0.23000
6849998;-0.24500
6852776;-0.25500
6855554;-0.25500
6858331;-0.25000
6861109;-0.25000
6863887;-0.25000
6866665;-0.25500
6869443;-0.26000
6872220;-0.26000
6874998;-0.25500
6877776;-0.26000
6880554;-0.25500
6883331;-0.28000
6886109;-0.27000
6888887;-0.25000
6891665;-0.25500
6894443;-0.26000
6897220;-0.26500
6899998;-0.27500
6902776;-0.29500
6905554;-0.28500
6908331;-0.27500
6911109;-0.27500
6913887;-0.28500
6916665;-0.29500
6919443;-0.28500
6922220;-0.28000
6924998;-0.27000
6927776;-0.26500
6930554;-0.26500
6933331;-0.27000
6936109;-0.28000
6938887;-0.28000
6941665;-0.27000
6944442;-0.26500
6947220;-0.25500
6949998;-0.28000
6952776;-0.27500
6955554;-0.27000
6958331;-0.27000
6961109;-0.27000
6963887;-0.27000
6966665;-0.26500
6969442;-0.27000
6972220;-0.27000
6974998;-0.26000
6977776;-0.26000
6980554;-0.26500
6983331;-0.27500
6986109;-0.28500
6988887;-0.29000
6991665;-0.28000
6994442;-0.27000
6997220;-0.27500
6999998;-0.27000
7002776;-0.27500
7005554;-0.28500
7008331;-0.26000
7011109;-0.23500
7013887;-0.24000
7016665;-0.23500
7019442;-0.24000
7022220;-0.22000
7024998;-0.21500
7027776;-0.19500
7030554;-0.21000
7033331;-0.21500
7036109;-0.21500
7038887;-0.21000
7041665;-0.18000
7044442;-0.17000
7047220;-0.16500
7049998;-0.16500
7052776;-0.17000
7055554;-0.17000
7058331;-0.17000
7061109;-0.18000
7063887;-0.17500
7066665;-0.17500
7069442;-0.18500
7072220;-0.17500
7074998;-0.18000
7077776;-0.18000
7080554;-0.20000
7083331;-0.20500
7086109;-0.20000
7088887;-0.17000
7091665;-0.15500
7094442;-0.19000
7097220;-0.22500
7099998;-0.25500
7102776;-0.27000
7105554;-0.28500
7108331;-0.28500
7111109;-0.28500
7113887;-0.29500
7116665;-0.32000
7119442;-0.34000
7122220;-0.32000
7124998;-0.31500
7127776;-0.29500
7130554;-0.31000
7133331;-0.31000
7136109;-0.31000
7138887;-0.30500
7141665;-0.31000
7144442;-0.30500
7147220;-0.30500
7149998;-0.31000
7152776;-0.31000
7155554;-0.30000
7158331;-0.30500
7161109;-0.30500
7163887;-0.31500
7166665;-0.32000
7169442;-0.32000
7172220;-0.31000
7174998;-0.31500
7177776;-0.32500
7180554;-0.34000
7183331;-0.34500
7186109;-0.38500
7188887;-0.40500
7191665;-0.43000
7194442;-0.44500
7197220;-0.49000
7199998;-0.54500
7202776;-0.52500
7205554;-0.42500
7208331;-0.29500
7211109;-0.15500
7213887;0.01500
7216665;0.25000
7219442;0.52500
7222220;0.78500
7224998;0.92000
7227776;0.92500
7230554;0.77000
7233331;0.44000
7236109;0.04000
7238887;-0.25500
7241665;-0.40000
7244442;-0.44500
7247220;-0.44000
7249998;-0.41000
7252776;-0.39000
7255554;-0.37500
7258331;-0.37500
7261109;-0.37500
7263887;-0.37000
7266665;-0.36500
7269442;-0.37500
7272220;-0.37500
7274998;-0.36000
7277776;-0.36000
7280554;-0.36000
7283331;-0.37000
7286109;-0.37500
7288887;-0.37500
7291665;-0.38500
7294442;-0.38500
7297220;-0.38500
7299998;-0.39500
7302776;-0.39000
7305554;-0.37500
7308331;-0.36500
7311109;-0.35000
7313887;-0.35500
7316665;-0.35500
7319442;-0.36000
7322220;-0.36500
7324998;-0.38000
7327776;-0.38000
7330554;-0.38500
7333331;-0.38500
7336109;-0.40000
7338887;-0.40000
7341665;-0.38000
7344442;-0.38000
7347220;-0.38500
7349998;-0.39500
7352776;-0.40000
7355553;-0.39500
7358331;-0.41000
7361109;-0.39000
7363887;-0.39000
7366665;-0.39500
7369442;-0.40000
7372220;-0.39500
7374998;-0.38000
7377776;-0.36500
7380553;-0.38500
7383331;-0.40000
7386109;-0.41000
7388887;-0.41500
7391665;-0.41500
7394442;-0.40000
7397220;-0.39000
7399998;-0.38500
7402776;-0.40000
7405553;-0.38000
7408331;-0.38500
7411109;-0.38500
7413887;-0.38500
7416665;-0.40500
7419442;-0.39500
7422220;-0.39000
7424998;-0.37500
7427776;-0.37000
7430553;-0.37500
7433331;-0.39000
7436109;-0.40000
7438887;-0.39500
7441665;-0.39000
7444442;-0.39500
7447220;-0.40500
7449998;-0.41500
7452776;-0.40500
7455553;-0.40500
7458331;-0.40000
7461109;-0.38500
7463887;-0.38000
7466665;-0.40500
7469442;-0.40500
7472220;-0.42000
7474998;-0.42000
7477776;-0.42000
7480553;-0.43000
7483331;-0.43500
7486109;-0.45500
7488887;-0.44500
7491665;-0.43500
7494442;-0.42500
7497220;-0.41500
7499998;-0.42000
7502776;-0.41500
7505553;-0.41000
7508331;-0.39500
7511109;-0.38500
7513887;-0.38500
7516665;-0.38000
7519442;-0.38500
7522220;-0.35500
7524998;-0.35000
7527776;-0.33000
7530553;-0.32000
7533331;-0.32000
7536109;-0.32000
7538887;-0.30500
7541665;-0.29500
7544442;-0.29000
7547220;-0.29000
7549998;-0.28500
7552776;-0.30500
7555553;-0.28500
7558331;-0.27000
7561109;-0.26500
7563887;-0.27500
7566665;-0.29500
7569442;-0.29000
7572220;-0.27500
7574998;-0.25000
7577776;-0.25000
7580553;-0.25000
7583331;-0.25500
7586109;-0.28500
7588887;-0.26500
7591665;-0.26000
7594442;-0.27000
7597220;-0.27500
7599998;-0.28000
7602776;-0.28500
7605553;-0.28000
7608331;-0.28000
7611109;-0.28500
7613887;-0.29500
7616665;-0.30000
7619442;-0.30000
7622220;-0.28500
7624998;-0.29500
7627776;-0.28500
7630553;-0.29000
7633331;-0.29500
7636109;-0.31000
7638887;-0.29500
7641665;-0.29000
7644442;-0.28500
7647220;-0.29000
7649998;-0.30000
7652776;-0.30500
7655553;-0.30000
7658331;-0.29500
7661109;-0.29000
7663887;-0.29500
7666665;-0.30500
7669442;-0.31500
7672220;-0.32500
7674998;-0.31000
7677776;-0.31500
7680553;-0.31500
7683331;-0.32000
7686109;-0.33500
7688887;-0.33000
7691665;-0.32000
7694442;-0.32000
7697220;-0.32500
7699998;-0.32000
7702776;-0.32500
7705553;-0.32000
7708331;-0.31000
7711109;-0.31500
7713887;-0.32500
7716665;-0.35000
7719442;-0.37000
7722220;-0.35000
7724998;-0.32000
7727776;-0.31000
7730553;-0.32000
7733331;-0.32000
7736109;-0.33500
7738887;-0.34000
7741664;-0.33500
7744442;-0.31500
7747220;-0.31000
7749998;-0.31000
7752776;-0.31000
7755553;-0.30500
7758331;-0.30500
7761109;-0.31000
7763887;-0.31000
7766664;-0.32500
7769442;-0.34000
7772220;-0.32500
7774998;-0.32500
7777776;-0.33000
7780553;-0.32500
7783331;-0.32000
7786109;-0.31000
7788887;-0.29000
7791664;-0.27000
7794442;-0.26000
7797220;-0.25000
7799998;-0.26500
7802776;-0.26500
7805553;-0.25500
7808331;-0.24000
7811109;-0.22500
7813887;-0.23000
7816664;-0.22500
7819442;-0.23500
7822220;-0.21500
7824998;-0.21000
7827776;-0.20000
7830553;-0.20500
7833331;-0.22500
7836109;-0.23000
7838887;-0.23500
7841664;-0.23000
7844442;-0.23000
7847220;-0.22500
7849998;-0.24500
7852776;-0.26000
7855553;-0.25000
7858331;-0.22000
7861109;-0.21000
7863887;-0.21500
7866664;-0.24500
7869442;-0.27500
7872220;-0.29500
7874998;-0.30000
7877776;-0.30000
7880553;-0.32000
7883331;-0.32000
7886109;-0.34500
7888887;-0.33500
7891664;-0.33500
7894442;-0.31000
7897220;-0.32000
7899998;-0.33500
7902776;-0.35000
7905553;-0.35000
7908331;-0.34500
7911109;-0.34000
7913887;-0.33500
7916664;-0.34500
7919442;-0.33500
7922220;-0.33000
7924998;-0.32500
7927776;-0.31500
7930553;-0.31500
7933331;-0.33000
7936109;-0.34000
7938887;-0.33000
7941664;-0.33000
7944442;-0.32000
7947220;-0.32500
7949998;-0.32500
7952776;-0.34000
7955553;-0.35000
7958331;-0.36000
7961109;-0.40500
7963887;-0.43500
7966664;-0.45500
7969442;-0.49500
7972220;-0.52000
7974998;-0.49000
7977776;-0.38500
7980553;-0.23500
7983331;-0.08000
7986109;0.10500
7988887;0.38000
7991664;0.67500
7994442;0.89000
7997220;0.98000
7999998;0.94000
8002776;0.67000
8005553;0.24500
8008331;-0.15500
8011109;-0.39000
8013887;-0.45000
8016664;-0.45000
8019442;-0.41000
8022220;-0.37500
8024998;-0.36000
8027776;-0.35500
8030553;-0.35000
8033331;-0.36000
8036109;-0.37000
8038887;-0.37000
8041664;-0.36000
8044442;-0.36000
8047220;-0.34500
8049998;-0.36000
8052776;-0.36000
8055553;-0.36500
8058331;-0.35000
8061109;-0.35500
8063887;-0.35000
8066664;-0.36000
8069442;-0.36000
8072220;-0.36000
8074998;-0.34500
8077776;-0.35000
8080553;-0.34500
8083331;-0.36000
8086109;-0.37000
8088887;-0.36000
8091664;-0.35500
8094442;-0.35500
8097220;-0.35000
8099998;-0.36500
8102776;-0.37500
8105553;-0.36000
8108331;-0.36000
8111109;-0.35500
8113887;-0.36500
8116664;-0.37000
8119442;-0.37500
8122220;-0.37000
8124998;-0.36000
8127776;-0.35000
8130553;-0.35500
8133331;-0.35500
8136109;-0.37000
8138887;-0.35500
8141664;-0.35000
8144442;-0.35000
8147220;-0.35000
8149998;-0.36000
8152775;-0.37000
8155553;-0.36500
8158331;-0.36000
8161109;-0.35500
8163887;-0.36000
8166664;-0.37000
8169442;-0.36500
8172220;-0.36000
8174998;-0.35000
8177775;-0.34500
8180553;-0.35000
8183331;-0.36000
8186109;-0.37000
8188887;-0.35500
8191664;-0.35500
8194442;-0.34500
8197220;-0.36000
8199998;-0.37500
8202775;-0.38500
8205553;-0.38500
8208331;-0.37500
8211109;-0.36500
8213887;-0.38000
8216664;-0.38500
8219442;-0.39500
8222220;-0.39000
8224998;-0.39500
8227775;-0.38000
8230553;-0.40000
8233331;-0.39500
8236109;-0.41500
8238887;-0.40500
8241664;-0.40500
8244442;-0.40000
8247220;-0.40000
8249998;-0.41000
8252775;-0.42500
8255553;-0.41500
8258331;-0.40000
8261109;-0.39000
8263887;-0.39000
8266664;-0.38000
8269442;-0.38500
8272220;-0.37000
8274998;-0.34500
8277775;-0.33500
8280553;-0.32500
8283331;-0.32000
8286109;-0.32000
8288887;-0.29500
8291664;-0.28000
8294442;-0.27000
8297220;-0.26000
8299998;-0.27000
8302775;-0.26500
8305553;-0.24500
8308331;-0.24500
8311109;-0.23000
8313887;-0.23000
8316664;-0.23500
8319442;-0.23500
8322220;-0.23000
8324998;-0.22500
8327775;-0.22500
8330553;-0.22000
8333331;-0.22500
8336109;-0.25000
8338887;-0.23500
8341664;-0.24000
8344442;-0.23500
8347220;-0.23000
8349998;-0.23000
8352775;-0.26500
8355553;-0.24500
8358331;-0.24500
8361109;-0.22000
8363887;-0.21000
8366664;-0.23000
8369442;-0.23500
8372220;-0.23500
8374998;-0.22500
8377775;-0.21000
8380553;-0.23000
8383331;-0.23000
8386109;-0.24500
8388887;-0.24000
8391664;-0.23000
8394442;-0.23000
8397220;-0.24000
8399998;-0.24000
8402775;-0.26500
8405553;-0.25000
8408331;-0.24500
8411109;-0.24500
8413887;-0.24500
8416664;-0.26000
8419442;-0.26500
8422220;-0.26000
8424998;-0.26000
8427775;-0.24500
8430553;-0.24000
8433331;-0.26500
8436109;-0.26000
8438887;-0.26000
8441664;-0.26000
8444442;-0.24500
8447220;-0.25000
8449998;-0.26000
8452775;-0.26500
8455553;-0.25000
8458331;-0.25000
8461109;-0.25500
8463887;-0.26000
8466664;-0.26000
8469442;-0.25500
8472220;-0.26500
8474998;-0.25000
8477775;-0.26500
8480553;-0.26500
8483331;-0.26500
8486109;-0.28000
8488887;-0.27000
8491664;-0.26500
8494442;-0.25000
8497220;-0.26000
8499998;-0.27000
8502775;-0.27500
8505553;-0.27000
8508331;-0.26000
8511109;-0.24500
8513887;-0.24500
8516664;-0.27000
8519442;-0.27500
8522220;-0.27000
8524998;-0.27000
8527775;-0.25500
8530553;-0.26000
8533331;-0.25500
8536109;-0.26500
8538886;-0.26500
8541664;-0.25500
8544442;-0.24000
8547220;-0.24500
8549998;-0.25500
8552775;-0.26500
8555553;-0.25500
8558331;-0.24500
8561109;-0.23500
8563886;-0.23000
8566664;-0.22500
8569442;-0.22500
8572220;-0.19000
8574998;-0.19000
8577775;-0.17000
8580553;-0.17500
8583331;-0.17500
8586109;-0.17500
8588886;-0.16500
8591664;-0.14500
8594442;-0.13500
8597220;-0.13500
8599998;-0.14500
8602775;-0.16500
8605553;-0.15500
8608331;-0.15500
8611109;-0.16500
8613886;-0.17500
8616664;-0.18000
8619442;-0.19500
8622220;-0.18500
8624998;-0.19000
8627775;-0.18500
8630553;-0.19500
8633331;-0.19500
8636109;-0.18500
8638886;-0.16500
8641664;-0.13000
8644442;-0.10500
8647220;-0.11000
8649998;-0.14500
8652775;-0.17500
8655553;-0.20000
8658331;-0.19500
8661109;-0.22000
8663886;-0.22500
8666664;-0.24500
8669442;-0.27000
8672220;-0.27500
8674998;-0.28000
8677775;-0.26500
8680553;-0.27000
8683331;-0.28000
8686109;-0.28500
8688886;-0.29000
8691664;-0.28000
8694442;-0.28000
8697220;-0.29000
8699998;-0.29500
8702775;-0.31500
8705553;-0.30000
8708331;-0.29500
8711109;-0.29500
8713886;-0.30500
8716664;-0.30000
8719442;-0.31000
8722220;-0.29500
8724998;-0.29000
8727775;-0.29000
8730553;-0.31000
8733331;-0.32500
8736109;-0.36500
8738886;-0.38500
8741664;-0.41000
8744442;-0.41500
8747220;-0.46000
8749998;-0.49500
8752775;-0.48500
8755553;-0.38000
8758331;-0.23000
8761109;-0.05000
8763886;0.14000
8766664;0.35500
8769442;0.63500
8772220;0.90500
8774998;1.08000
8777775;1.13000
8780553;1.00000
8783331;0.64500
8786109;0.15500
8788886;-0.24500
8791664;-0.42500
8794442;-0.41500
8797220;-0.37000
8799998;-0.33500
8802775;-0.33500
8805553;-0.33000
8808331;-0.33000
8811109;-0.33500
8813886;-0.35000
8816664;-0.35000
8819442;-0.36500
8822220;-0.36500
8824998;-0.35000
8827775;-0.35500
8830553;-0.35500
8833331;-0.36000
8836109;-0.35000
8838886;-0.35500
8841664;-0.35500
8844442;-0.35000
8847220;-0.34500
8849998;-0.35000
8852775;-0.37000
8855553;-0.36000
8858331;-0.35000
8861109;-0.34000
8863886;-0.34500
8866664;-0.35500
8869442;-0.36000
8872220;-0.36000
8874998;-0.35000
8877775;-0.35000
8880553;-0.34000
8883331;-0.34500
8886109;-0.35500
8888886;-0.35000
8891664;-0.34500
8894442;-0.35000
8897220;-0.36000
8899998;-0.37000
8902775;-0.37500
8905553;-0.37000
8908331;-0.36000
8911109;-0.35000
8913886;-0.35500
8916664;-0.36000
8919442;-0.37000
8922220;-0.35500
8924998;-0.35500
8927775;-0.34500
8930553;-0.34500
8933331;-0.35500
8936109;-0.37000
8938886;-0.37000
8941664;-0.35500
8944442;-0.36000
8947220;-0.35500
8949997;-0.35500
8952775;-0.37000
8955553;-0.36500
8958331;-0.35500
8961109;-0.36000
8963886;-0.35000
8966664;-0.37500
8969442;-0.37000
8972220;-0.37500
8974997;-0.36500
8977775;-0.35000
8980553;-0.36000
8983331;-0.37500
8986109;-0.37500
8988886;-0.37500
8991664;-0.36500
8994442;-0.36000
8997220;-0.35500
8999997;-0.36500
9002775;-0.37000
9005553;-0.35500
9008331;-0.34500
9011109;-0.35000
9013886;-0.37000
9016664;-0.37000
9019442;-0.37000
9022220;-0.36000
9024997;-0.36000
9027775;-0.35500
9030553;-0.35000
9033331;-0.36500
9036109;-0.37000
9038886;-0.36500
9041664;-0.35000
9044442;-0.35500
9047220;-0.35500
9049997;-0.34500
9052775;-0.35500
9055553;-0.33500
9058331;-0.31500
9061109;-0.30500
9063886;-0.30500
9066664;-0.30500
9069442;-0.31000
9072220;-0.29000
9074997;-0.27000
9077775;-0.26500
9080553;-0.27000
9083331;-0.26500
9086109;-0.25500
9088886;-0.25500
9091664;-0.24000
9094442;-0.23500
9097220;-0.23000
9099997;-0.24000
9102775;-0.24000
9105553;-0.25000
9108331;-0.23000
9111109;-0.23000
9113886;-0.23500
9116664;-0.23500
9119442;-0.26000
9122220;-0.23500
9124997;-0.24500
9127775;-0.24500
9130553;-0.23500
9133331;-0.24500
9136109;-0.26000
9138886;-0.24500
9141664;-0.24000
9144442;-0.23500
9147220;-0.22500
9149997;-0.24500
9152775;-0.26000
9155553;-0.25000
9158331;-0.24500
9161109;-0.24000
9163886;-0.25000
9166664;-0.25000
9169442;-0.25500
9172220;-0.26500
9174997;-0.25500
9177775;-0.25500
9180553;-0.25500
9183331;-0.27500
9186109;-0.28500
9188886;-0.29000
9191664;-0.26500
9194442;-0.25500
9197220;-0.26000
9199997;-0.26500
9202775;-0.29000
9205553;-0.28000
9208331;-0.26500
9211109;-0.26500
9213886;-0.27500
9216664;-0.28500
9219442;-0.29000
9222220;-0.28500
9224997;-0.28000
9227775;-0.28000
9230553;-0.28000
9233331;-0.29000
9236109;-0.29500
9238886;-0.29500
9241664;-0.28500
9244442;-0.28500
9247220;-0.29000
9249997;-0.29000
9252775;-0.29500
9255553;-0.30500
9258331;-0.29500
9261109;-0.29500
9263886;-0.30000
9266664;-0.31000
9269442;-0.32000
9272220;-0.31000
9274997;-0.30500
9277775;-0.30500
9280553;-0.30500
9283331;-0.31000
9286109;-0.32000
9288886;-0.30000
9291664;-0.30000
9294442;-0.30000
9297220;-0.30000
9299997;-0.30000
9302775;-0.29500
9305553;-0.29500
9308331;-0.29000
9311109;-0.28500
9313886;-0.28500
9316664;-0.29500
9319442;-0.30500
9322220;-0.29000
9324997;-0.29000
9327775;-0.27500
9330553;-0.29000
9333331;-0.30000
9336108;-0.29500
9338886;-0.29500
9341664;-0.27000
9344442;-0.24500
9347220;-0.24000
9349997;-0.23500
9352775;-0.24500
9355553;-0.23500
9358331;-0.22500
9361108;-0.21500
9363886;-0.20500
9366664;-0.20000
9369442;-0.20500
9372220;-0.19500
9374997;-0.18000
9377775;-0.16000
9380553;-0.16500
9383331;-0.17500
9386108;-0.19500
9388886;-0.20000
9391664;-0.20000
9394442;-0.20000
9397220;-0.19500
9399997;-0.20500
9402775;-0.21500
9405553;-0.22500
9408331;-0.22000
9411108;-0.19000
9413886;-0.18000
9416664;-0.16000
9419442;-0.15500
9422220;-0.16000
9424997;-0.17500
9427775;-0.20000
9430553;-0.21500
9433331;-0.22500
9436108;-0.26500
9438886;-0.26500
9441664;-0.27500
9444442;-0.28000
9447220;-0.28500
9449997;-0.30500
9452775;-0.31500
9455553;-0.31000
9458331;-0.30500
9461108;-0.29500
9463886;-0.30000
9466664;-0.31500
9469442;-0.33000
9472220;-0.32000
9474997;-0.31500
9477775;-0.30500
9480553;-0.31000
9483331;-0.31000
9486108;-0.32500
9488886;-0.31500
9491664;-0.30500
9494442;-0.30500
9497220;-0.29500
9499997;-0.30500
9502775;-0.32000
9505553;-0.33000
9508331;-0.35000
9511108;-0.37500
9513886;-0.41500
9516664;-0.44500
9519442;-0.47500
9522220;-0.50000
9524997;-0.52500
9527775;-0.47000
9530553;-0.36000
9533331;-0.24000
9536108;-0.11000
9538886;0.04500
9541664;0.21000
9544442;0.43500
9547220;0.66500
9549997;0.84000
9552775;0.95000
9555553;1.04500
9558331;1.10500
9561108;1.05000
9563886;0.83000
9566664;0.42000
9569442;-0.02000
9572220;-0.34000
9574997;-0.44500
9577775;-0.42500
9580553;-0.37000
9583331;-0.33500
9586108;-0.34000
9588886;-0.34500
9591664;-0.35000
9594442;-0.34000
9597220;-0.35000
9599997;-0.36000
9602775;-0.36500
9605553;-0.36500
9608331;-0.36500
9611108;-0.36000
9613886;-0.37000
9616664;-0.38000
9619442;-0.38500
9622220;-0.38500
9624997;-0.37500
9627775;-0.37000
9630553;-0.38000
9633331;-0.39000
9636108;-0.41000
9638886;-0.39000
9641664;-0.36500
9644442;-0.37000
9647220;-0.36000
9649997;-0.37000
9652775;-0.37500
9655553;-0.37500
9658331;-0.37000
9661108;-0.36500
9663886;-0.36500
9666664;-0.38000
9669442;-0.39000
9672220;-0.37500
9674997;-0.37500
9677775;-0.37000
9680553;-0.37500
9683331;-0.38500
9686108;-0.39500
9688886;-0.38500
9691664;-0.37500
9694442;-0.37000
9697220;-0.37000
9699997;-0.38000
9702775;-0.39000
9705553;-0.38500
9708331;-0.37000
9711108;-0.37500
9713886;-0.37500
9716664;-0.37000
9719442;-0.39500
9722220;-0.38500
9724997;-0.37500
9727775;-0.37500
9730553;-0.37000
9733331;-0.38000
9736108;-0.39000
9738886;-0.39000
9741664;-0.37500
9744442;-0.37500
9747219;-0.38000
9749997;-0.39000
9752775;-0.38500
9755553;-0.38500
9758331;-0.37500
9761108;-0.37000
9763886;-0.38000
9766664;-0.38000
9769442;-0.39000
9772219;-0.38500
9774997;-0.38000
9777775;-0.37000
9780553;-0.37500
9783331;-0.38500
9786108;-0.39500
9788886;-0.39500
9791664;-0.38000
9794442;-0.38500
9797219;-0.38500
9799997;-0.40000
9802775;-0.42500
9805553;-0.41000
9808331;-0.39500
9811108;-0.38500
9813886;-0.38000
9816664;-0.39000
9819442;-0.39500
9822219;-0.39500
9824997;-0.38500
9827775;-0.38500
9830553;-0.38000
9833331;-0.38000
9836108;-0.38000
9838886;-0.37000
9841664;-0.34000
9844442;-0.32000
9847219;-0.30500
9849997;-0.31500
9852775;-0.31500
9855553;-0.30000
9858331;-0.29500
9861108;-0.27500
9863886;-0.27500
9866664;-0.29500
9869442;-0.28500
9872219;-0.28500
9874997;-0.28000
9877775;-0.26500
9880553;-0.27500
9883331;-0.28000
9886108;-0.27500
9888886;-0.28000
9891664;-0.25500
9894442;-0.26000
9897219;-0.26000
9899997;-0.26000
9902775;-0.27000
9905553;-0.27000
9908331;-0.25500
9911108;-0.25500
9913886;-0.26000
9916664;-0.27000
9919442;-0.27000
9922219;-0.27500
9924997;-0.26000
9927775;-0.24500
9930553;-0.24500
9933331;-0.25500
9936108;-0.27000
9938886;-0.27500
9941664;-0.27000
9944442;-0.26500
9947219;-0.27500
9949997;-0.27000
9952775;-0.28500
9955553;-0.28500
9958331;-0.26000
9961108;-0.26500
9963886;-0.28000
9966664;-0.28000
9969442;-0.30500
9972219;-0.29000
9974997;-0.28000
9977775;-0.28000
9980553;-0.28500
9983331;-0.29500
9986108;-0.30500
9988886;-0.30500
9991664;-0.29500
9994442;-0.29000
9997219;-0.30000
9999997;-0.31000
10002775;-0.31500
10005553;-0.31500
10008331;-0.30500
10011108;-0.29500
10013886;-0.31000
10016664;-0.31000
10019442;-0.31500
10022219;-0.32500
10024997;-0.31000
10027775;-0.30000
10030553;-0.30500
10033331;-0.31500
10036108;-0.32000
10038886;-0.32000
10041664;-0.31500
10044442;-0.31500
10047219;-0.32500
10049997;-0.32000
10052775;-0.32500
10055553;-0.32000
10058331;-0.31000
10061108;-0.31000
10063886;-0.32000
10066664;-0.32000
10069442;-0.33000
10072219;-0.33500
10074997;-0.33500
10077775;-0.32000
10080553;-0.32500
10083331;-0.32500
10086108;-0.33000
10088886;-0.32000
10091664;-0.31000
10094442;-0.29500
10097219;-0.30500
10099997;-0.31500
10102775;-0.31500
10105553;-0.31000
10108331;-0.30500
10111108;-0.30500
10113886;-0.30500
10116664;-0.31000
10119442;-0.32500
10122219;-0.31500
10124997;-0.31000
10127775;-0.30500
10130553;-0.30500
10133330;-0.31500
10136108;-0.31000
10138886;-0.29000
10141664;-0.27500
10144442;-0.25500
10147219;-0.24500
10149997;-0.25000
10152775;-0.25500
10155553;-0.23500
10158330;-0.21500
10161108;-0.20000
10163886;-0.19500
10166664;-0.20000
10169442;-0.20500
10172219;-0.19500
10174997;-0.19000
10177775;-0.18000
10180553;-0.18500
10183330;-0.20000
10186108;-0.20500
10188886;-0.22000
10191664;-0.21500
10194442;-0.21000
10197219;-0.20500
10199997;-0.22500
10202775;-0.25000
10205553;-0.24000
10208330;-0.22500
10211108;-0.19000
10213886;-0.18000
10216664;-0.19000
10219442;-0.23000
10222219;-0.23500
10224997;-0.23500
10227775;-0.25500
10230553;-0.25000
10233330;-0.28000
10236108;-0.29500
10238886;-0.29500
10241664;-0.29500
10244442;-0.29000
10247219;-0.30500
10249997;-0.30500
10252775;-0.32500
10255553;-0.33500
10258330;-0.32500
10261108;-0.31500
10263886;-0.32000
10266664;-0.33000
10269442;-0.33000
10272219;-0.33500
10274997;-0.33000
10277775;-0.34000
10280553;-0.34000
10283330;-0.34500
10286108;-0.33500
10288886;-0.32000
10291664;-0.32000
10294442;-0.32500
10297219;-0.34000
10299997;-0.34500
10302775;-0.37000
10305553;-0.34500
10308330;-0.34000
10311108;-0.33500
10313886;-0.35000
10316664;-0.39500
10319442;-0.45000
10322219;-0.47000
10324997;-0.48500
10327775;-0.51000
10330553;-0.55000
10333330;-0.52500
10336108;-0.43500
10338886;-0.28500
10341664;-0.13500
10344442;0.06500
10347219;0.30000
10349997;0.56500
10352775;0.76500
10355553;0.89500
10358330;0.89500
10361108;0.70000
10363886;0.34500
10366664;-0.05500
10369442;-0.33500
10372219;-0.45500
10374997;-0.47000
10377775;-0.43500
10380553;-0.40000
10383330;-0.38000
10386108;-0.40000
10388886;-0.40000
10391664;-0.38500
10394442;-0.37500
10397219;-0.37000
10399997;-0.38500
10402775;-0.40000
10405553;-0.38500
10408330;-0.38500
10411108;-0.37000
10413886;-0.38500
10416664;-0.40500
10419442;-0.42000
10422219;-0.39500
10424997;-0.38000
10427775;-0.37000
10430553;-0.37500
10433330;-0.38500
10436108;-0.39000
10438886;-0.39500
10441664;-0.40000
10444442;-0.39000
10447219;-0.38500
10449997;-0.39000
10452775;-0.39500
10455553;-0.38500
10458330;-0.38000
10461108;-0.36500
10463886;-0.38000
10466664;-0.38000
10469442;-0.40000
10472219;-0.38500
10474997;-0.37000
10477775;-0.36500
10480553;-0.36500
10483330;-0.38000
10486108;-0.40000
10488886;-0.40000
10491664;-0.38000
10494442;-0.37000
10497219;-0.37500
10499997;-0.39000
10502775;-0.40000
10505553;-0.40000
10508330;-0.39500
10511108;-0.38500
10513886;-0.40000
10516664;-0.40000
10519441;-0.41000
10522219;-0.40500
10524997;-0.39500
10527775;-0.38000
10530553;-0.38500
10533330;-0.41000
10536108;-0.41500
10538886;-0.41000
10541664;-0.40000
10544441;-0.39000
10547219;-0.39500
10549997;-0.39000
10552775;-0.40000
10555553;-0.39500
10558330;-0.37500
10561108;-0.36500
10563886;-0.39500
10566664;-0.40000
10569441;-0.40000
10572219;-0.40000
10574997;-0.38500
10577775;-0.39000
10580553;-0.40000
10583330;-0.42000
10586108;-0.43000
10588886;-0.42000
10591664;-0.41000
10594441;-0.40000
10597219;-0.41500
10599997;-0.41000
10602775;-0.43000
10605553;-0.41500
10608330;-0.41000
10611108;-0.40000
10613886;-0.41000
10616664;-0.42000
10619441;-0.43000
10622219;-0.41000
10624997;-0.40000
10627775;-0.41000
10630553;-0.41000
10633330;-0.42500
10636108;-0.43000
10638886;-0.41500
10641664;-0.41000
10644441;-0.40500
10647219;-0.41500
10649997;-0.41500
10652775;-0.43000
10655553;-0.42000
10658330;-0.41000
10661108;-0.39500
10663886;-0.36500
10666664;-0.37000
10669441;-0.37500
10672219;-0.35500
10674997;-0.34500
10677775;-0.32500
10680553;-0.31000
10683330;-0.30500
10686108;-0.30500
10688886;-0.30500
10691664;-0.30000
10694441;-0.28000
10697219;-0.27500
10699997;-0.27000
10702775;-0.27000
10705553;-0.26500
10708330;-0.26000
10711108;-0.26500
10713886;-0.26000
10716664;-0.26500
10719441;-0.27500
10722219;-0.28000
10724997;-0.26500
10727775;-0.25500
10730553;-0.26500
10733330;-0.26500
10736108;-0.28000
10738886;-0.27000
10741664;-0.27500
10744441;-0.27000
10747219;-0.27500
10749997;-0.27000
10752775;-0.28000
10755553;-0.28000
10758330;-0.26500
10761108;-0.25000
10763886;-0.26000
10766664;-0.26500
10769441;-0.28000
10772219;-0.28000
10774997;-0.28000
10777775;-0.28500
10780553;-0.27500
10783330;-0.29500
10786108;-0.29500
10788886;-0.27500
10791664;-0.27000
10794441;-0.28000
10797219;-0.28500
10799997;-0.29500
10802775;-0.30500
10805553;-0.29500
10808330;-0.29000
10811108;-0.30000
10813886;-0.30500
10816664;-0.30500
10819441;-0.30500
10822219;-0.30500
10824997;-0.29500
10827775;-0.29500
10830553;-0.30500
10833330;-0.31500
10836108;-0.31500
10838886;-0.30000
10841664;-0.29000
10844441;-0.29000
10847219;-0.29500
10849997;-0.30500
10852775;-0.30500
10855553;-0.30500
10858330;-0.31000
10861108;-0.31000
10863886;-0.30500
10866664;-0.30000
10869441;-0.32500
10872219;-0.33000
10874997;-0.33000
10877775;-0.32500
10880553;-0.31000
10883330;-0.31000
10886108;-0.31500
10888886;-0.31500
10891664;-0.32000
10894441;-0.30500
10897219;-0.31500
10899997;-0.32000
10902775;-0.32500
10905553;-0.33500
10908330;-0.32000
10911108;-0.31000
10913886;-0.28000
10916664;-0.29000
10919441;-0.31000
10922219;-0.31000
10924997;-0.31000
10927775;-0.32000
10930552;-0.32000
10933330;-0.31000
10936108;-0.32000
10938886;-0.30500
10941664;-0.30500
10944441;-0.29000
10947219;-0.30000
10949997;-0.30500
10952775;-0.29000
10955552;-0.28000
10958330;-0.26500
10961108;-0.25500
10963886;-0.25500
10966664;-0.25000
10969441;-0.25500
10972219;-0.24500
10974997;-0.22500
10977775;-0.21500
10980552;-0.22000
10983330;-0.22500
10986108;-0.23000
10988886;-0.20500
10991664;-0.20000
10994441;-0.17500
10997219;-0.17500
10999997;-0.19500
11002775;-0.21000
11005552;-0.20000
11008330;-0.20000
11011108;-0.20500
11013886;-0.21000
11016664;-0.22000
11019441;-0.23000
11022219;-0.23500
11024997;-0.23000
11027775;-0.21000
11030552;-0.18500
11033330;-0.18500
11036108;-0.22500
11038886;-0.24500
11041664;-0.26500
11044441;-0.27500
11047219;-0.29000
11049997;-0.30000
11052775;-0.31000
11055552;-0.31000
11058330;-0.31500
11061108;-0.31000
11063886;-0.32000
11066664;-0.33000
11069441;-0.32500
11072219;-0.33000
11074997;-0.33000
11077775;-0.31500
11080552;-0.31500
11083330;-0.33000
11086108;-0.32500
11088886;-0.33000
11091664;-0.31500
11094441;-0.31500
11097219;-0.32000
11099997;-0.33000
11102775;-0.35000
11105552;-0.34000
11108330;-0.33000
11111108;-0.32500
11113886;-0.32000
11116664;-0.33000
11119441;-0.35000
11122219;-0.34500
11124997;-0.33500
11127775;-0.32500
11130552;-0.34000
11133330;-0.37500
11136108;-0.43000
11138886;-0.46000
11141664;-0.46000
11144441;-0.48500
11147219;-0.51500
11149997;-0.50000
11152775;-0.42000
11155552;-0.26000
11158330;-0.10500
11161108;0.06500
11163886;0.28500
11166664;0.53500
11169441;0.78000
11172219;0.96000
11174997;1.03500
11177775;0.94500
11180552;0.65500
11183330;0.23500
11186108;-0.15000
11188886;-0.38500
11191664;-0.45500
11194441;-0.44500
11197219;-0.41000
11199997;-0.38500
11202775;-0.37500
11205552;-0.36000
11208330;-0.35500
11211108;-0.35500
11213886;-0.34500
11216664;-0.35000
11219441;-0.34500
11222219;-0.35500
11224997;-0.35500
11227775;-0.34500
11230552;-0.35000
11233330;-0.36500
11236108;-0.37500
11238886;-0.36500
11241664;-0.36500
11244441;-0.36500
11247219;-0.36000
11249997;-0.35000
11252775;-0.36500
11255552;-0.36500
11258330;-0.35500
11261108;-0.36000
11263886;-0.35500
11266664;-0.36500
11269441;-0.38000
11272219;-0.36500
11274997;-0.35500
11277775;-0.35500
11280552;-0.35000
11283330;-0.36500
11286108;-0.36500
11288886;-0.36000
11291664;-0.35000
11294441;-0.34500
11297219;-0.35500
11299997;-0.35500
11302775;-0.37000
11305552;-0.36500
11308330;-0.36500
11311108;-0.36000
11313886;-0.35500
11316663;-0.35000
11319441;-0.37000
11322219;-0.36500
11324997;-0.36500
11327775;-0.35500
11330552;-0.35500
11333330;-0.37000
11336108;-0.37500
11338886;-0.37500
11341663;-0.37000
11344441;-0.36000
11347219;-0.35000
11349997;-0.36500
11352775;-0.37500
11355552;-0.36000
11358330;-0.36000
11361108;-0.35000
11363886;-0.36000
11366663;-0.35500
11369441;-0.36000
11372219;-0.36500
11374997;-0.35000
11377775;-0.35000
11380552;-0.35000
11383330;-0.34500
11386108;-0.37000
11388886;-0.36000
11391663;-0.36000
11394441;-0.35000
11397219;-0.34500
11399997;-0.37000
11402775;-0.37500
11405552;-0.36500
11408330;-0.36000
11411108;-0.35000
11413886;-0.36000
11416663;-0.37500
11419441;-0.37500
11422219;-0.37500
11424997;-0.37000
11427775;-0.35500
11430552;-0.35500
11433330;-0.38000
11436108;-0.38500
11438886;-0.39000
11441663;-0.40000
11444441;-0.38500
11447219;-0.38500
11449997;-0.40000
11452775;-0.41500
11455552;-0.42000
11458330;-0.39000
11461108;-0.39000
11463886;-0.38500
11466663;-0.38000
11469441;-0.39000
11472219;-0.37500
11474997;-0.36000
11477775;-0.33500
11480552;-0.33500
11483330;-0.33500
11486108;-0.33000
11488886;-0.31000
11491663;-0.29500
11494441;-0.27000
11497219;-0.26500
11499997;-0.26000
11502775;-0.26000
11505552;-0.25000
11508330;-0.23500
11511108;-0.22000
11513886;-0.22500
11516663;-0.22000
11519441;-0.22500
11522219;-0.21500
11524997;-0.20000
11527775;-0.20000
11530552;-0.20500
11533330;-0.20500
11536108;-0.22500
11538886;-0.21000
11541663;-0.21000
11544441;-0.21000
11547219;-0.19500
11549997;-0.21000
11552775;-0.22000
11555552;-0.21500
11558330;-0.20000
11561108;-0.20000
11563886;-0.20500
11566663;-0.20500
11569441;-0.22000
11572219;-0.21500
11574997;-0.19500
11577775;-0.19000
11580552;-0.18500
11583330;-0.19500
11586108;-0.21000
11588886;-0.20500
11591663;-0.19000
11594441;-0.20000
11597219;-0.20500
11599997;-0.21500
11602775;-0.21500
11605552;-0.20500
11608330;-0.20500
11611108;-0.20000
11613886;-0.20000
11616663;-0.21500
11619441;-0.22500
11622219;-0.21500
11624997;-0.21000
11627775;-0.19500
11630552;-0.20000
11633330;-0.21500
11636108;-0.22000
11638886;-0.22000
11641663;-0.21500
11644441;-0.22000
11647219;-0.22000
11649997;-0.22000
11652775;-0.23500
11655552;-0.23500
11658330;-0.23000
11661108;-0.22000
11663886;-0.21500
11666663;-0.23500
11669441;-0.23500
11672219;-0.23000
11674997;-0.22500
11677775;-0.21000
11680552;-0.22000
11683330;-0.22000
11686108;-0.24500
11688886;-0.24500
11691663;-0.23500
11694441;-0.21500
11697219;-0.22500
11699997;-0.23500
11702775;-0.24000
11705552;-0.23000
11708330;-0.23000
11711108;-0.20500
11713886;-0.21000
11716663;-0.23000
11719441;-0.24000
11722219;-0.22500
11724997;-0.21500
11727774;-0.20500
11730552;-0.20000
11733330;-0.21000
11736108;-0.21500
11738886;-0.22000
11741663;-0.21500
11744441;-0.19500
11747219;-0.19500
11749997;-0.20500
11752774;-0.22000
11755552;-0.21000
11758330;-0.20500
11761108;-0.20000
11763886;-0.20500
11766663;-0.21500
11769441;-0.21500
11772219;-0.21500
11774997;-0.21000
11777774;-0.20000
11780552;-0.19500
11783330;-0.20000
11786108;-0.21500
11788886;-0.20000
11791663;-0.19500
11794441;-0.17000
11797219;-0.16000
11799997;-0.15500
11802774;-0.15000
11805552;-0.14000
11808330;-0.13000
11811108;-0.12500
11813886;-0.13000
11816663;-0.14000
11819441;-0.13500
11822219;-0.12000
11824997;-0.11000
11827774;-0.09500
11830552;-0.09000
11833330;-0.09000
11836108;-0.11000
11838886;-0.11000
11841663;-0.10000
11844441;-0.10000
11847219;-0.10500
11849997;-0.12000
11852774;-0.12500
11855552;-0.11000
11858330;-0.11000
11861108;-0.11000
11863886;-0.12500
11866663;-0.12500
11869441;-0.12000
11872219;-0.09500
11874997;-0.07500
11877774;-0.07500
11880552;-0.09000
11883330;-0.12500
11886108;-0.16000
11888886;-0.16500
11891663;-0.16000
11894441;-0.17500
11897219;-0.18500
11899997;-0.20500
11902774;-0.23000
11905552;-0.23500
11908330;-0.23500
11911108;-0.21500
11913886;-0.21000
11916663;-0.22500
11919441;-0.23500
11922219;-0.24000
11924997;-0.23500
11927774;-0.22500
11930552;-0.22500
11933330;-0.23000
11936108;-0.24500
11938886;-0.23500
11941663;-0.23500
11944441;-0.23000
11947219;-0.23000
11949997;-0.24000
11952774;-0.25000
11955552;-0.25000
11958330;-0.24000
11961108;-0.24000
11963886;-0.25000
11966663;-0.26000
11969441;-0.29000
11972219;-0.32500
11974997;-0.34500
11977774;-0.37000
11980552;-0.38500
11983330;-0.42500
11986108;-0.44500
11988886;-0.39000
11991663;-0.25000
11994441;-0.08500
11997219;0.09500
11999997;0.29000
12002774;0.53000
12005552;0.83000
12008330;1.08000
12011108;1.21000
12013886;1.22500
12016663;1.05500
12019441;0.69500
12022219;0.23000
12024997;-0.15000
12027774;-0.34500
12030552;-0.38500
12033330;-0.37000
12036108;-0.33000
12038886;-0.30500
12041663;-0.26500
12044441;-0.26000
12047219;-0.27000
12049997;-0.27500
12052774;-0.30000
12055552;-0.29500
12058330;-0.27500
12061108;-0.27500
12063886;-0.27000
12066663;-0.28000
12069441;-0.31500
12072219;-0.32000
12074997;-0.30000
12077774;-0.28500
12080552;-0.30000
12083330;-0.29500
12086108;-0.31000
12088886;-0.30000
12091663;-0.30500
12094441;-0.29500
12097219;-0.30000
12099997;-0.30000
12102774;-0.31000
12105552;-0.30500
12108330;-0.30000
12111108;-0.29500
12113885;-0.30500
12116663;-0.29500
12119441;-0.32000
12122219;-0.31500
12124997;-0.30500
12127774;-0.30500
12130552;-0.31000
12133330;-0.30500
12136108;-0.32000
12138885;-0.32000
12141663;-0.31000
12144441;-0.30000
12147219;-0.29000
12149997;-0.31000
12152774;-0.31500
12155552;-0.32000
12158330;-0.31000
12161108;-0.29500
12163885;-0.30500
12166663;-0.31500
12169441;-0.32500
12172219;-0.32000
12174997;-0.32500
12177774;-0.31500
12180552;-0.30000
12183330;-0.31500
12186108;-0.33000
12188885;-0.32500
12191663;-0.32500
12194441;-0.30500
12197219;-0.31000
12199997;-0.31500
12202774;-0.32500
12205552;-0.32000
12208330;-0.32000
12211108;-0.29500
12213885;-0.30500
12216663;-0.31500
12219441;-0.31500
12222219;-0.32000
12224997;-0.31500
12227774;-0.31000
12230552;-0.30500
12233330;-0.31500
12236108;-0.32000
12238885;-0.31500
12241663;-0.32000
12244441;-0.31000
12247219;-0.31500
12249997;-0.33000
12252774;-0.33500
12255552;-0.33000
12258330;-0.33000
12261108;-0.32000
12263885;-0.31000
12266663;-0.32500
12269441;-0.33000
12272219;-0.32000
12274997;-0.31500
12277774;-0.30500
12280552;-0.31500
12283330;-0.32000
12286108;-0.32000
12288885;-0.32000
12291663;-0.31500
12294441;-0.29500
12297219;-0.29500
12299997;-0.29000
12302774;-0.30000
12305552;-0.28500
12308330;-0.26000
12311108;-0.25000
12313885;-0.24000
12316663;-0.23500
12319441;-0.23500
12322219;-0.23000
12324997;-0.23000
12327774;-0.21000
12330552;-0.21000
12333330;-0.21000
12336108;-0.21000
12338885;-0.20500
12341663;-0.19500
12344441;-0.19000
12347219;-0.17500
12349997;-0.19000
12352774;-0.20000
12355552;-0.19500
12358330;-0.18000
12361108;-0.17000
12363885;-0.17500
12366663;-0.18000
12369441;-0.20000
12372219;-0.19500
12374997;-0.18500
12377774;-0.18000
12380552;-0.18000
12383330;-0.19000
12386108;-0.20500
12388885;-0.20000
12391663;-0.19500
12394441;-0.18500
12397219;-0.19000
12399997;-0.20500
12402774;-0.20500
12405552;-0.20500
12408330;-0.20500
12411108;-0.20000
12413885;-0.19000
12416663;-0.21500
12419441;-0.22000
12422219;-0.22500
12424997;-0.22000
12427774;-0.21000
12430552;-0.21500
12433330;-0.22000
12436108;-0.23500
12438885;-0.22500
12441663;-0.21500
12444441;-0.22500
12447219;-0.23000
12449997;-0.24000
12452774;-0.24500
12455552;-0.24500
12458330;-0.23500
12461108;-0.22500
12463885;-0.22500
12466663;-0.23500
12469441;-0.24000
12472219;-0.24500
12474997;-0.25500
12477774;-0.25000
12480552;-0.25000
12483330;-0.25500
12486108;-0.26500
12488885;-0.26000
12491663;-0.26000
12494441;-0.26000
12497219;-0.25500
12499996;-0.27000
12502774;-0.28500
12505552;-0.27000
12508330;-0.27000
12511108;-0.24500
12513885;-0.25500
12516663;-0.26500
12519441;-0.28500
12522219;-0.27500
12524996;-0.26000
12527774;-0.25500
12530552;-0.26000
12533330;-0.27000
12536108;-0.28000
12538885;-0.27500
12541663;-0.27000
12544441;-0.26000
12547219;-0.25500
12549996;-0.26000
12552774;-0.26500
12555552;-0.26500
12558330;-0.26500
12561108;-0.26000
12563885;-0.25000
12566663;-0.26500
12569441;-0.27000
12572219;-0.27000
12574996;-0.26000
12577774;-0.25500
12580552;-0.25500
12583330;-0.24500
12586108;-0.27500
12588885;-0.26000
12591663;-0.25000
12594441;-0.24500
12597219;-0.24500
12599996;-0.24000
12602774;-0.24000
12605552;-0.22500
12608330;-0.20000
12611108;-0.19000
12613885;-0.18000
12616663;-0.17500
12619441;-0.19000
12622219;-0.19000
12624996;-0.18000
12627774;-0.15500
12630552;-0.14500
12633330;-0.15500
12636108;-0.16000
12638885;-0.14500
12641663;-0.14500
12644441;-0.12500
12647219;-0.14500
12649996;-0.14000
12652774;-0.15500
12655552;-0.16000
12658330;-0.16000
12661108;-0.15000
12663885;-0.14000
12666663;-0.15000
12669441;-0.18500
12672219;-0.17000
12674996;-0.13500
12677774;-0.11500
12680552;-0.10500
12683330;-0.14000
12686108;-0.19000
12688885;-0.20000
12691663;-0.19500
12694441;-0.19000
12697219;-0.20500
12699996;-0.21000
12702774;-0.23000
12705552;-0.22500
12708330;-0.22500
12711108;-0.22500
12713885;-0.24500
12716663;-0.26500
12719441;-0.28500
12722219;-0.29000
12724996;-0.28500
12727774;-0.26500
12730552;-0.27000
12733330;-0.27500
12736108;-0.29000
12738885;-0.28000
12741663;-0.28000
12744441;-0.27500
12747219;-0.27500
12749996;-0.28000
12752774;-0.30000
12755552;-0.29500
12758330;-0.28500
12761108;-0.28000
12763885;-0.28000
12766663;-0.28500
12769441;-0.29500
12772219;-0.29000
12774996;-0.29000
12777774;-0.28500
12780552;-0.29000
12783330;-0.31500
12786108;-0.35000
12788885;-0.39000
12791663;-0.41500
12794441;-0.41500
12797219;-0.45000
12799996;-0.49500
12802774;-0.49500
12805552;-0.37500
12808330;-0.22000
12811108;-0.04000
12813885;0.13500
12816663;0.37000
12819441;0.62500
12822219;0.89000
12824996;1.05500
12827774;1.11500
12830552;0.97500
12833330;0.63500
12836108;0.16500
12838885;-0.23000
12841663;-0.42000
12844441;-0.42000
12847219;-0.38000
12849996;-0.34500
12852774;-0.34000
12855552;-0.33500
12858330;-0.34000
12861108;-0.33500
12863885;-0.33500
12866663;-0.34000
12869441;-0.35500
12872219;-0.35000
12874996;-0.35500
12877774;-0.34000
12880552;-0.35000
12883330;-0.35000
12886108;-0.35500
12888885;-0.35000
12891663;-0.35000
12894441;-0.34500
12897219;-0.34500
12899996;-0.35500
12902774;-0.36500
12905552;-0.36500
12908330;-0.36000
12911107;-0.35000
12913885;-0.34500
12916663;-0.36500
12919441;-0.36500
12922219;-0.36500
12924996;-0.36000
12927774;-0.35500
12930552;-0.35500
12933330;-0.35500
12936107;-0.37000
12938885;-0.36500
12941663;-0.36500
12944441;-0.34500
12947219;-0.34500
12949996;-0.36500
12952774;-0.37000
12955552;-0.36500
12958330;-0.37000
12961107;-0.36000
12963885;-0.36500
12966663;-0.37000
12969441;-0.37500
12972219;-0.38500
12974996;-0.37500
12977774;-0.35000
12980552;-0.35500
12983330;-0.37000
12986107;-0.38500
12988885;-0.37500
12991663;-0.37000
12994441;-0.36500
12997219;-0.36500
12999996;-0.36500
13002774;-0.38000
13005552;-0.37500
13008330;-0.37500
13011107;-0.36500
13013885;-0.36500
13016663;-0.37000
13019441;-0.38500
13022219;-0.38000
13024996;-0.37500
13027774;-0.36500
13030552;-0.36500
13033330;-0.37000
13036107;-0.39000
13038885;-0.38500
13041663;-0.37500
13044441;-0.36500
13047219;-0.36000
13049996;-0.37500
13052774;-0.38000
13055552;-0.37000
13058330;-0.37000
13061107;-0.37000
13063885;-0.37000
13066663;-0.37500
13069441;-0.39000
13072219;-0.39000
13074996;-0.38000
13077774;-0.37500
13080552;-0.36500
13083330;-0.37500
13086107;-0.38500
13088885;-0.37000
13091663;-0.37000
13094441;-0.37000
13097219;-0.37000
13099996;-0.38000
13102774;-0.38500
13105552;-0.38500
13108330;-0.36000
13111107;-0.35000
13113885;-0.35000
13116663;-0.35000
13119441;-0.36000
13122219;-0.35000
13124996;-0.33000
13127774;-0.31500
13130552;-0.30000
13133330;-0.29500
13136107;-0.30000
13138885;-0.29500
13141663;-0.27000
13144441;-0.26000
13147219;-0.25500
13149996;-0.25000
13152774;-0.25500
13155552;-0.26000
13158330;-0.24500
13161107;-0.24000
13163885;-0.24000
13166663;-0.25000
13169441;-0.26500
13172219;-0.24500
13174996;-0.25000
13177774;-0.23500
13180552;-0.24000
13183330;-0.25000
13186107;-0.26000
13188885;-0.26000
13191663;-0.25500
13194441;-0.24500
13197219;-0.24000
13199996;-0.25000
13202774;-0.27000
13205552;-0.26500
13208330;-0.26000
13211107;-0.25500
13213885;-0.25000
13216663;-0.27000
13219441;-0.28000
13222219;-0.26500
13224996;-0.26000
13227774;-0.25500
13230552;-0.26000
13233330;-0.27500
13236107;-0.28500
13238885;-0.27000
13241663;-0.27000
13244441;-0.27000
13247219;-0.26500
13249996;-0.28500
13252774;-0.29000
13255552;-0.28500
13258330;-0.28500
13261107;-0.27500
13263885;-0.28000
13266663;-0.29000
13269441;-0.30000
13272219;-0.30500
13274996;-0.29000
13277774;-0.28000
13280552;-0.29500
13283330;-0.31000
13286107;-0.30000
13288885;-0.30500
13291663;-0.30000
13294441;-0.29500
13297218;-0.30000
13299996;-0.31000
13302774;-0.32500
13305552;-0.33000
13308330;-0.32500
13311107;-0.31000
13313885;-0.31000
13316663;-0.30500
13319441;-0.32500
13322218;-0.33000
13324996;-0.31000
13327774;-0.30500
13330552;-0.30000
13333330;-0.32000
13336107;-0.33000
13338885;-0.32500
13341663;-0.31500
13344441;-0.31000
13347218;-0.31500
13349996;-0.32000
13352774;-0.33500
13355552;-0.34500
13358330;-0.32500
13361107;-0.32000
13363885;-0.31500
13366663;-0.30500
13369441;-0.32000
13372218;-0.31500
13374996;-0.30500
13377774;-0.29500
13380552;-0.30000
13383330;-0.30500
13386107;-0.32500
13388885;-0.31000
13391663;-0.29500
13394441;-0.29500
13397218;-0.28500
13399996;-0.30000
13402774;-0.30500
13405552;-0.31000
13408330;-0.29000
13411107;-0.27500
13413885;-0.27000
13416663;-0.27500
13419441;-0.28000
13422218;-0.27000
13424996;-0.25500
13427774;-0.24000
13430552;-0.23500
13433330;-0.22500
13436107;-0.24000
13438885;-0.22000
13441663;-0.21500
13444441;-0.19500
13447218;-0.19500
13449996;-0.19000
13452774;-0.19500
13455552;-0.19000
13458330;-0.17000
13461107;-0.17500
13463885;-0.17500
13466663;-0.18500
13469441;-0.20500
13472218;-0.20500
13474996;-0.20000
13477774;-0.19500
13480552;-0.19500
13483330;-0.19500
13486107;-0.19500
13488885;-0.19500
13491663;-0.19000
13494441;-0.18000
13497218;-0.18000
13499996;-0.16500
13502774;-0.18500
13505552;-0.17500
13508330;-0.21000
13511107;-0.22000
13513885;-0.23500
13516663;-0.25000
13519441;-0.27500
13522218;-0.28500
13524996;-0.29500
13527774;-0.29500
13530552;-0.30000
13533330;-0.32000
13536107;-0.34000
13538885;-0.33500
13541663;-0.33000
13544441;-0.32000
13547218;-0.33000
13549996;-0.34000
13552774;-0.35000
13555552;-0.34000
13558330;-0.34000
13561107;-0.32500
13563885;-0.32500
13566663;-0.34500
13569441;-0.35500
13572218;-0.37000
13574996;-0.35500
13577774;-0.34500
13580552;-0.33500
13583330;-0.36000
13586107;-0.34500
13588885;-0.35500
13591663;-0.35500
13594441;-0.37500
13597218;-0.40500
13599996;-0.44500
13602774;-0.47500
13605552;-0.49500
13608330;-0.52000
13611107;-0.56000
13613885;-0.54000
13616663;-0.47000
13619441;-0.36000
13622218;-0.21000
13624996;-0.04000
13627774;0.17500
13630552;0.48000
13633330;0.72500
13636107;0.89000
13638885;1.00000
13641663;0.98500
13644441;0.81500
13647218;0.49000
13649996;0.13500
13652774;-0.17500
13655552;-0.38500
13658330;-0.50500
13661107;-0.52000
13663885;-0.52000
13666663;-0.49500
13669441;-0.44000
13672218;-0.41500
13674996;-0.40000
13677774;-0.40500
13680552;-0.40000
13683330;-0.41000
13686107;-0.41500
13688885;-0.41500
13691663;-0.40000
13694441;-0.40000
13697218;-0.40500
13699996;-0.41500
13702774;-0.43500
13705552;-0.42500
13708329;-0.41500
13711107;-0.41000
13713885;-0.41000
13716663;-0.42000
13719441;-0.43000
13722218;-0.43000
13724996;-0.41500
13727774;-0.41000
13730552;-0.41000
13733329;-0.42000
13736107;-0.43000
13738885;-0.42000
13741663;-0.42000
13744441;-0.40000
13747218;-0.41000
13749996;-0.40500
13752774;-0.43000
13755552;-0.42000
13758329;-0.41500
13761107;-0.40500
13763885;-0.40500
13766663;-0.42500
13769441;-0.44000
13772218;-0.43500
13774996;-0.42500
13777774;-0.41500
13780552;-0.42000
13783329;-0.43000
13786107;-0.43500
13788885;-0.43500
13791663;-0.42500
13794441;-0.41500
13797218;-0.41000
13799996;-0.42000
13802774;-0.43500
13805552;-0.43000
13808329;-0.41500
13811107;-0.42000
13813885;-0.41500
13816663;-0.42000
13819441;-0.42500
13822218;-0.42500
13824996;-0.42000
13827774;-0.42000
13830552;-0.41000
13833329;-0.41500
13836107;-0.42500
13838885;-0.43000
13841663;-0.42000
13844441;-0.43000
13847218;-0.42000
13849996;-0.42500
13852774;-0.42500
13855552;-0.43500
13858329;-0.41500
13861107;-0.41000
13863885;-0.40500
13866663;-0.42000
13869441;-0.43000
13872218;-0.44000
13874996;-0.43500
13877774;-0.43000
13880552;-0.43000
13883329;-0.43000
13886107;-0.44000
13888885;-0.44000
13891663;-0.43000
13894441;-0.42500
13897218;-0.42500
13899996;-0.44000
13902774;-0.44500
13905552;-0.44500
13908329;-0.41500
13911107;-0.40500
13913885;-0.40000
13916663;-0.39500
13919441;-0.40500
13922218;-0.39500
13924996;-0.37000
13927774;-0.36000
13930552;-0.36500
13933329;-0.36000
13936107;-0.36000
13938885;-0.35000
13941663;-0.33000
13944441;-0.32500
13947218;-0.31000
13949996;-0.31000
13952774;-0.31000
13955552;-0.30500
13958329;-0.28500
13961107;-0.28000
13963885;-0.28500
13966663;-0.30000
13969441;-0.30500
13972218;-0.29500
13974996;-0.28000
13977774;-0.28000
13980552;-0.28000
13983329;-0.30500
13986107;-0.29500
13988885;-0.30000
13991663;-0.29500
13994441;-0.28500
13997218;-0.29000
13999996;-0.30500
14002774;-0.32000
14005552;-0.31500
14008329;-0.30500
14011107;-0.29500
14013885;-0.29000
14016663;-0.30000
14019441;-0.31000
14022218;-0.31500
14024996;-0.31000
14027774;-0.30000
14030552;-0.31000
14033329;-0.32000
14036107;-0.33000
14038885;-0.33000
14041663;-0.33000
14044441;-0.32000
14047218;-0.31500
14049996;-0.31000
14052774;-0.33500
14055552;-0.34500
14058329;-0.33500
14061107;-0.33500
14063885;-0.33500
14066663;-0.34000
14069441;-0.35000
14072218;-0.35000
14074996;-0.34000
14077774;-0.33500
14080552;-0.32500
14083329;-0.33500
14086107;-0.35000
14088885;-0.35500
14091663;-0.36500
14094440;-0.35500
14097218;-0.35000
14099996;-0.36000
14102774;-0.34500
14105552;-0.35000
14108329;-0.35000
14111107;-0.34500
14113885;-0.36000
14116663;-0.36500
14119440;-0.37000
14122218;-0.36000
14124996;-0.36000
14127774;-0.35000
14130552;-0.35000
14133329;-0.34500
14136107;-0.35500
14138885;-0.36000
14141663;-0.35500
14144440;-0.35000
14147218;-0.34500
14149996;-0.35500
14152774;-0.36000
14155552;-0.36000
14158329;-0.35500
14161107;-0.36000
14163885;-0.36000
14166663;-0.37000
14169440;-0.36500
14172218;-0.35500
14174996;-0.35000
14177774;-0.35500
14180552;-0.34000
14183329;-0.33500
14186107;-0.34500
14188885;-0.35500
14191663;-0.34500
14194440;-0.34500
14197218;-0.34500
14199996;-0.36000
14202774;-0.36000
14205552;-0.35500
14208329;-0.35000
14211107;-0.34000
14213885;-0.33500
14216663;-0.35500
14219440;-0.35000
14222218;-0.33500
14224996;-0.31500
14227774;-0.30000
14230552;-0.29500
14233329;-0.29500
14236107;-0.29500
14238885;-0.30500
14241663;-0.28000
14244440;-0.27000
14247218;-0.24000
14249996;-0.25500
14252774;-0.25000
14255552;-0.24500
14258329;-0.25000
14261107;-0.24000
14263885;-0.26000
14266663;-0.26500
14269440;-0.28000
14272218;-0.28500
14274996;-0.27000
14277774;-0.24500
14280552;-0.25000
14283329;-0.28000
14286107;-0.30000
14288885;-0.29500
14291663;-0.26500
14294440;-0.23000
14297218;-0.24500
14299996;-0.28000
14302774;-0.31500
14305552;-0.33500
14308329;-0.35000
14311107;-0.33500
14313885;-0.35500
14316663;-0.38500
14319440;-0.40000
14322218;-0.40000
14324996;-0.39000
14327774;-0.37000
14330552;-0.37500
14333329;-0.37500
14336107;-0.38500
14338885;-0.38500
14341663;-0.39000
14344440;-0.37500
14347218;-0.38000
14349996;-0.38500
14352774;-0.40000
14355552;-0.39500
14358329;-0.37500
14361107;-0.35000
14363885;-0.35500
14366663;-0.36000
14369440;-0.38000
14372218;-0.40500
14374996;-0.41000
14377774;-0.39000
14380552;-0.38500
14383329;-0.38500
14386107;-0.39500
14388885;-0.41000
14391663;-0.42000
14394440;-0.44500
14397218;-0.47500
14399996;-0.51000
14402774;-0.53000
14405552;-0.58000
14408329;-0.58000
14411107;-0.52000
14413885;-0.40000
14416663;-0.26500
14419440;-0.11000
14422218;0.11000
14424996;0.38000
14427774;0.64500
14430552;0.83000
14433329;0.92500
14436107;0.85000
14438885;0.54500
14441663;0.14000
14444440;-0.22000
14447218;-0.45000
14449996;-0.52000
14452774;-0.52000
14455552;-0.48500
14458329;-0.45000
14461107;-0.43000
14463885;-0.43000
14466663;-0.44000
14469440;-0.44000
14472218;-0.45000
14474996;-0.42500
14477774;-0.42000
14480552;-0.43500
14483329;-0.44000
14486107;-0.45000
14488885;-0.45000
14491663;-0.44000
14494440;-0.43500
14497218;-0.44500
14499996;-0.44500
14502774;-0.44500
14505551;-0.45000
14508329;-0.44500
14511107;-0.44000
14513885;-0.46000
14516663;-0.46500
14519440;-0.45500
14522218;-0.43000
14524996;-0.40500
14527774;-0.41000
14530551;-0.42000
14533329;-0.42000
14536107;-0.42000
14538885;-0.43000
14541663;-0.44500
14544440;-0.42500
14547218;-0.43500
14549996;-0.46000
14552774;-0.46000
14555551;-0.46000
14558329;-0.45500
14561107;-0.45000
14563885;-0.45500
14566663;-0.46000
14569440;-0.47500
14572218;-0.48000
14574996;-0.46500
14577774;-0.44500
14580551;-0.44000
14583329;-0.44000
14586107;-0.45500
14588885;-0.46500
14591663;-0.46500
14594440;-0.46000
14597218;-0.46500
14599996;-0.45500
14602774;-0.46500
14605551;-0.47000
14608329;-0.45000
14611107;-0.44000
14613885;-0.45500
14616663;-0.45500
14619440;-0.46000
14622218;-0.46000
14624996;-0.46500
14627774;-0.44500
14630551;-0.45500
14633329;-0.47000
14636107;-0.47500
14638885;-0.47500
14641663;-0.46000
14644440;-0.44000
14647218;-0.45500
14649996;-0.46500
14652774;-0.47500
14655551;-0.49000
14658329;-0.49500
14661107;-0.47500
14663885;-0.49500
14666663;-0.49500
14669440;-0.50500
14672218;-0.51000
14674996;-0.51000
14677774;-0.50000
14680551;-0.51000
14683329;-0.51500
14686107;-0.52500
14688885;-0.52000
14691663;-0.51500
14694440;-0.49500
14697218;-0.50500
14699996;-0.48500
14702774;-0.49000
14705551;-0.48500
14708329;-0.46000
14711107;-0.43500
14713885;-0.42000
14716663;-0.40500
14719440;-0.40500
14722218;-0.37500
14724996;-0.35500
14727774;-0.35000
14730551;-0.34500
14733329;-0.33000
14736107;-0.32500
14738885;-0.33000
14741663;-0.31500
14744440;-0.30000
14747218;-0.29500
14749996;-0.29500
14752774;-0.30000
14755551;-0.30000
14758329;-0.30000
14761107;-0.29000
14763885;-0.28000
14766663;-0.28500
14769440;-0.29500
14772218;-0.30500
14774996;-0.30000
14777774;-0.27500
14780551;-0.28000
14783329;-0.28500
14786107;-0.30500
14788885;-0.30500
14791663;-0.28500
14794440;-0.26500
14797218;-0.27500
14799996;-0.28500
14802774;-0.30000
14805551;-0.29000
14808329;-0.29000
14811107;-0.27500
14813885;-0.28500
14816663;-0.28500
14819440;-0.30000
14822218;-0.30000
14824996;-0.29000
14827774;-0.28500
14830551;-0.28500
14833329;-0.29500
14836107;-0.30000
14838885;-0.31000
14841663;-0.29000
14844440;-0.29000
14847218;-0.30000
14849996;-0.30500
14852774;-0.30500
14855551;-0.32000
14858329;-0.30500
14861107;-0.30500
14863885;-0.30500
14866663;-0.30500
14869440;-0.32000
14872218;-0.31500
14874996;-0.32000
14877774;-0.30000
14880551;-0.30500
14883329;-0.32000
14886107;-0.33500
14888885;-0.32500
14891662;-0.31500
14894440;-0.30500
14897218;-0.31000
14899996;-0.31500
14902774;-0.31500
14905551;-0.32500
14908329;-0.31500
14911107;-0.31500
14913885;-0.32000
14916662;-0.31000
14919440;-0.32000
14922218;-0.31500
14924996;-0.29500
14927774;-0.29500
14930551;-0.31000
14933329;-0.32000
14936107;-0.32500
14938885;-0.32000
14941662;-0.31000
14944440;-0.30000
14947218;-0.31000
14949996;-0.31000
14952774;-0.31500
14955551;-0.32500
14958329;-0.30000
14961107;-0.29500
14963885;-0.30000
14966662;-0.31000
14969440;-0.31500
14972218;-0.31000
14974996;-0.30500
14977774;-0.30000
14980551;-0.30000
14983329;-0.31500
14986107;-0.31500
14988885;-0.32000
14991662;-0.30500
14994440;-0.29000
14997218;-0.31000
14999996;-0.30500
15002774;-0.29500
15005551;-0.30500
15008329;-0.27500
15011107;-0.25500
15013885;-0.23500
15016662;-0.24500
15019440;-0.24500
15022218;-0.25000
15024996;-0.22500
15027774;-0.21000
15030551;-0.19500
15033329;-0.20000
15036107;-0.21000
15038885;-0.21000
15041662;-0.21000
15044440;-0.21000
15047218;-0.21500
15049996;-0.22500
15052774;-0.23500
15055551;-0.24000
15058329;-0.23000
15061107;-0.22000
15063885;-0.24000
15066662;-0.23500
15069440;-0.22500
15072218;-0.20000
15074996;-0.20000
15077774;-0.22000
15080551;-0.25000
15083329;-0.27000
15086107;-0.29000
15088885;-0.30500
15091662;-0.31000
15094440;-0.30500
15097218;-0.31500
15099996;-0.33500
15102774;-0.34000
15105551;-0.34000
15108329;-0.33000
15111107;-0.32500
15113885;-0.32500
15116662;-0.33000
15119440;-0.34500
15122218;-0.35500
15124996;-0.33500
15127774;-0.33000
15130551;-0.33500
15133329;-0.34500
15136107;-0.35000
15138885;-0.35000
15141662;-0.35000
15144440;-0.34000
15147218;-0.34500
15149996;-0.34500
15152774;-0.35000
15155551;-0.35000
15158329;-0.34500
15161107;-0.33000
15163885;-0.37000
15166662;-0.40500
15169440;-0.46000
15172218;-0.48500
15174996;-0.50500
15177774;-0.52500
15180551;-0.51500
15183329;-0.41500
15186107;-0.26500
15188885;-0.09000
15191662;0.12000
15194440;0.37000
15197218;0.67500
15199996;0.92500
15202774;1.09000
15205551;1.14000
15208329;1.03500
15211107;0.73000
15213885;0.26000
15216662;-0.16500
15219440;-0.41500
15222218;-0.49000
15224996;-0.49000
15227774;-0.45000
15230551;-0.41500
15233329;-0.37500
15236107;-0.36500
15238885;-0.37000
15241662;-0.36500
15244440;-0.37500
15247218;-0.38000
15249996;-0.37000
15252774;-0.39000
15255551;-0.39000
15258329;-0.38000
15261107;-0.38000
15263885;-0.38500
15266662;-0.40000
15269440;-0.40000
15272218;-0.41000
15274996;-0.40500
15277774;-0.38000
15280551;-0.38500
15283329;-0.39500
15286107;-0.40000
15288885;-0.41000
15291662;-0.39500
15294440;-0.38500
15297218;-0.39000
15299996;-0.40000
15302773;-0.41000
15305551;-0.41000
15308329;-0.39500
15311107;-0.38000
15313885;-0.39000
15316662;-0.39500
15319440;-0.40500
15322218;-0.40000
15324996;-0.39500
15327773;-0.39000
15330551;-0.39000
15333329;-0.40500
15336107;-0.40000
15338885;-0.42000
15341662;-0.39500
15344440;-0.40000
15347218;-0.40500
15349996;-0.40000
15352773;-0.41500
15355551;-0.41000
15358329;-0.40500
15361107;-0.39500
15363885;-0.40500
15366662;-0.41000
15369440;-0.41500
15372218;-0.41500
15374996;-0.41500
15377773;-0.40000
15380551;-0.40500
15383329;-0.41500
15386107;-0.41500
15388885;-0.42000
15391662;-0.41500
15394440;-0.40000
15397218;-0.41000
15399996;-0.42000
15402773;-0.41500
15405551;-0.42500
15408329;-0.41000
15411107;-0.40000
15413885;-0.39500
15416662;-0.41500
15419440;-0.42000
15422218;-0.43000
15424996;-0.41500
15427773;-0.41500
15430551;-0.41500
15433329;-0.41500
15436107;-0.43000
15438885;-0.44500
15441662;-0.43500
15444440;-0.42000
15447218;-0.42000
15449996;-0.43000
15452773;-0.44500
15455551;-0.44500
15458329;-0.44000
15461107;-0.42500
15463885;-0.42000
15466662;-0.42000
15469440;-0.42000
15472218;-0.42500
15474996;-0.42500
15477773;-0.39500
15480551;-0.40500
15483329;-0.41000
15486107;-0.40500
15488885;-0.41500
15491662;-0.39500
15494440;-0.38500
15497218;-0.37000
15499996;-0.37000
15502773;-0.37500
15505551;-0.35000
15508329;-0.33500
15511107;-0.31500
15513885;-0.31000
15516662;-0.30500
15519440;-0.30500
15522218;-0.29500
15524996;-0.28500
15527773;-0.27000
15530551;-0.26500
15533329;-0.26500
15536107;-0.27000
15538885;-0.27500
15541662;-0.26500
15544440;-0.25000
15547218;-0.26000
15549996;-0.25500
15552773;-0.27000
15555551;-0.26500
15558329;-0.25000
15561107;-0.25500
15563885;-0.25500
15566662;-0.26500
15569440;-0.27000
15572218;-0.27500
15574996;-0.26000
15577773;-0.26500
15580551;-0.27000
15583329;-0.27000
15586107;-0.28500
15588885;-0.28000
15591662;-0.26500
15594440;-0.25500
15597218;-0.27000
15599996;-0.28500
15602773;-0.27500
15605551;-0.28000
15608329;-0.28000
15611107;-0.27000
15613885;-0.27000
15616662;-0.28500
15619440;-0.28000
15622218;-0.29000
15624996;-0.28500
15627773;-0.29000
15630551;-0.29500
15633329;-0.28500
15636107;-0.30500
15638885;-0.31000
15641662;-0.29000
15644440;-0.29000
15647218;-0.29000
15649996;-0.30000
15652773;-0.31000
15655551;-0.31000
15658329;-0.31000
15661107;-0.29500
15663885;-0.31000
15666662;-0.31500
15669440;-0.32000
15672218;-0.32000
15674996;-0.31000
15677773;-0.31000
15680551;-0.31000
15683329;-0.31500
15686107;-0.32000
15688884;-0.32500
15691662;-0.32000
15694440;-0.30000
15697218;-0.31000
15699996;-0.31500
15702773;-0.31000
15705551;-0.32500
15708329;-0.30500
15711107;-0.29500
15713884;-0.29500
15716662;-0.30500
15719440;-0.32500
15722218;-0.31500
15724996;-0.30000
15727773;-0.29500
15730551;-0.30000
15733329;-0.29500
15736107;-0.29500
15738884;-0.29000
15741662;-0.29000
15744440;-0.26500
15747218;-0.26500
15749996;-0.28000
15752773;-0.28500
15755551;-0.27000
15758329;-0.25500
15761107;-0.25000
15763884;-0.23500
15766662;-0.23500
15769440;-0.24000
15772218;-0.24500
15774996;-0.22500
15777773;-0.20500
15780551;-0.21000
15783329;-0.20000
15786107;-0.19500
15788884;-0.19500
15791662;-0.18500
15794440;-0.18000
15797218;-0.20000
15799996;-0.21000
15802773;-0.22500
15805551;-0.21000
15808329;-0.19500
15811107;-0.17500
15813884;-0.17500
15816662;-0.18500
