time_ms;ecg_value
0;-0.15500
2778;-0.16500
5556;-0.18500
8333;-0.18000
11111;-0.17000
13889;-0.17500
16667;-0.19000
19444;-0.20000
22222;-0.20000
25000;-0.17500
27778;-0.15500
30556;-0.16500
33333;-0.18000
36111;-0.18500
38889;-0.17500
41667;-0.14500
44444;-0.12000
47222;-0.15000
50000;-0.18500
52778;-0.21500
55556;-0.23000
58333;-0.23500
61111;-0.25000
63889;-0.25500
66667;-0.27500
69444;-0.29000
72222;-0.29500
75000;-0.29500
77778;-0.27500
80556;-0.28000
83333;-0.30000
86111;-0.30000
88889;-0.31000
91667;-0.31000
94444;-0.29000
97222;-0.29500
100000;-0.29000
102778;-0.30000
105556;-0.31000
108333;-0.29500
111111;-0.28500
113889;-0.29000
116667;-0.29000
119444;-0.28500
122222;-0.30000
125000;-0.29500
127778;-0.29500
130556;-0.31500
133333;-0.35000
136111;-0.40500
138889;-0.43500
141667;-0.45500
144444;-0.48000
147222;-0.52500
150000;-0.56500
152778;-0.57500
155556;-0.53500
158333;-0.46500
161111;-0.37500
163889;-0.27500
166667;-0.17000
169444;-0.05500
172222;0.12000
175000;0.37000
177778;0.65500
180556;0.91500
183333;1.08000
186111;1.14500
188889;1.08500
191667;0.85500
194444;0.46000
197222;0.00500
200000;-0.29500
202778;-0.39500
205555;-0.39500
208333;-0.33500
211111;-0.31000
213889;-0.30000
216667;-0.32000
219444;-0.33500
222222;-0.34000
225000;-0.33500
227778;-0.33000
230555;-0.33000
233333;-0.33000
236111;-0.35000
238889;-0.35000
241667;-0.33000
244444;-0.32500
247222;-0.32000
250000;-0.33500
252778;-0.33000
255555;-0.33500
258333;-0.32000
261111;-0.32000
263889;-0.32000
266667;-0.32000
269444;-0.33500
272222;-0.34500
275000;-0.34000
277778;-0.33500
280555;-0.34500
283333;-0.35500
286111;-0.35500
288889;-0.35000
291667;-0.33500
294444;-0.33500
297222;-0.34000
300000;-0.33000
302778;-0.34000
305555;-0.34000
308333;-0.33500
311111;-0.32500
313889;-0.31000
316667;-0.32500
319444;-0.33000
322222;-0.34000
325000;-0.32500
327778;-0.32000
330555;-0.32000
333333;-0.32000
336111;-0.33500
338889;-0.34000
341667;-0.34000
344444;-0.32000
347222;-0.32500
350000;-0.32000
352778;-0.34500
355555;-0.34000
358333;-0.33000
361111;-0.34000
363889;-0.33000
366667;-0.33500
369444;-0.34500
372222;-0.35000
375000;-0.34500
377778;-0.33500
380555;-0.33000
383333;-0.33500
386111;-0.34000
388889;-0.34500
391667;-0.33500
394444;-0.33500
397222;-0.34000
400000;-0.34000
402778;-0.34500
405555;-0.34000
408333;-0.33500
411111;-0.32500
413889;-0.32500
416667;-0.33500
419444;-0.34000
422222;-0.35500
425000;-0.34000
427778;-0.33000
430555;-0.33000
433333;-0.34000
436111;-0.35000
438889;-0.35500
441667;-0.35000
444444;-0.34000
447222;-0.34000
450000;-0.35000
452778;-0.36000
455555;-0.36500
458333;-0.35500
461111;-0.34500
463889;-0.34500
466667;-0.34000
469444;-0.34500
472222;-0.35500
475000;-0.33000
477778;-0.30500
480555;-0.30000
483333;-0.29000
486111;-0.29000
488889;-0.29000
491667;-0.27000
494444;-0.26000
497222;-0.25500
500000;-0.24500
502778;-0.25000
505555;-0.25000
508333;-0.23500
511111;-0.21500
513889;-0.21500
516667;-0.21500
519444;-0.21500
522222;-0.22500
525000;-0.21500
527778;-0.21000
530555;-0.22000
533333;-0.21500
536111;-0.23500
538889;-0.23000
541667;-0.24000
544444;-0.22500
547222;-0.22500
550000;-0.23000
552778;-0.23500
555555;-0.23000
558333;-0.23500
561111;-0.22000
563889;-0.21500
566667;-0.22500
569444;-0.23000
572222;-0.23000
575000;-0.22500
577778;-0.22000
580555;-0.22000
583333;-0.23000
586111;-0.23000
588889;-0.24000
591667;-0.23500
594444;-0.22500
597222;-0.22500
600000;-0.23000
602778;-0.24500
605555;-0.24500
608333;-0.24500
611111;-0.25000
613889;-0.26000
616666;-0.25500
619444;-0.26500
622222;-0.27000
625000;-0.25500
627778;-0.27000
630555;-0.24500
633333;-0.25500
636111;-0.27000
638889;-0.27000
641666;-0.26500
644444;-0.25000
647222;-0.25000
650000;-0.25500
652778;-0.25500
655555;-0.27000
658333;-0.26500
661111;-0.26000
663889;-0.26000
666666;-0.26500
669444;-0.28000
672222;-0.27500
675000;-0.27500
677778;-0.28000
680555;-0.28500
683333;-0.28000
686111;-0.28500
688889;-0.29500
691666;-0.28500
694444;-0.27500
697222;-0.26500
700000;-0.28000
702778;-0.28000
705555;-0.29000
708333;-0.28000
711111;-0.28000
713889;-0.28000
716666;-0.28500
719444;-0.29000
722222;-0.28500
725000;-0.28500
727778;-0.27500
730555;-0.27500
733333;-0.28000
736111;-0.29000
738889;-0.29000
741666;-0.27000
744444;-0.26500
747222;-0.26500
750000;-0.27000
752778;-0.28000
755555;-0.29500
758333;-0.30000
761111;-0.29000
763889;-0.27500
766666;-0.28500
769444;-0.28500
772222;-0.28500
775000;-0.28000
777778;-0.27500
780555;-0.25000
783333;-0.23500
786111;-0.23000
788889;-0.23000
791666;-0.23000
794444;-0.21000
797222;-0.21500
800000;-0.21000
802778;-0.21000
805555;-0.22000
808333;-0.19500
811111;-0.18500
813889;-0.17500
816666;-0.16500
819444;-0.17000
822222;-0.17500
825000;-0.17500
827778;-0.18000
830555;-0.18500
833333;-0.19500
836111;-0.21000
838889;-0.21500
841666;-0.20000
844444;-0.20000
847222;-0.20500
850000;-0.21000
852778;-0.21500
855555;-0.19500
858333;-0.18000
861111;-0.18000
863889;-0.19500
866666;-0.24500
869444;-0.26000
872222;-0.28000
875000;-0.29000
877778;-0.30000
880555;-0.30500
883333;-0.31000
886111;-0.31500
888889;-0.32000
891666;-0.32500
894444;-0.31000
897222;-0.30500
900000;-0.32500
902778;-0.34000
905555;-0.34000
908333;-0.32500
911111;-0.32000
913889;-0.32000
916666;-0.33000
919444;-0.33500
922222;-0.32000
925000;-0.33000
927778;-0.32000
930555;-0.33000
933333;-0.33500
936111;-0.34000
938889;-0.34500
941666;-0.33500
944444;-0.33000
947222;-0.33500
950000;-0.34500
952778;-0.37000
955555;-0.41000
958333;-0.44000
961111;-0.45500
963889;-0.49000
966666;-0.54500
969444;-0.57000
972222;-0.54500
975000;-0.43000
977778;-0.29000
980555;-0.14000
983333;0.05500
986111;0.29000
988889;0.57000
991666;0.81500
994444;0.97000
997222;1.02000
1000000;0.96500
1002777;0.80500
1005555;0.54500
1008333;0.27000
1011111;0.02000
1013889;-0.18000
1016666;-0.33000
1019444;-0.45000
1022222;-0.50500
1025000;-0.49000
1027777;-0.45500
1030555;-0.40000
1033333;-0.37500
1036111;-0.38500
1038889;-0.39500
1041666;-0.38500
1044444;-0.38500
1047222;-0.39000
1050000;-0.39500
1052777;-0.38000
1055555;-0.38500
1058333;-0.39000
1061111;-0.38500
1063889;-0.39000
1066666;-0.39500
1069444;-0.40500
1072222;-0.41000
1075000;-0.39000
1077777;-0.37500
1080555;-0.37500
1083333;-0.38000
1086111;-0.38500
1088889;-0.40500
1091666;-0.39500
1094444;-0.39000
1097222;-0.39500
1100000;-0.39000
1102777;-0.39000
1105555;-0.39500
1108333;-0.38500
1111111;-0.38000
1113889;-0.39500
1116666;-0.40500
1119444;-0.40000
1122222;-0.41000
1125000;-0.40000
1127777;-0.39000
1130555;-0.38500
1133333;-0.40000
1136111;-0.41500
1138889;-0.42000
1141666;-0.42000
1144444;-0.40000
1147222;-0.40500
1150000;-0.40500
1152777;-0.41000
1155555;-0.41500
1158333;-0.41000
1161111;-0.41000
1163889;-0.40500
1166666;-0.42500
1169444;-0.43000
1172222;-0.44000
1175000;-0.41000
1177777;-0.39000
1180555;-0.39500
1183333;-0.40500
1186111;-0.42000
1188889;-0.42500
1191666;-0.42000
1194444;-0.42000
1197222;-0.41000
1200000;-0.42500
1202777;-0.41500
1205555;-0.41000
1208333;-0.40500
1211111;-0.40500
1213889;-0.40500
1216666;-0.41000
1219444;-0.41500
1222222;-0.41500
1225000;-0.42000
1227777;-0.41500
1230555;-0.40500
1233333;-0.41500
1236111;-0.44500
1238889;-0.45500
1241666;-0.45000
1244444;-0.44000
1247222;-0.44500
1250000;-0.45000
1252777;-0.44500
1255555;-0.44000
1258333;-0.44500
1261111;-0.44000
1263889;-0.44000
1266666;-0.43500
1269444;-0.43000
1272222;-0.45000
1275000;-0.46000
1277777;-0.44500
1280555;-0.44000
1283333;-0.44000
1286111;-0.45000
1288889;-0.45500
1291666;-0.42500
1294444;-0.41000
1297222;-0.40500
1300000;-0.41000
1302777;-0.41500
1305555;-0.42500
1308333;-0.40000
1311111;-0.37000
1313889;-0.35500
1316666;-0.35000
1319444;-0.35000
1322222;-0.35000
1325000;-0.34000
1327777;-0.33500
1330555;-0.33000
1333333;-0.33500
1336111;-0.34500
1338889;-0.33500
1341666;-0.33500
1344444;-0.32500
1347222;-0.32000
1350000;-0.31500
1352777;-0.33500
1355555;-0.33000
1358333;-0.31500
1361111;-0.30000
1363889;-0.29500
1366666;-0.30500
1369444;-0.32500
1372222;-0.33500
1375000;-0.31500
1377777;-0.30500
1380555;-0.32000
1383333;-0.32000
1386111;-0.33000
1388888;-0.35000
1391666;-0.34500
1394444;-0.34000
1397222;-0.34000
1400000;-0.34500
1402777;-0.36000
1405555;-0.36000
1408333;-0.36000
1411111;-0.34500
1413888;-0.35000
1416666;-0.34500
1419444;-0.35500
1422222;-0.36000
1425000;-0.35000
1427777;-0.33000
1430555;-0.34000
1433333;-0.35500
1436111;-0.35000
1438888;-0.36500
1441666;-0.36500
1444444;-0.38000
1447222;-0.37500
1450000;-0.36000
1452777;-0.36000
1455555;-0.36000
1458333;-0.34500
1461111;-0.35000
1463888;-0.35500
1466666;-0.37500
1469444;-0.40000
1472222;-0.39500
1475000;-0.38000
1477777;-0.37500
1480555;-0.36500
1483333;-0.39000
1486111;-0.39000
1488888;-0.40500
1491666;-0.40000
1494444;-0.37000
1497222;-0.36500
1500000;-0.37000
1502777;-0.38500
1505555;-0.38500
1508333;-0.37000
1511111;-0.37000
1513888;-0.36000
1516666;-0.36500
1519444;-0.38000
1522222;-0.39000
1525000;-0.37500
1527777;-0.36000
1530555;-0.36000
1533333;-0.37500
1536111;-0.38000
1538888;-0.39000
1541666;-0.38000
1544444;-0.36500
1547222;-0.37000
1550000;-0.36000
1552777;-0.38500
1555555;-0.40000
1558333;-0.38500
1561111;-0.38500
1563888;-0.38500
1566666;-0.38500
1569444;-0.40000
1572222;-0.41000
1575000;-0.40000
1577777;-0.37500
1580555;-0.37500
1583333;-0.37000
1586111;-0.37000
1588888;-0.37000
1591666;-0.35500
1594444;-0.34500
1597222;-0.33500
1600000;-0.32500
1602777;-0.33000
1605555;-0.32500
1608333;-0.31500
1611111;-0.30500
1613888;-0.29500
1616666;-0.29500
1619444;-0.29000
1622222;-0.29500
1625000;-0.27500
1627777;-0.27000
1630555;-0.27000
1633333;-0.29000
1636111;-0.29500
1638888;-0.30500
1641666;-0.29000
1644444;-0.28500
1647222;-0.30000
1650000;-0.29000
1652777;-0.30500
1655555;-0.31000
1658333;-0.31000
1661111;-0.32000
1663888;-0.31500
1666666;-0.30000
1669444;-0.28500
1672222;-0.29000
1675000;-0.30000
1677777;-0.32000
1680555;-0.34500
1683333;-0.36500
1686111;-0.38500
1688888;-0.41500
1691666;-0.39500
1694444;-0.40000
1697222;-0.38500
1700000;-0.38500
1702777;-0.39500
1705555;-0.39000
1708333;-0.38000
1711111;-0.39000
1713888;-0.38500
1716666;-0.40000
1719444;-0.41000
1722222;-0.42500
1725000;-0.41500
1727777;-0.41500
1730555;-0.42000
1733333;-0.42000
1736111;-0.43000
1738888;-0.43000
1741666;-0.43000
1744444;-0.42000
1747222;-0.42000
1750000;-0.42500
1752777;-0.42500
1755555;-0.43500
1758333;-0.41500
1761111;-0.40000
1763888;-0.40000
1766666;-0.42000
1769444;-0.44500
1772222;-0.49000
1775000;-0.51000
1777777;-0.52000
1780555;-0.53000
1783333;-0.58500
1786111;-0.62500
1788888;-0.58000
1791666;-0.45500
1794444;-0.30000
1797222;-0.11500
1799999;0.07500
1802777;0.33500
1805555;0.59500
1808333;0.81000
1811111;0.92500
1813888;0.90000
1816666;0.65500
1819444;0.26000
1822222;-0.18500
1824999;-0.45000
1827777;-0.54500
1830555;-0.53000
1833333;-0.49500
1836111;-0.47000
1838888;-0.46500
1841666;-0.44500
1844444;-0.43500
1847222;-0.42500
1849999;-0.41000
1852777;-0.43000
1855555;-0.43500
1858333;-0.43500
1861111;-0.43000
1863888;-0.42000
1866666;-0.43500
1869444;-0.44000
1872222;-0.45500
1874999;-0.45000
1877777;-0.44500
1880555;-0.43500
1883333;-0.44000
1886111;-0.45000
1888888;-0.46000
1891666;-0.44000
1894444;-0.43000
1897222;-0.43500
1899999;-0.43500
1902777;-0.44500
1905555;-0.44000
1908333;-0.43500
1911111;-0.43500
1913888;-0.42500
1916666;-0.43500
1919444;-0.44000
1922222;-0.44500
1924999;-0.43500
1927777;-0.42500
1930555;-0.42500
1933333;-0.42000
1936111;-0.43000
1938888;-0.45000
1941666;-0.43000
1944444;-0.42000
1947222;-0.42500
1949999;-0.42500
1952777;-0.45000
1955555;-0.46000
1958333;-0.44000
1961111;-0.43000
1963888;-0.42500
1966666;-0.43000
1969444;-0.43500
1972222;-0.44500
1974999;-0.42000
1977777;-0.40500
1980555;-0.41500
1983333;-0.41500
1986111;-0.42000
1988888;-0.42500
1991666;-0.41500
1994444;-0.41500
1997222;-0.40500
1999999;-0.41000
2002777;-0.42000
2005555;-0.42000
2008333;-0.42000
2011111;-0.41000
2013888;-0.42000
2016666;-0.42500
2019444;-0.43500
2022222;-0.43500
2024999;-0.43000
2027777;-0.42000
2030555;-0.42000
2033333;-0.42000
2036111;-0.42500
2038888;-0.43000
2041666;-0.43500
2044444;-0.43500
2047222;-0.44000
2049999;-0.45500
2052777;-0.45500
2055555;-0.47000
2058333;-0.46500
2061111;-0.47000
2063888;-0.46000
2066666;-0.47000
2069444;-0.48000
2072222;-0.48000
2074999;-0.48500
2077777;-0.46000
2080555;-0.45500
2083333;-0.45500
2086111;-0.45000
2088888;-0.44000
2091666;-0.41500
2094444;-0.39500
2097222;-0.38500
2099999;-0.38500
2102777;-0.37500
2105555;-0.36500
2108333;-0.34500
2111111;-0.33000
2113888;-0.31500
2116666;-0.32500
2119444;-0.31000
2122222;-0.32000
2124999;-0.31000
2127777;-0.29000
2130555;-0.29500
2133333;-0.28500
2136111;-0.29000
2138888;-0.29000
2141666;-0.28000
2144444;-0.26000
2147222;-0.26500
2149999;-0.26500
2152777;-0.28000
2155555;-0.28000
2158333;-0.27500
2161111;-0.25000
2163888;-0.26500
2166666;-0.26500
2169444;-0.27000
2172222;-0.28000
2174999;-0.27500
2177777;-0.26500
2180555;-0.26500
2183333;-0.27500
2186110;-0.28000
2188888;-0.28000
2191666;-0.28000
2194444;-0.28000
2197222;-0.27500
2199999;-0.27000
2202777;-0.29000
2205555;-0.29500
2208333;-0.28000
2211110;-0.27500
2213888;-0.26500
2216666;-0.26500
2219444;-0.28500
2222222;-0.29500
2224999;-0.28500
2227777;-0.27500
2230555;-0.27000
2233333;-0.28500
2236110;-0.29000
2238888;-0.29500
2241666;-0.28500
2244444;-0.28000
2247222;-0.27500
2249999;-0.28000
2252777;-0.29500
2255555;-0.30500
2258333;-0.29000
2261110;-0.28500
2263888;-0.28500
2266666;-0.28000
2269444;-0.31000
2272222;-0.32000
2274999;-0.30500
2277777;-0.29500
2280555;-0.30000
2283333;-0.29000
2286110;-0.31500
2288888;-0.30000
2291666;-0.30500
2294444;-0.29500
2297222;-0.29000
2299999;-0.29000
2302777;-0.30500
2305555;-0.30000
2308333;-0.29500
2311110;-0.30000
2313888;-0.28500
2316666;-0.30000
2319444;-0.29000
2322222;-0.29500
2324999;-0.28000
2327777;-0.28000
2330555;-0.27500
2333333;-0.28000
2336110;-0.28500
2338888;-0.29500
2341666;-0.29000
2344444;-0.27500
2347222;-0.27500
2349999;-0.28500
2352777;-0.29000
2355555;-0.30000
2358333;-0.30000
2361110;-0.28000
2363888;-0.28000
2366666;-0.28500
2369444;-0.29000
2372222;-0.28500
2374999;-0.28500
2377777;-0.26500
2380555;-0.26500
2383333;-0.27000
2386110;-0.27500
2388888;-0.28000
2391666;-0.26500
2394444;-0.26000
2397222;-0.25000
2399999;-0.24000
2402777;-0.23500
2405555;-0.24000
2408333;-0.22000
2411110;-0.19500
2413888;-0.19500
2416666;-0.20500
2419444;-0.20500
2422222;-0.21500
2424999;-0.19000
2427777;-0.18000
2430555;-0.17000
2433333;-0.18000
2436110;-0.18000
2438888;-0.17500
2441666;-0.18000
2444444;-0.17500
2447222;-0.19500
2449999;-0.19500
2452777;-0.21000
2455555;-0.21500
2458333;-0.21000
2461110;-0.19000
2463888;-0.19500
2466666;-0.21000
2469444;-0.21000
2472222;-0.18500
2474999;-0.16000
2477777;-0.14500
2480555;-0.16500
2483333;-0.20000
2486110;-0.22500
2488888;-0.24500
2491666;-0.25500
2494444;-0.26500
2497222;-0.26500
2499999;-0.29000
2502777;-0.29500
2505555;-0.30500
2508333;-0.29500
2511110;-0.29000
2513888;-0.28500
2516666;-0.31000
2519444;-0.31000
2522222;-0.31500
2524999;-0.32000
2527777;-0.30500
2530555;-0.31000
2533333;-0.30500
2536110;-0.31500
2538888;-0.32500
2541666;-0.31000
2544444;-0.30500
2547222;-0.29500
2549999;-0.30500
2552777;-0.32000
2555555;-0.31000
2558333;-0.30000
2561110;-0.29500
2563888;-0.29000
2566666;-0.29500
2569444;-0.30500
2572222;-0.33000
2574999;-0.36500
2577777;-0.38000
2580555;-0.42500
2583333;-0.43000
2586110;-0.43500
2588888;-0.47500
2591666;-0.50000
2594444;-0.47500
2597221;-0.37000
2599999;-0.21000
2602777;-0.03500
2605555;0.16000
2608333;0.43000
2611110;0.73000
2613888;0.99000
2616666;1.12500
2619444;1.12000
2622221;0.89000
2624999;0.46500
2627777;-0.01000
2630555;-0.33000
2633333;-0.43000
2636110;-0.41000
2638888;-0.35000
2641666;-0.31000
2644444;-0.30500
2647221;-0.32000
2649999;-0.32500
2652777;-0.33500
2655555;-0.34500
2658333;-0.33500
2661110;-0.33500
2663888;-0.35000
2666666;-0.36000
2669444;-0.35000
2672221;-0.36500
2674999;-0.35000
2677777;-0.33500
2680555;-0.34000
2683333;-0.34500
2686110;-0.36000
2688888;-0.36500
2691666;-0.36500
2694444;-0.35000
2697221;-0.35000
2699999;-0.34500
2702777;-0.36000
2705555;-0.35500
2708333;-0.34500
2711110;-0.33000
2713888;-0.32500
2716666;-0.34500
2719444;-0.34500
2722221;-0.35000
2724999;-0.34500
2727777;-0.34500
2730555;-0.32500
2733333;-0.34000
2736110;-0.34500
2738888;-0.35500
2741666;-0.34500
2744444;-0.34500
2747221;-0.33000
2749999;-0.34000
2752777;-0.36000
2755555;-0.36000
2758333;-0.35500
2761110;-0.35000
2763888;-0.35500
2766666;-0.35500
2769444;-0.36000
2772221;-0.36500
2774999;-0.36000
2777777;-0.35000
2780555;-0.34000
2783333;-0.35000
2786110;-0.35500
2788888;-0.36500
2791666;-0.35000
2794444;-0.35000
2797221;-0.36000
2799999;-0.36000
2802777;-0.36500
2805555;-0.37500
2808333;-0.37000
2811110;-0.35500
2813888;-0.34500
2816666;-0.36000
2819444;-0.37000
2822221;-0.36500
2824999;-0.36500
2827777;-0.35000
2830555;-0.36000
2833333;-0.37000
2836110;-0.37500
2838888;-0.38500
2841666;-0.37500
2844444;-0.37500
2847221;-0.37500
2849999;-0.37000
2852777;-0.39000
2855555;-0.38500
2858333;-0.37000
2861110;-0.36500
2863888;-0.36000
2866666;-0.36000
2869444;-0.35500
2872221;-0.36000
2874999;-0.35000
2877777;-0.34000
2880555;-0.34000
2883333;-0.33000
2886110;-0.32500
2888888;-0.32000
2891666;-0.30000
2894444;-0.28000
2897221;-0.26500
2899999;-0.27000
2902777;-0.27000
2905555;-0.26500
2908333;-0.25500
2911110;-0.23500
2913888;-0.23000
2916666;-0.24000
2919444;-0.25000
2922221;-0.24500
2924999;-0.24500
2927777;-0.22500
2930555;-0.23000
2933333;-0.22000
2936110;-0.23000
2938888;-0.23500
2941666;-0.22500
2944444;-0.22500
2947221;-0.22000
2949999;-0.21500
2952777;-0.22000
2955555;-0.22500
2958333;-0.23000
2961110;-0.22000
2963888;-0.22500
2966666;-0.22000
2969444;-0.23500
2972221;-0.24000
2974999;-0.23500
2977777;-0.24000
2980555;-0.24000
2983332;-0.23500
2986110;-0.24000
2988888;-0.25500
2991666;-0.24500
2994444;-0.22500
2997221;-0.24000
2999999;-0.24000
3002777;-0.25500
3005555;-0.25500
3008332;-0.24500
3011110;-0.24500
3013888;-0.23000
3016666;-0.23000
3019444;-0.23500
3022221;-0.25000
3024999;-0.25000
3027777;-0.24000
3030555;-0.25000
3033332;-0.25500
3036110;-0.27000
3038888;-0.27500
3041666;-0.28000
3044444;-0.27000
3047221;-0.26500
3049999;-0.27000
3052777;-0.27000
3055555;-0.28000
3058332;-0.27500
3061110;-0.27000
3063888;-0.26500
3066666;-0.27000
3069444;-0.27500
3072221;-0.28500
3074999;-0.28000
3077777;-0.27500
3080555;-0.27500
3083332;-0.28000
3086110;-0.29000
3088888;-0.30000
3091666;-0.29500
3094444;-0.29000
3097221;-0.28500
3099999;-0.28000
3102777;-0.30500
3105555;-0.30500
3108332;-0.29000
3111110;-0.28000
3113888;-0.27000
3116666;-0.28500
3119444;-0.27500
3122221;-0.30000
3124999;-0.27500
3127777;-0.27000
3130555;-0.27000
3133332;-0.27000
3136110;-0.28000
3138888;-0.29000
3141666;-0.28000
3144444;-0.26000
3147221;-0.27000
3149999;-0.27000
3152777;-0.27000
3155555;-0.27500
3158332;-0.26000
3161110;-0.26000
3163888;-0.25000
3166666;-0.25000
3169444;-0.26000
3172221;-0.26500
3174999;-0.25000
3177777;-0.23000
3180555;-0.22500
3183332;-0.21500
3186110;-0.21000
3188888;-0.20500
3191666;-0.19500
3194444;-0.18500
3197221;-0.17000
3199999;-0.17000
3202777;-0.16500
3205555;-0.17500
3208332;-0.16000
3211110;-0.16000
3213888;-0.15000
3216666;-0.16500
3219444;-0.19000
3222221;-0.19000
3224999;-0.19500
3227777;-0.18500
3230555;-0.17500
3233332;-0.18000
3236110;-0.19500
3238888;-0.19500
3241666;-0.17000
3244444;-0.13500
3247221;-0.13500
3249999;-0.15000
3252777;-0.18000
3255555;-0.20500
3258332;-0.21500
3261110;-0.22500
3263888;-0.25000
3266666;-0.26000
3269444;-0.27500
3272221;-0.30500
3274999;-0.29000
3277777;-0.26500
3280555;-0.27000
3283332;-0.28000
3286110;-0.30000
3288888;-0.30000
3291666;-0.29500
3294444;-0.29000
3297221;-0.28000
3299999;-0.29500
3302777;-0.29500
3305555;-0.30000
3308332;-0.29500
3311110;-0.28500
3313888;-0.29000
3316666;-0.28500
3319444;-0.30000
3322221;-0.30500
3324999;-0.29500
3327777;-0.30000
3330555;-0.31000
3333332;-0.34000
3336110;-0.38500
3338888;-0.43000
3341666;-0.43000
3344444;-0.42000
3347221;-0.44500
3349999;-0.51500
3352777;-0.56500
3355555;-0.57500
3358332;-0.54500
3361110;-0.47500
3363888;-0.39000
3366666;-0.29000
3369444;-0.17000
3372221;-0.03000
3374999;0.18000
3377777;0.46000
3380555;0.76500
3383332;0.98500
3386110;1.08500
3388888;1.02500
3391666;0.73500
3394443;0.28000
3397221;-0.12500
3399999;-0.37500
3402777;-0.43000
3405555;-0.38500
3408332;-0.33000
3411110;-0.30000
3413888;-0.31000
3416666;-0.32500
3419443;-0.33000
3422221;-0.33500
3424999;-0.33000
3427777;-0.33000
3430555;-0.33500
3433332;-0.34500
3436110;-0.35000
3438888;-0.35500
3441666;-0.36000
3444443;-0.35000
3447221;-0.35000
3449999;-0.35000
3452777;-0.35000
3455555;-0.36500
3458332;-0.36000
3461110;-0.34000
3463888;-0.33000
3466666;-0.34000
3469443;-0.35000
3472221;-0.35500
3474999;-0.33500
3477777;-0.33500
3480555;-0.32000
3483332;-0.34500
3486110;-0.34500
3488888;-0.36500
3491666;-0.34500
3494443;-0.34000
3497221;-0.33000
3499999;-0.34000
3502777;-0.33000
3505555;-0.35500
3508332;-0.33500
3511110;-0.34000
3513888;-0.34500
3516666;-0.35500
3519443;-0.34500
3522221;-0.34500
3524999;-0.34000
3527777;-0.34000
3530555;-0.33500
3533332;-0.34000
3536110;-0.35000
3538888;-0.35500
3541666;-0.34500
3544443;-0.33000
3547221;-0.32500
3549999;-0.33500
3552777;-0.34500
3555555;-0.35000
3558332;-0.34000
3561110;-0.32000
3563888;-0.32000
3566666;-0.33500
3569443;-0.35000
3572221;-0.34000
3574999;-0.33500
3577777;-0.32500
3580555;-0.33000
3583332;-0.34000
3586110;-0.34000
3588888;-0.34500
3591666;-0.34500
3594443;-0.33000
3597221;-0.34000
3599999;-0.35500
3602777;-0.35500
3605555;-0.35500
3608332;-0.35500
3611110;-0.34000
3613888;-0.34000
3616666;-0.34000
3619443;-0.36000
3622221;-0.35500
3624999;-0.35000
3627777;-0.34500
3630555;-0.33500
3633332;-0.33000
3636110;-0.34500
3638888;-0.34500
3641666;-0.34000
3644443;-0.32500
3647221;-0.32000
3649999;-0.33500
3652777;-0.33000
3655555;-0.33500
3658332;-0.32000
3661110;-0.31000
3663888;-0.30000
3666666;-0.29500
3669443;-0.29000
3672221;-0.29000
3674999;-0.27000
3677777;-0.25000
3680555;-0.24500
3683332;-0.25000
3686110;-0.25000
3688888;-0.26000
3691666;-0.24500
3694443;-0.24000
3697221;-0.22000
3699999;-0.23000
3702777;-0.24000
3705555;-0.24000
3708332;-0.22500
3711110;-0.20500
3713888;-0.21000
3716666;-0.22500
3719443;-0.23000
3722221;-0.23000
3724999;-0.22500
3727777;-0.22000
3730555;-0.21000
3733332;-0.22000
3736110;-0.23000
3738888;-0.24000
3741666;-0.23500
3744443;-0.23500
3747221;-0.23500
3749999;-0.23000
3752777;-0.24500
3755555;-0.25000
3758332;-0.24500
3761110;-0.23000
3763888;-0.23000
3766666;-0.24500
3769443;-0.25000
3772221;-0.25000
3774999;-0.24500
3777777;-0.23000
3780554;-0.24500
3783332;-0.23000
3786110;-0.25000
3788888;-0.26000
3791666;-0.25000
3794443;-0.24000
3797221;-0.23000
3799999;-0.24500
3802777;-0.26000
3805554;-0.26500
3808332;-0.26000
3811110;-0.27500
3813888;-0.26000
3816666;-0.27000
3819443;-0.28000
3822221;-0.29500
3824999;-0.29000
3827777;-0.27500
3830554;-0.26000
3833332;-0.26500
3836110;-0.28500
3838888;-0.28500
3841666;-0.29000
3844443;-0.26500
3847221;-0.26000
3849999;-0.27000
3852777;-0.27500
3855554;-0.28000
3858332;-0.28500
3861110;-0.28000
3863888;-0.27500
3866666;-0.29000
3869443;-0.29000
3872221;-0.29500
3874999;-0.29000
3877777;-0.27500
3880554;-0.27000
3883332;-0.29000
3886110;-0.30000
3888888;-0.29500
3891666;-0.29500
3894443;-0.28000
3897221;-0.29000
3899999;-0.29500
3902777;-0.30500
3905554;-0.29500
3908332;-0.29500
3911110;-0.28000
3913888;-0.27000
3916666;-0.28500
3919443;-0.29500
3922221;-0.30500
3924999;-0.30500
3927777;-0.28500
3930554;-0.28000
3933332;-0.29500
3936110;-0.29000
3938888;-0.28000
3941666;-0.27000
3944443;-0.27000
3947221;-0.27000
3949999;-0.27000
3952777;-0.25000
3955554;-0.24000
3958332;-0.23000
3961110;-0.22000
3963888;-0.22000
3966666;-0.22000
3969443;-0.22000
3972221;-0.21500
3974999;-0.19500
3977777;-0.17500
3980554;-0.16500
3983332;-0.18500
3986110;-0.18500
3988888;-0.20000
3991666;-0.19000
3994443;-0.19000
3997221;-0.18000
3999999;-0.19500
4002777;-0.20500
4005554;-0.21000
4008332;-0.20500
4011110;-0.20500
4013888;-0.21000
4016666;-0.21000
4019443;-0.20000
4022221;-0.20000
4024999;-0.19500
4027777;-0.21000
4030554;-0.23000
4033332;-0.26000
4036110;-0.27000
4038888;-0.28500
4041666;-0.29500
4044443;-0.30000
4047221;-0.30500
4049999;-0.30000
4052777;-0.30000
4055554;-0.32000
4058332;-0.32000
4061110;-0.31500
4063888;-0.31500
4066666;-0.32000
4069443;-0.32500
4072221;-0.32500
4074999;-0.32500
4077777;-0.32000
4080554;-0.30500
4083332;-0.31000
4086110;-0.32000
4088888;-0.33500
4091666;-0.33000
4094443;-0.32000
4097221;-0.32000
4099999;-0.31000
4102777;-0.31500
4105554;-0.32500
4108332;-0.32000
4111110;-0.31000
4113888;-0.31500
4116666;-0.31500
4119443;-0.35000
4122221;-0.38000
4124999;-0.41000
4127777;-0.43500
4130554;-0.44500
4133332;-0.46000
4136110;-0.51000
4138888;-0.53500
4141666;-0.49000
4144443;-0.40000
4147221;-0.26000
4149999;-0.12000
4152777;0.07000
4155554;0.31500
4158332;0.59000
4161110;0.81500
4163888;0.94000
4166666;0.93000
4169443;0.76000
4172221;0.40500
4174999;0.03000
4177777;-0.24500
4180554;-0.40000
4183332;-0.45000
4186110;-0.43500
4188888;-0.40000
4191665;-0.35000
4194443;-0.35000
4197221;-0.36000
4199999;-0.36000
4202777;-0.35500
4205554;-0.35000
4208332;-0.34000
4211110;-0.34000
4213888;-0.34500
4216665;-0.37000
4219443;-0.37500
4222221;-0.38500
4224999;-0.37500
4227777;-0.38000
4230554;-0.36000
4233332;-0.36000
4236110;-0.36000
4238888;-0.36000
4241665;-0.36500
4244443;-0.35000
4247221;-0.35500
4249999;-0.36000
4252777;-0.36500
4255554;-0.37000
4258332;-0.35000
4261110;-0.35000
4263888;-0.35000
4266665;-0.35000
4269443;-0.37000
4272221;-0.38000
4274999;-0.37500
4277777;-0.36000
4280554;-0.35500
4283332;-0.36000
4286110;-0.37500
4288888;-0.38000
4291665;-0.37500
4294443;-0.36500
4297221;-0.36500
4299999;-0.37000
4302777;-0.37500
4305554;-0.38500
4308332;-0.37000
4311110;-0.36000
4313888;-0.35500
4316665;-0.37000
4319443;-0.37000
4322221;-0.36500
4324999;-0.37000
4327777;-0.36000
4330554;-0.37000
4333332;-0.37500
4336110;-0.38500
4338888;-0.38500
4341665;-0.37000
4344443;-0.37000
4347221;-0.37000
4349999;-0.38000
4352777;-0.39000
4355554;-0.40500
4358332;-0.39500
4361110;-0.38500
4363888;-0.38000
4366665;-0.37500
4369443;-0.38500
4372221;-0.40000
4374999;-0.39000
4377777;-0.37500
4380554;-0.38500
4383332;-0.38000
4386110;-0.38000
4388888;-0.38500
4391665;-0.38500
4394443;-0.38500
4397221;-0.38500
4399999;-0.39500
4402777;-0.39000
4405554;-0.39500
4408332;-0.40000
4411110;-0.41000
4413888;-0.42500
4416665;-0.42500
4419443;-0.43500
4422221;-0.43500
4424999;-0.41500
4427777;-0.41000
4430554;-0.42500
4433332;-0.43000
4436110;-0.44500
4438888;-0.44500
4441665;-0.43500
4444443;-0.43500
4447221;-0.42500
4449999;-0.42000
4452777;-0.41500
4455554;-0.42500
4458332;-0.42000
4461110;-0.39500
4463888;-0.39500
4466665;-0.41000
4469443;-0.40000
4472221;-0.38500
4474999;-0.34500
4477777;-0.33000
4480554;-0.31500
4483332;-0.31000
4486110;-0.32000
4488888;-0.31000
4491665;-0.30500
4494443;-0.28000
4497221;-0.27500
4499999;-0.28500
4502777;-0.29000
4505554;-0.30500
4508332;-0.29500
4511110;-0.28500
4513888;-0.28000
4516665;-0.27500
4519443;-0.29500
4522221;-0.30000
4524999;-0.30000
4527777;-0.30000
4530554;-0.30500
4533332;-0.32000
4536110;-0.33000
4538888;-0.33000
4541665;-0.32500
4544443;-0.31500
4547221;-0.31000
4549999;-0.31500
4552777;-0.31000
4555554;-0.31000
4558332;-0.31500
4561110;-0.31000
4563888;-0.31000
4566665;-0.32000
4569443;-0.31500
4572221;-0.32000
4574999;-0.31000
4577776;-0.32000
4580554;-0.31500
4583332;-0.33500
4586110;-0.34000
4588888;-0.35500
4591665;-0.34000
4594443;-0.32500
4597221;-0.32000
4599999;-0.34000
4602776;-0.35000
4605554;-0.36000
4608332;-0.35000
4611110;-0.33500
4613888;-0.33500
4616665;-0.34500
4619443;-0.35500
4622221;-0.37000
4624999;-0.36000
4627776;-0.35500
4630554;-0.35500
4633332;-0.36000
4636110;-0.34500
4638888;-0.34500
4641665;-0.34000
4644443;-0.35000
4647221;-0.36000
4649999;-0.36500
4652776;-0.39000
4655554;-0.38000
4658332;-0.37000
4661110;-0.37500
4663888;-0.38000
4666665;-0.38000
4669443;-0.39000
4672221;-0.41000
4674999;-0.39000
4677776;-0.37000
4680554;-0.36000
4683332;-0.35000
4686110;-0.37000
4688888;-0.38500
4691665;-0.38000
4694443;-0.37000
4697221;-0.37000
4699999;-0.36000
4702776;-0.37000
4705554;-0.36500
4708332;-0.36500
4711110;-0.36000
4713888;-0.36000
4716665;-0.36000
4719443;-0.35000
4722221;-0.36000
4724999;-0.34000
4727776;-0.35000
4730554;-0.36500
4733332;-0.36000
4736110;-0.37500
4738888;-0.37500
4741665;-0.35500
4744443;-0.35000
4747221;-0.32500
4749999;-0.33500
4752776;-0.31500
4755554;-0.33500
4758332;-0.32000
4761110;-0.29500
4763888;-0.29500
4766665;-0.30000
4769443;-0.30500
4772221;-0.30000
4774999;-0.28000
4777776;-0.25500
4780554;-0.24000
4783332;-0.25000
4786110;-0.25000
4788888;-0.25500
4791665;-0.25000
4794443;-0.25000
4797221;-0.25500
4799999;-0.26000
4802776;-0.29500
4805554;-0.30500
4808332;-0.30000
4811110;-0.29500
4813888;-0.29000
4816665;-0.31000
4819443;-0.32000
4822221;-0.30500
4824999;-0.28500
4827776;-0.27000
4830554;-0.27500
4833332;-0.29500
4836110;-0.32000
4838888;-0.34500
4841665;-0.36000
4844443;-0.35500
4847221;-0.37000
4849999;-0.38000
4852776;-0.39500
4855554;-0.40000
4858332;-0.39500
4861110;-0.37500
4863888;-0.37500
4866665;-0.38500
4869443;-0.39500
4872221;-0.41500
4874999;-0.40000
4877776;-0.40000
4880554;-0.40000
4883332;-0.40500
4886110;-0.41000
4888888;-0.42000
4891665;-0.42500
4894443;-0.41500
4897221;-0.41000
4899999;-0.41000
4902776;-0.42500
4905554;-0.42000
4908332;-0.40500
4911110;-0.40500
4913888;-0.40000
4916665;-0.41500
4919443;-0.44500
4922221;-0.49500
4924999;-0.51500
4927776;-0.51500
4930554;-0.53500
4933332;-0.58000
4936110;-0.62500
4938888;-0.64000
4941665;-0.60000
4944443;-0.53500
4947221;-0.47500
4949999;-0.39000
4952776;-0.31500
4955554;-0.22500
4958332;-0.12000
4961110;0.01000
4963887;0.15500
4966665;0.38000
4969443;0.61500
4972221;0.81000
4974999;0.94000
4977776;0.95500
4980554;0.81500
4983332;0.50000
4986110;0.08500
4988887;-0.27500
4991665;-0.46000
4994443;-0.51500
4997221;-0.50500
4999999;-0.48500
5002776;-0.45500
5005554;-0.45000
5008332;-0.44000
5011110;-0.43500
5013887;-0.41500
5016665;-0.42500
5019443;-0.42500
5022221;-0.43500
5024999;-0.42000
5027776;-0.43000
5030554;-0.42000
5033332;-0.41500
5036110;-0.43000
5038887;-0.42500
5041665;-0.43000
5044443;-0.42000
5047221;-0.41000
5049999;-0.42000
5052776;-0.43500
5055554;-0.43500
5058332;-0.42500
5061110;-0.41500
5063887;-0.42500
5066665;-0.44000
5069443;-0.44000
5072221;-0.44500
5074999;-0.44000
5077776;-0.43500
5080554;-0.42500
5083332;-0.43500
5086110;-0.43500
5088887;-0.44000
5091665;-0.42500
5094443;-0.42000
5097221;-0.43000
5099999;-0.42000
5102776;-0.43500
5105554;-0.43000
5108332;-0.41500
5111110;-0.42000
5113887;-0.41500
5116665;-0.42000
5119443;-0.43000
5122221;-0.44000
5124999;-0.43500
5127776;-0.43000
5130554;-0.41500
5133332;-0.41500
5136110;-0.43000
5138887;-0.43500
5141665;-0.43000
5144443;-0.43000
5147221;-0.42500
5149999;-0.43000
5152776;-0.43500
5155554;-0.45000
5158332;-0.44000
5161110;-0.41500
5163887;-0.42500
5166665;-0.42500
5169443;-0.42500
5172221;-0.43000
5174999;-0.41000
5177776;-0.41000
5180554;-0.40500
5183332;-0.40500
5186110;-0.42000
5188887;-0.42500
5191665;-0.41000
5194443;-0.40000
5197221;-0.41500
5199999;-0.42000
5202776;-0.43000
5205554;-0.43500
5208332;-0.44000
5211110;-0.43000
5213887;-0.42500
5216665;-0.44500
5219443;-0.45000
5222221;-0.47000
5224999;-0.47000
5227776;-0.46000
5230554;-0.46000
5233332;-0.47000
5236110;-0.47500
5238887;-0.49000
5241665;-0.49000
5244443;-0.47500
5247221;-0.47000
5249999;-0.47000
5252776;-0.47500
5255554;-0.47500
5258332;-0.48500
5261110;-0.46000
5263887;-0.45000
5266665;-0.46000
5269443;-0.45000
5272221;-0.43500
5274999;-0.42000
5277776;-0.41000
5280554;-0.40500
5283332;-0.38000
5286110;-0.38000
5288887;-0.37500
5291665;-0.36000
5294443;-0.33500
5297221;-0.33500
5299999;-0.34000
5302776;-0.33500
5305554;-0.33500
5308332;-0.32000
5311110;-0.31500
5313887;-0.31000
5316665;-0.31000
5319443;-0.32000
5322221;-0.32000
5324999;-0.30500
5327776;-0.30500
5330554;-0.31000
5333332;-0.29500
5336110;-0.31000
5338887;-0.30500
5341665;-0.30000
5344443;-0.28500
5347221;-0.28000
5349999;-0.27500
5352776;-0.28500
5355554;-0.29500
5358332;-0.28500
5361110;-0.28500
5363887;-0.28500
5366665;-0.28000
5369443;-0.30500
5372221;-0.30000
5374998;-0.29500
5377776;-0.28500
5380554;-0.27000
5383332;-0.29000
5386110;-0.30000
5388887;-0.31000
5391665;-0.31000
5394443;-0.29500
5397221;-0.30000
5399998;-0.30500
5402776;-0.31000
5405554;-0.32000
5408332;-0.31500
5411110;-0.31000
5413887;-0.30000
5416665;-0.31000
5419443;-0.32500
5422221;-0.32500
5424998;-0.32000
5427776;-0.30000
5430554;-0.30000
5433332;-0.30000
5436110;-0.32000
5438887;-0.33500
5441665;-0.31500
5444443;-0.30500
5447221;-0.30500
5449998;-0.31500
5452776;-0.31500
5455554;-0.33500
5458332;-0.32000
5461110;-0.31500
5463887;-0.30500
5466665;-0.31000
5469443;-0.32000
5472221;-0.34000
5474998;-0.34000
5477776;-0.31500
5480554;-0.31000
5483332;-0.32500
5486110;-0.33000
5488887;-0.35000
5491665;-0.33500
5494443;-0.32000
5497221;-0.31500
5499998;-0.32500
5502776;-0.33500
5505554;-0.33500
5508332;-0.33000
5511110;-0.32000
5513887;-0.31500
5516665;-0.32000
5519443;-0.31500
5522221;-0.33000
5524998;-0.32000
5527776;-0.31500
5530554;-0.31000
5533332;-0.31500
5536110;-0.32500
5538887;-0.32000
5541665;-0.32000
5544443;-0.31000
5547221;-0.30500
5549998;-0.31000
5552776;-0.32000
5555554;-0.32500
5558332;-0.31000
5561110;-0.30500
5563887;-0.30500
5566665;-0.31000
5569443;-0.32000
5572221;-0.33000
5574998;-0.32500
5577776;-0.30500
5580554;-0.31500
5583332;-0.31500
5586110;-0.32000
5588887;-0.32500
5591665;-0.31000
5594443;-0.27000
5597221;-0.26500
5599998;-0.25000
5602776;-0.25000
5605554;-0.24500
5608332;-0.23000
5611110;-0.23000
5613887;-0.22000
5616665;-0.22500
5619443;-0.23000
5622221;-0.23500
5624998;-0.21500
5627776;-0.21000
5630554;-0.20000
5633332;-0.20000
5636110;-0.22000
5638887;-0.20500
5641665;-0.19500
5644443;-0.18500
5647221;-0.18500
5649998;-0.19000
5652776;-0.20000
5655554;-0.21500
5658332;-0.22500
5661110;-0.22500
5663887;-0.22000
5666665;-0.21500
5669443;-0.23000
5672221;-0.25000
5674998;-0.23500
5677776;-0.20500
5680554;-0.18000
5683332;-0.19000
5686110;-0.21500
5688887;-0.24500
5691665;-0.24500
5694443;-0.25500
5697221;-0.26500
5699998;-0.28500
5702776;-0.29000
5705554;-0.31000
5708332;-0.31500
5711110;-0.31500
5713887;-0.32000
5716665;-0.31500
5719443;-0.32500
5722221;-0.32500
5724998;-0.31500
5727776;-0.31500
5730554;-0.33000
5733332;-0.33000
5736110;-0.33500
5738887;-0.35000
5741665;-0.34000
5744443;-0.34000
5747221;-0.34500
5749998;-0.34500
5752776;-0.34500
5755554;-0.36000
5758332;-0.34000
5761109;-0.34000
5763887;-0.34000
5766665;-0.34000
5769443;-0.34000
5772221;-0.34000
5774998;-0.34500
5777776;-0.34000
5780554;-0.34500
5783332;-0.39000
5786109;-0.43000
5788887;-0.47500
5791665;-0.47000
5794443;-0.49500
5797221;-0.52000
5799998;-0.52500
5802776;-0.48500
5805554;-0.36000
5808332;-0.19500
5811109;-0.03500
5813887;0.17000
5816665;0.40500
5819443;0.67500
5822221;0.92000
5824998;1.09000
5827776;1.16000
5830554;1.06500
5833332;0.75500
5836109;0.31000
5838887;-0.12500
5841665;-0.39000
5844443;-0.45000
5847221;-0.43500
5849998;-0.38500
5852776;-0.37500
5855554;-0.36500
5858332;-0.36000
5861109;-0.35500
5863887;-0.34500
5866665;-0.35500
5869443;-0.36500
5872221;-0.38000
5874998;-0.37500
5877776;-0.37000
5880554;-0.37500
5883332;-0.37500
5886109;-0.38000
5888887;-0.38000
5891665;-0.38000
5894443;-0.39000
5897221;-0.38500
5899998;-0.38500
5902776;-0.38500
5905554;-0.39500
5908332;-0.39000
5911109;-0.39000
5913887;-0.38500
5916665;-0.38000
5919443;-0.40000
5922221;-0.39500
5924998;-0.39500
5927776;-0.39000
5930554;-0.38500
5933332;-0.40000
5936109;-0.39500
5938887;-0.41000
5941665;-0.40000
5944443;-0.38500
5947221;-0.38500
5949998;-0.40000
5952776;-0.40500
5955554;-0.40500
5958332;-0.40000
5961109;-0.38500
5963887;-0.38000
5966665;-0.38500
5969443;-0.39000
5972221;-0.40500
5974998;-0.39500
5977776;-0.39500
5980554;-0.39000
5983332;-0.39000
5986109;-0.40500
5988887;-0.41500
5991665;-0.39500
5994443;-0.40000
5997221;-0.39500
5999998;-0.40000
6002776;-0.41500
6005554;-0.42500
6008332;-0.40500
6011109;-0.40000
6013887;-0.40000
6016665;-0.39000
6019443;-0.40500
6022221;-0.40500
6024998;-0.38500
6027776;-0.38500
6030554;-0.38500
6033332;-0.38000
6036109;-0.39500
6038887;-0.40500
6041665;-0.39000
6044443;-0.38500
6047221;-0.37500
6049998;-0.39000
6052776;-0.40000
6055554;-0.39500
6058332;-0.39000
6061109;-0.39000
6063887;-0.38500
6066665;-0.39000
6069443;-0.40500
6072221;-0.41000
6074998;-0.40500
6077776;-0.40000
6080554;-0.39500
6083332;-0.40500
6086109;-0.41500
6088887;-0.41500
6091665;-0.41000
6094443;-0.40000
6097221;-0.40000
6099998;-0.40500
6102776;-0.40000
6105554;-0.40500
6108332;-0.39500
6111109;-0.38000
6113887;-0.37000
6116665;-0.38000
6119443;-0.37500
6122221;-0.37000
6124998;-0.35500
6127776;-0.33500
6130554;-0.34000
6133332;-0.33000
6136109;-0.32500
6138887;-0.33000
6141665;-0.30500
6144443;-0.30000
6147221;-0.28000
6149998;-0.28000
6152776;-0.28500
6155554;-0.28500
6158332;-0.27500
6161109;-0.26000
6163887;-0.26000
6166665;-0.26500
6169443;-0.26500
6172220;-0.27500
6174998;-0.25500
6177776;-0.24500
6180554;-0.24000
6183332;-0.25000
6186109;-0.24500
6188887;-0.25000
6191665;-0.24000
6194443;-0.24500
6197220;-0.24500
6199998;-0.24500
6202776;-0.25000
6205554;-0.26500
6208332;-0.26000
6211109;-0.25000
6213887;-0.25000
6216665;-0.24500
6219443;-0.26000
6222220;-0.27000
6224998;-0.25500
6227776;-0.26000
6230554;-0.25500
6233332;-0.26000
6236109;-0.26500
6238887;-0.27500
6241665;-0.27000
6244443;-0.26500
6247220;-0.25500
6249998;-0.26000
6252776;-0.26500
6255554;-0.27500
6258332;-0.26500
6261109;-0.25500
6263887;-0.27500
6266665;-0.26000
6269443;-0.27000
6272220;-0.28000
6274998;-0.28000
6277776;-0.26000
6280554;-0.26500
6283332;-0.28500
6286109;-0.29500
6288887;-0.30000
6291665;-0.29000
6294443;-0.28500
6297220;-0.29500
6299998;-0.30500
6302776;-0.31500
6305554;-0.32500
6308332;-0.32000
6311109;-0.31500
6313887;-0.31000
6316665;-0.30500
6319443;-0.32000
6322220;-0.31500
6324998;-0.32000
6327776;-0.30000
6330554;-0.30000
6333332;-0.30000
6336109;-0.31000
6338887;-0.31000
6341665;-0.31000
6344443;-0.31000
6347220;-0.30500
6349998;-0.30500
6352776;-0.30000
6355554;-0.32500
6358332;-0.30000
6361109;-0.30500
6363887;-0.31000
6366665;-0.30000
6369443;-0.31500
6372220;-0.32500
6374998;-0.32000
6377776;-0.31000
6380554;-0.31000
6383332;-0.31000
6386109;-0.32500
6388887;-0.32000
6391665;-0.32000
6394443;-0.30500
6397220;-0.30000
6399998;-0.30500
6402776;-0.29500
6405554;-0.30500
6408332;-0.31000
6411109;-0.30000
6413887;-0.29500
6416665;-0.31000
6419443;-0.30000
6422220;-0.30000
6424998;-0.28500
6427776;-0.27000
6430554;-0.27000
6433332;-0.24500
6436109;-0.24500
6438887;-0.24500
6441665;-0.23000
6444443;-0.22000
6447220;-0.22000
6449998;-0.22500
6452776;-0.22000
6455554;-0.22000
6458332;-0.21000
6461109;-0.19000
6463887;-0.19000
6466665;-0.18000
6469443;-0.19000
6472220;-0.20500
6474998;-0.20000
6477776;-0.18500
6480554;-0.19500
6483332;-0.20500
6486109;-0.21000
6488887;-0.21500
6491665;-0.20500
6494443;-0.21000
6497220;-0.21000
6499998;-0.20000
6502776;-0.18000
6505554;-0.16000
6508332;-0.17500
6511109;-0.20500
6513887;-0.22500
6516665;-0.23500
6519443;-0.24500
6522220;-0.26000
6524998;-0.26500
6527776;-0.26000
6530554;-0.27500
6533332;-0.27000
6536109;-0.28500
6538887;-0.29500
6541665;-0.29500
6544443;-0.30000
6547220;-0.31000
6549998;-0.31000
6552776;-0.32000
6555554;-0.32000
6558331;-0.31500
6561109;-0.31000
6563887;-0.31000
6566665;-0.31000
6569443;-0.32000
6572220;-0.32500
6574998;-0.32000
6577776;-0.31000
6580554;-0.31000
6583331;-0.31500
6586109;-0.31500
6588887;-0.33500
6591665;-0.32500
6594443;-0.32000
6597220;-0.31500
6599998;-0.32000
6602776;-0.34000
6605554;-0.38000
6608331;-0.41000
6611109;-0.44000
6613887;-0.46000
6616665;-0.49000
6619443;-0.52500
6622220;-0.55000
6624998;-0.49000
6627776;-0.36000
6630554;-0.20000
6633331;-0.02500
6636109;0.17000
6638887;0.42000
6641665;0.72500
6644443;0.94500
6647220;1.06500
6649998;1.07500
6652776;0.89000
6655554;0.50000
6658331;0.03500
6661109;-0.29500
6663887;-0.43500
6666665;-0.43000
6669443;-0.40000
6672220;-0.35000
6674998;-0.34000
6677776;-0.33500
6680554;-0.33500
6683331;-0.33500
6686109;-0.35500
6688887;-0.36500
6691665;-0.36500
6694443;-0.35500
6697220;-0.36000
6699998;-0.36000
6702776;-0.37500
6705554;-0.39000
6708331;-0.38000
6711109;-0.37500
6713887;-0.37000
6716665;-0.37500
6719443;-0.39000
6722220;-0.39500
6724998;-0.38500
6727776;-0.37500
6730554;-0.36500
6733331;-0.38500
6736109;-0.37500
6738887;-0.38500
6741665;-0.37000
6744443;-0.37000
6747220;-0.37500
6749998;-0.37500
6752776;-0.38500
6755554;-0.39000
6758331;-0.38500
6761109;-0.38000
6763887;-0.38000
6766665;-0.38500
6769443;-0.39000
6772220;-0.38000
6774998;-0.38000
6777776;-0.39000
6780554;-0.37000
6783331;-0.38000
6786109;-0.39500
6788887;-0.38500
6791665;-0.37500
6794443;-0.37500
6797220;-0.36500
6799998;-0.38000
6802776;-0.38500
6805554;-0.40500
6808331;-0.40500
6811109;-0.38000
6813887;-0.38000
6816665;-0.39000
6819443;-0.40000
6822220;-0.40000
6824998;-0.38500
6827776;-0.38000
6830554;-0.38000
6833331;-0.37500
6836109;-0.39500
6838887;-0.39000
6841665;-0.37500
6844443;-0.37000
6847220;-0.36000
6849998;-0.36500
6852776;-0.37500
6855554;-0.38500
6858331;-0.37500
6861109;-0.36500
6863887;-0.36000
6866665;-0.36000
6869443;-0.36500
6872220;-0.38500
6874998;-0.37500
6877776;-0.36500
6880554;-0.36000
6883331;-0.35500
6886109;-0.37500
6888887;-0.39000
6891665;-0.38500
6894443;-0.38000
6897220;-0.37500
6899998;-0.39000
6902776;-0.39000
6905554;-0.39500
6908331;-0.38000
6911109;-0.37000
6913887;-0.35500
6916665;-0.36500
6919443;-0.37000
6922220;-0.38000
6924998;-0.37500
6927776;-0.36000
6930554;-0.35000
6933331;-0.36000
6936109;-0.37000
6938887;-0.38000
6941665;-0.36500
6944442;-0.35500
6947220;-0.33000
6949998;-0.32500
6952776;-0.32500
6955554;-0.32000
6958331;-0.31000
6961109;-0.30500
6963887;-0.29500
6966665;-0.30000
6969442;-0.29500
6972220;-0.29500
6974998;-0.27500
6977776;-0.27000
6980554;-0.25000
6983331;-0.24500
6986109;-0.25000
6988887;-0.25000
6991665;-0.24000
6994442;-0.22500
6997220;-0.22000
6999998;-0.22500
7002776;-0.23500
7005554;-0.24000
7008331;-0.23500
7011109;-0.23500
7013887;-0.23500
7016665;-0.23500
7019442;-0.24500
7022220;-0.25000
7024998;-0.25000
7027776;-0.24000
7030554;-0.24500
7033331;-0.25500
7036109;-0.25000
7038887;-0.27500
7041665;-0.25500
7044442;-0.26500
7047220;-0.26000
7049998;-0.26000
7052776;-0.26000
7055554;-0.27000
7058331;-0.27000
7061109;-0.25000
7063887;-0.25000
7066665;-0.24500
7069442;-0.26000
7072220;-0.26500
7074998;-0.26500
7077776;-0.25500
7080554;-0.25000
7083331;-0.27000
7086109;-0.27000
7088887;-0.29500
7091665;-0.28000
7094442;-0.27000
7097220;-0.27000
7099998;-0.27500
7102776;-0.28000
7105554;-0.28500
7108331;-0.28500
7111109;-0.27500
7113887;-0.28500
7116665;-0.28500
7119442;-0.32000
7122220;-0.32000
7124998;-0.33000
7127776;-0.34000
7130554;-0.32500
7133331;-0.31500
7136109;-0.33000
7138887;-0.33000
7141665;-0.31500
7144442;-0.30500
7147220;-0.30500
7149998;-0.31000
7152776;-0.30500
7155554;-0.31500
7158331;-0.30500
7161109;-0.29500
7163887;-0.30500
7166665;-0.31000
7169442;-0.31000
7172220;-0.32500
7174998;-0.32000
7177776;-0.32000
7180554;-0.32000
7183331;-0.32000
7186109;-0.33000
7188887;-0.34000
7191665;-0.32500
7194442;-0.31000
7197220;-0.31000
7199998;-0.30500
7202776;-0.30500
7205554;-0.31000
7208331;-0.31500
7211109;-0.31000
7213887;-0.31000
7216665;-0.30500
7219442;-0.31000
7222220;-0.32000
7224998;-0.30500
7227776;-0.30500
7230554;-0.29500
7233331;-0.29500
7236109;-0.29000
7238887;-0.30000
7241665;-0.30000
7244442;-0.27500
7247220;-0.26500
7249998;-0.26500
7252776;-0.26000
7255554;-0.25500
7258331;-0.25500
7261109;-0.24000
7263887;-0.22500
7266665;-0.22500
7269442;-0.21500
7272220;-0.21500
7274998;-0.21000
7277776;-0.20000
7280554;-0.20000
7283331;-0.20500
7286109;-0.21000
7288887;-0.22000
7291665;-0.22000
7294442;-0.24000
7297220;-0.23000
7299998;-0.22500
7302776;-0.24500
7305554;-0.25000
7308331;-0.24000
7311109;-0.22500
7313887;-0.21000
7316665;-0.20500
7319442;-0.22500
7322220;-0.26500
7324998;-0.27000
7327776;-0.28500
7330554;-0.29000
7333331;-0.30500
7336109;-0.32500
7338887;-0.34000
7341665;-0.34000
7344442;-0.32500
7347220;-0.32000
7349998;-0.33000
7352776;-0.34500
7355553;-0.36000
7358331;-0.35500
7361109;-0.35500
7363887;-0.33000
7366665;-0.33500
7369442;-0.34500
7372220;-0.35500
7374998;-0.35000
7377776;-0.34500
7380553;-0.34000
7383331;-0.35500
7386109;-0.35500
7388887;-0.36000
7391665;-0.35000
7394442;-0.35500
7397220;-0.38000
7399998;-0.40500
7402776;-0.43500
7405553;-0.48000
7408331;-0.49500
7411109;-0.52500
7413887;-0.57000
7416665;-0.57000
7419442;-0.48500
7422220;-0.37500
7424998;-0.24500
7427776;-0.12000
7430553;0.04500
7433331;0.24500
7436109;0.48000
7438887;0.69500
7441665;0.88500
7444442;1.00500
7447220;1.05500
7449998;1.01500
7452776;0.79500
7455553;0.43000
7458331;0.02500
7461109;-0.28500
7463887;-0.43500
7466665;-0.48500
7469442;-0.46500
7472220;-0.43500
7474998;-0.40500
7477776;-0.38000
7480553;-0.37500
7483331;-0.39500
7486109;-0.40000
7488887;-0.42000
7491665;-0.41500
7494442;-0.42500
7497220;-0.39500
7499998;-0.41500
7502776;-0.42500
7505553;-0.42500
7508331;-0.41500
7511109;-0.40500
7513887;-0.38500
7516665;-0.39500
7519442;-0.41000
7522220;-0.42000
7524998;-0.41500
7527776;-0.41500
7530553;-0.41000
7533331;-0.40000
7536109;-0.42000
7538887;-0.42500
7541665;-0.42500
7544442;-0.40000
7547220;-0.40000
7549998;-0.42000
7552776;-0.42500
7555553;-0.43500
7558331;-0.43000
7561109;-0.43000
7563887;-0.43000
7566665;-0.43000
7569442;-0.43500
7572220;-0.43000
7574998;-0.43000
7577776;-0.42000
7580553;-0.43000
7583331;-0.43500
7586109;-0.43500
7588887;-0.44500
7591665;-0.42500
7594442;-0.41500
7597220;-0.41000
7599998;-0.41500
7602776;-0.42500
7605553;-0.44000
7608331;-0.44500
7611109;-0.43000
7613887;-0.44000
7616665;-0.43500
7619442;-0.43500
7622220;-0.44000
7624998;-0.44000
7627776;-0.43500
7630553;-0.43500
7633331;-0.43500
7636109;-0.43000
7638887;-0.43500
7641665;-0.44000
7644442;-0.44000
7647220;-0.44500
7649998;-0.44500
7652776;-0.45000
7655553;-0.46000
7658331;-0.45000
7661109;-0.44500
7663887;-0.44500
7666665;-0.45500
7669442;-0.47000
7672220;-0.47000
7674998;-0.47000
7677776;-0.46000
7680553;-0.47500
7683331;-0.48500
7686109;-0.50500
7688887;-0.50000
7691665;-0.50000
7694442;-0.48500
7697220;-0.49500
7699998;-0.50000
7702776;-0.49500
7705553;-0.50000
7708331;-0.48000
7711109;-0.48000
7713887;-0.48500
7716665;-0.49500
7719442;-0.48500
7722220;-0.49000
7724998;-0.47000
7727776;-0.43500
7730553;-0.42500
7733331;-0.42500
7736109;-0.42500
7738887;-0.43500
7741664;-0.41000
7744442;-0.39500
7747220;-0.39000
7749998;-0.37500
7752776;-0.38000
7755553;-0.38000
7758331;-0.37000
7761109;-0.34500
7763887;-0.35000
7766664;-0.34000
7769442;-0.34000
7772220;-0.34000
7774998;-0.33000
7777776;-0.33000
7780553;-0.32000
7783331;-0.33000
7786109;-0.34500
7788887;-0.34500
7791664;-0.35500
7794442;-0.36000
7797220;-0.35000
7799998;-0.34000
7802776;-0.34000
7805553;-0.33500
7808331;-0.34500
7811109;-0.33500
7813887;-0.32500
7816664;-0.31500
7819442;-0.32500
7822220;-0.34500
7824998;-0.36000
7827776;-0.35000
7830553;-0.35000
7833331;-0.35000
7836109;-0.35500
7838887;-0.34000
7841664;-0.33000
7844442;-0.34500
7847220;-0.37000
7849998;-0.37500
7852776;-0.38000
7855553;-0.38000
7858331;-0.38500
7861109;-0.38000
7863887;-0.37000
7866664;-0.37500
7869442;-0.37000
7872220;-0.35500
7874998;-0.36500
7877776;-0.36000
7880553;-0.37000
7883331;-0.36500
7886109;-0.39000
7888887;-0.40000
7891664;-0.38500
7894442;-0.38000
7897220;-0.36000
7899998;-0.37000
7902776;-0.37500
7905553;-0.38500
7908331;-0.37500
7911109;-0.37500
7913887;-0.38000
7916664;-0.37500
7919442;-0.38000
7922220;-0.39000
7924998;-0.38500
7927776;-0.39000
7930553;-0.38500
7933331;-0.40000
7936109;-0.39500
7938887;-0.40000
7941664;-0.39000
7944442;-0.38000
7947220;-0.37500
7949998;-0.38000
7952776;-0.38500
7955553;-0.38000
7958331;-0.37000
7961109;-0.37000
7963887;-0.37500
7966664;-0.37500
7969442;-0.37500
7972220;-0.38500
7974998;-0.37000
7977776;-0.37500
7980553;-0.36500
7983331;-0.38500
7986109;-0.38500
7988887;-0.39000
7991664;-0.37000
7994442;-0.36000
7997220;-0.36000
7999998;-0.34500
8002776;-0.35500
8005553;-0.33500
8008331;-0.33000
8011109;-0.32000
8013887;-0.32000
8016664;-0.30500
8019442;-0.29500
8022220;-0.29500
8024998;-0.27000
8027776;-0.26500
8030553;-0.26500
8033331;-0.27000
8036109;-0.29000
8038887;-0.29000
8041664;-0.29000
8044442;-0.28500
8047220;-0.28500
8049998;-0.28000
8052776;-0.27500
8055553;-0.29500
8058331;-0.29000
8061109;-0.30000
8063887;-0.29500
8066664;-0.30500
8069442;-0.32000
8072220;-0.32500
8074998;-0.30000
8077776;-0.27500
8080553;-0.27000
8083331;-0.28500
8086109;-0.32000
8088887;-0.35000
8091664;-0.36000
8094442;-0.35000
8097220;-0.36000
8099998;-0.37500
8102776;-0.38000
8105553;-0.39500
8108331;-0.40000
8111109;-0.38500
8113887;-0.38000
8116664;-0.37500
8119442;-0.39000
8122220;-0.38500
8124998;-0.38500
8127776;-0.40000
8130553;-0.38000
8133331;-0.39000
8136109;-0.39500
8138887;-0.41000
8141664;-0.40000
8144442;-0.39500
8147220;-0.40000
8149998;-0.40500
8152775;-0.40500
8155553;-0.40500
8158331;-0.40500
8161109;-0.40000
8163887;-0.41000
8166664;-0.43500
8169442;-0.49000
8172220;-0.51500
8174998;-0.53500
8177775;-0.56500
8180553;-0.56000
8183331;-0.51000
8186109;-0.37000
8188887;-0.20500
8191664;0.00000
8194442;0.23500
8197220;0.52000
8199998;0.78500
8202775;0.94500
8205553;0.94500
8208331;0.78000
8211109;0.41000
8213887;-0.04000
8216664;-0.38500
8219442;-0.52500
8222220;-0.52000
8224998;-0.48000
8227775;-0.44000
8230553;-0.42000
8233331;-0.42000
8236109;-0.42000
8238887;-0.43000
8241664;-0.41500
8244442;-0.41000
8247220;-0.40500
8249998;-0.40500
8252775;-0.40500
8255553;-0.41500
8258331;-0.40000
8261109;-0.41000
8263887;-0.40500
8266664;-0.40500
8269442;-0.42000
8272220;-0.43500
8274998;-0.41500
8277775;-0.41000
8280553;-0.41500
8283331;-0.40500
8286109;-0.43000
8288887;-0.42500
8291664;-0.42500
8294442;-0.42000
8297220;-0.41500
8299998;-0.42000
8302775;-0.43000
8305553;-0.44000
8308331;-0.43000
8311109;-0.42500
8313887;-0.41500
8316664;-0.41500
8319442;-0.42000
8322220;-0.42000
8324998;-0.41000
8327775;-0.41000
8330553;-0.40500
8333331;-0.41000
8336109;-0.42000
8338887;-0.43000
8341664;-0.42000
8344442;-0.41500
8347220;-0.42000
8349998;-0.43000
8352775;-0.42500
8355553;-0.43500
8358331;-0.42000
8361109;-0.41500
8363887;-0.41500
8366664;-0.41000
8369442;-0.41000
8372220;-0.42000
8374998;-0.41500
8377775;-0.41500
8380553;-0.40000
8383331;-0.40500
8386109;-0.41500
8388887;-0.43000
8391664;-0.42000
8394442;-0.40500
8397220;-0.41500
8399998;-0.41000
8402775;-0.42000
8405553;-0.43000
8408331;-0.44000
8411109;-0.43000
8413887;-0.42500
8416664;-0.42000
8419442;-0.44500
8422220;-0.45000
8424998;-0.44500
8427775;-0.43000
8430553;-0.42000
8433331;-0.43000
8436109;-0.43000
8438887;-0.44000
8441664;-0.43500
8444442;-0.43500
8447220;-0.43500
8449998;-0.44000
8452775;-0.44500
8455553;-0.46000
8458331;-0.45500
8461109;-0.45500
8463887;-0.45000
8466664;-0.45000
8469442;-0.45500
8472220;-0.46000
8474998;-0.46000
8477775;-0.44500
8480553;-0.43500
8483331;-0.43000
8486109;-0.43000
8488887;-0.43500
8491664;-0.41500
8494442;-0.39500
8497220;-0.37500
8499998;-0.37500
8502775;-0.35500
8505553;-0.35500
8508331;-0.34000
8511109;-0.33000
8513887;-0.31500
8516664;-0.30500
8519442;-0.30000
8522220;-0.30500
8524998;-0.28500
8527775;-0.27500
8530553;-0.27000
8533331;-0.27000
8536109;-0.26500
8538886;-0.27000
8541664;-0.28000
8544442;-0.27500
8547220;-0.26500
8549998;-0.25500
8552775;-0.26500
8555553;-0.27500
8558331;-0.27500
8561109;-0.26500
8563886;-0.27000
8566664;-0.27000
8569442;-0.28500
8572220;-0.28500
8574998;-0.28500
8577775;-0.28000
8580553;-0.26000
8583331;-0.26000
8586109;-0.27000
8588886;-0.27500
8591664;-0.27000
8594442;-0.26000
8597220;-0.24500
8599998;-0.25500
8602775;-0.26000
8605553;-0.28000
8608331;-0.27000
8611109;-0.26000
8613886;-0.27000
8616664;-0.26500
8619442;-0.28000
8622220;-0.28000
8624998;-0.27500
8627775;-0.27500
8630553;-0.27500
8633331;-0.27500
8636109;-0.29000
8638886;-0.30500
8641664;-0.29500
8644442;-0.29000
8647220;-0.28000
8649998;-0.28500
8652775;-0.29000
8655553;-0.30000
8658331;-0.30000
8661109;-0.29500
8663886;-0.28000
8666664;-0.28500
8669442;-0.30500
8672220;-0.31500
8674998;-0.31000
8677775;-0.30000
8680553;-0.30000
8683331;-0.30000
8686109;-0.31000
8688886;-0.32000
8691664;-0.31500
8694442;-0.30000
8697220;-0.29500
8699998;-0.31000
8702775;-0.32000
8705553;-0.32500
8708331;-0.31500
8711109;-0.31500
8713886;-0.29500
8716664;-0.30500
8719442;-0.30500
8722220;-0.31000
8724998;-0.30500
8727775;-0.29000
8730553;-0.30000
8733331;-0.29500
8736109;-0.30500
8738886;-0.31000
8741664;-0.30000
8744442;-0.29500
8747220;-0.29500
8749998;-0.29000
8752775;-0.30000
8755553;-0.30500
8758331;-0.30500
8761109;-0.29500
8763886;-0.28000
8766664;-0.29000
8769442;-0.30000
8772220;-0.30500
8774998;-0.30000
8777775;-0.29000
8780553;-0.29500
8783331;-0.29500
8786109;-0.29000
8788886;-0.30500
8791664;-0.28500
8794442;-0.26500
8797220;-0.26000
8799998;-0.25000
8802775;-0.24500
8805553;-0.23500
8808331;-0.23000
8811109;-0.21500
8813886;-0.21500
8816664;-0.21000
8819442;-0.21000
8822220;-0.20000
8824998;-0.19000
8827775;-0.17500
8830553;-0.17000
8833331;-0.18500
8836109;-0.21000
8838886;-0.20500
8841664;-0.20500
8844442;-0.21500
8847220;-0.20000
8849998;-0.21500
8852775;-0.21000
8855553;-0.21500
8858331;-0.21500
8861109;-0.21500
8863886;-0.19500
8866664;-0.18500
8869442;-0.17000
8872220;-0.18000
8874998;-0.20500
8877775;-0.23000
8880553;-0.24500
8883331;-0.27000
8886109;-0.27000
8888886;-0.29500
8891664;-0.31500
8894442;-0.30500
8897220;-0.31500
8899998;-0.32000
8902775;-0.33500
8905553;-0.35000
8908331;-0.33500
8911109;-0.33500
8913886;-0.33000
8916664;-0.34500
8919442;-0.34500
8922220;-0.35000
8924998;-0.34500
8927775;-0.34000
8930553;-0.32500
8933331;-0.33500
8936109;-0.34000
8938886;-0.34500
8941664;-0.33500
8944442;-0.33000
8947220;-0.31500
8949997;-0.32000
8952775;-0.32000
8955553;-0.34000
8958331;-0.33000
8961109;-0.32000
8963886;-0.32500
8966664;-0.34000
8969442;-0.38500
8972220;-0.41500
8974997;-0.44500
8977775;-0.46500
8980553;-0.47500
8983331;-0.49500
8986109;-0.52500
8988886;-0.53000
8991664;-0.43500
8994442;-0.27000
8997220;-0.06500
8999997;0.14000
9002775;0.41500
9005553;0.72000
9008331;0.99500
9011109;1.14500
9013886;1.15500
9016664;0.94000
9019442;0.51500
9022220;-0.00500
9024997;-0.36000
9027775;-0.47000
9030553;-0.42500
9033331;-0.35500
9036109;-0.33500
9038886;-0.35000
9041664;-0.37000
9044442;-0.36000
9047220;-0.36500
9049997;-0.36000
9052775;-0.37000
9055553;-0.39000
9058331;-0.39000
9061109;-0.38500
9063886;-0.38500
9066664;-0.38500
9069442;-0.40000
9072220;-0.39500
9074997;-0.40500
9077775;-0.39000
9080553;-0.38500
9083331;-0.38500
9086109;-0.39500
9088886;-0.39500
9091664;-0.38500
9094442;-0.38000
9097220;-0.38000
9099997;-0.39000
9102775;-0.39500
9105553;-0.40500
9108331;-0.39000
9111109;-0.39000
9113886;-0.39500
9116664;-0.38000
9119442;-0.38500
9122220;-0.40500
9124997;-0.39000
9127775;-0.38500
9130553;-0.37500
9133331;-0.38000
9136109;-0.40000
9138886;-0.40000
9141664;-0.39000
9144442;-0.38500
9147220;-0.39000
9149997;-0.38000
9152775;-0.39500
9155553;-0.40500
9158331;-0.41500
9161109;-0.39000
9163886;-0.39500
9166664;-0.40500
9169442;-0.38500
9172220;-0.39500
9174997;-0.39500
9177775;-0.38000
9180553;-0.39000
9183331;-0.39000
9186109;-0.39500
9188886;-0.40000
9191664;-0.40000
9194442;-0.39000
9197220;-0.40000
9199997;-0.39500
9202775;-0.40500
9205553;-0.40000
9208331;-0.40500
9211109;-0.39000
9213886;-0.40000
9216664;-0.39500
9219442;-0.40500
9222220;-0.42000
9224997;-0.41500
9227775;-0.40500
9230553;-0.40500
9233331;-0.41000
9236109;-0.41500
9238886;-0.41500
9241664;-0.42000
9244442;-0.41000
9247220;-0.40000
9249997;-0.40500
9252775;-0.40500
9255553;-0.42000
9258331;-0.41500
9261109;-0.39500
9263886;-0.38500
9266664;-0.38000
9269442;-0.39000
9272220;-0.40000
9274997;-0.38500
9277775;-0.37500
9280553;-0.36000
9283331;-0.35000
9286109;-0.34500
9288886;-0.36000
9291664;-0.34000
9294442;-0.32500
9297220;-0.31500
9299997;-0.30500
9302775;-0.29500
9305553;-0.30500
9308331;-0.28500
9311109;-0.27000
9313886;-0.27000
9316664;-0.26500
9319442;-0.26000
9322220;-0.27000
9324997;-0.27000
9327775;-0.25000
9330553;-0.25500
9333331;-0.25000
9336108;-0.26000
9338886;-0.26500
9341664;-0.26500
9344442;-0.25000
9347220;-0.25000
9349997;-0.24500
9352775;-0.25500
9355553;-0.26500
9358331;-0.26000
9361108;-0.26500
9363886;-0.25000
9366664;-0.27500
9369442;-0.27000
9372220;-0.28000
9374997;-0.28000
9377775;-0.27500
9380553;-0.26000
9383331;-0.27000
9386108;-0.27500
9388886;-0.27500
9391664;-0.27000
9394442;-0.26500
9397220;-0.27000
9399997;-0.27500
9402775;-0.28500
9405553;-0.30000
9408331;-0.28500
9411108;-0.29000
9413886;-0.28000
9416664;-0.29000
9419442;-0.29500
9422220;-0.31000
9424997;-0.31500
9427775;-0.30500
9430553;-0.29500
9433331;-0.31000
9436108;-0.31500
9438886;-0.32500
9441664;-0.32000
9444442;-0.30500
9447220;-0.30500
9449997;-0.31000
9452775;-0.32000
9455553;-0.32500
9458331;-0.32500
9461108;-0.32000
9463886;-0.31500
9466664;-0.32000
9469442;-0.32000
9472220;-0.32500
9474997;-0.32500
9477775;-0.32000
9480553;-0.31500
9483331;-0.32000
9486108;-0.33000
9488886;-0.34000
9491664;-0.34000
9494442;-0.32500
9497220;-0.32000
9499997;-0.33500
9502775;-0.34000
9505553;-0.34500
9508331;-0.33500
9511108;-0.33000
9513886;-0.32000
9516664;-0.32000
9519442;-0.31500
9522220;-0.34000
9524997;-0.32500
9527775;-0.31500
9530553;-0.31000
9533331;-0.31500
9536108;-0.32000
9538886;-0.33000
9541664;-0.32500
9544442;-0.31500
9547220;-0.30500
9549997;-0.31500
9552775;-0.33000
9555553;-0.33500
9558331;-0.32500
9561108;-0.32000
9563886;-0.32000
9566664;-0.30500
9569442;-0.31000
9572220;-0.29000
9574997;-0.28500
9577775;-0.26000
9580553;-0.25000
9583331;-0.23500
9586108;-0.24000
9588886;-0.26000
9591664;-0.23500
9594442;-0.23000
9597220;-0.21000
9599997;-0.20000
9602775;-0.20500
9605553;-0.20000
9608331;-0.20500
9611108;-0.19500
9613886;-0.19000
9616664;-0.20000
9619442;-0.20500
9622220;-0.22500
9624997;-0.22500
9627775;-0.22500
9630553;-0.23000
9633331;-0.22500
9636108;-0.23000
9638886;-0.23500
9641664;-0.24500
9644442;-0.25000
9647220;-0.24500
9649997;-0.25000
9652775;-0.24500
9655553;-0.21500
9658331;-0.20500
9661108;-0.21000
9663886;-0.23500
9666664;-0.26000
9669442;-0.28000
9672220;-0.29000
9674997;-0.31000
9677775;-0.31500
9680553;-0.32000
9683331;-0.32000
9686108;-0.34000
9688886;-0.35000
9691664;-0.33000
9694442;-0.33500
9697220;-0.33000
9699997;-0.33500
9702775;-0.34500
9705553;-0.35500
9708331;-0.35500
9711108;-0.35500
9713886;-0.35500
9716664;-0.35500
9719442;-0.36500
9722220;-0.37000
9724997;-0.36500
9727775;-0.36000
9730553;-0.33500
9733331;-0.33500
9736108;-0.34500
9738886;-0.35500
9741664;-0.37000
9744442;-0.37500
9747219;-0.41500
9749997;-0.45500
9752775;-0.48000
9755553;-0.50500
9758331;-0.53500
9761108;-0.55500
9763886;-0.49500
9766664;-0.38500
9769442;-0.22000
9772219;-0.06500
9774997;0.12500
9777775;0.37500
9780553;0.64000
9783331;0.88000
9786108;1.05000
9788886;1.15000
9791664;1.24000
9794442;1.25500
9797219;1.16500
9799997;0.98500
9802775;0.73500
9805553;0.43500
9808331;0.10500
9811108;-0.19500
9813886;-0.40000
9816664;-0.46500
9819442;-0.45500
9822219;-0.40000
9824997;-0.36500
9827775;-0.35500
9830553;-0.36500
9833331;-0.37000
9836108;-0.38000
9838886;-0.38500
9841664;-0.39000
9844442;-0.38500
9847219;-0.38000
9849997;-0.38500
9852775;-0.39500
9855553;-0.40000
9858331;-0.41000
9861108;-0.39500
9863886;-0.38500
9866664;-0.39000
9869442;-0.39500
9872219;-0.40500
9874997;-0.40500
9877775;-0.40000
9880553;-0.38500
9883331;-0.39500
9886108;-0.40000
9888886;-0.41000
9891664;-0.41000
9894442;-0.38500
9897219;-0.38500
9899997;-0.39500
9902775;-0.40500
9905553;-0.41000
9908331;-0.41000
9911108;-0.39500
9913886;-0.39500
9916664;-0.40500
9919442;-0.40000
9922219;-0.43000
9924997;-0.42500
9927775;-0.40500
9930553;-0.41000
9933331;-0.41500
9936108;-0.41500
9938886;-0.43500
9941664;-0.42000
9944442;-0.41500
9947219;-0.41500
9949997;-0.41500
9952775;-0.41500
9955553;-0.41500
9958331;-0.41000
9961108;-0.40500
9963886;-0.40000
9966664;-0.40500
9969442;-0.41000
9972219;-0.41500
9974997;-0.41500
9977775;-0.39500
9980553;-0.40000
9983331;-0.39000
9986108;-0.41000
9988886;-0.42500
9991664;-0.42000
9994442;-0.41000
9997219;-0.41000
9999997;-0.40000
10002775;-0.40500
10005553;-0.41500
10008331;-0.42000
10011108;-0.42500
10013886;-0.43000
10016664;-0.43000
10019442;-0.44500
10022219;-0.44500
10024997;-0.43500
10027775;-0.42500
10030553;-0.42000
10033331;-0.42000
10036108;-0.42000
10038886;-0.42000
10041664;-0.44000
10044442;-0.41000
10047219;-0.40500
10049997;-0.40500
10052775;-0.41500
10055553;-0.41500
10058331;-0.41500
10061108;-0.40500
10063886;-0.40500
10066664;-0.38500
10069442;-0.39000
10072219;-0.39500
10074997;-0.37000
10077775;-0.36000
10080553;-0.34500
10083331;-0.34500
10086108;-0.35500
10088886;-0.35000
10091664;-0.34500
10094442;-0.32000
10097219;-0.31500
10099997;-0.32500
10102775;-0.31500
10105553;-0.31500
10108331;-0.31000
10111108;-0.29000
10113886;-0.28500
10116664;-0.28500
10119442;-0.30000
10122219;-0.31000
10124997;-0.29000
10127775;-0.28500
10130553;-0.27500
10133330;-0.28500
10136108;-0.30000
10138886;-0.30000
10141664;-0.29500
10144442;-0.29000
10147219;-0.28500
10149997;-0.28000
10152775;-0.29500
10155553;-0.33000
10158330;-0.32500
10161108;-0.31000
10163886;-0.29500
10166664;-0.30500
10169442;-0.31500
10172219;-0.32000
10174997;-0.32000
10177775;-0.30500
10180553;-0.30500
10183330;-0.31000
10186108;-0.31000
10188886;-0.31500
10191664;-0.32000
10194442;-0.32500
10197219;-0.32000
10199997;-0.33000
10202775;-0.35000
10205553;-0.34000
10208330;-0.34000
10211108;-0.32500
10213886;-0.34500
10216664;-0.35000
10219442;-0.36500
10222219;-0.38500
10224997;-0.38000
10227775;-0.37000
10230553;-0.35500
10233330;-0.36000
10236108;-0.37500
10238886;-0.38500
10241664;-0.39000
10244442;-0.38000
10247219;-0.37000
10249997;-0.36500
10252775;-0.37000
10255553;-0.38000
10258330;-0.37000
10261108;-0.35500
10263886;-0.36000
10266664;-0.36000
10269442;-0.37500
10272219;-0.39000
10274997;-0.38500
10277775;-0.37000
10280553;-0.35500
10283330;-0.36500
10286108;-0.37000
10288886;-0.38000
10291664;-0.37500
10294442;-0.36500
10297219;-0.36500
10299997;-0.37000
10302775;-0.37500
10305553;-0.38000
10308330;-0.38000
10311108;-0.37500
10313886;-0.37000
10316664;-0.38000
10319442;-0.39500
10322219;-0.40000
10324997;-0.38500
10327775;-0.38000
10330553;-0.37500
10333330;-0.37500
10336108;-0.38500
10338886;-0.38000
10341664;-0.37000
10344442;-0.36000
10347219;-0.35000
10349997;-0.34500
10352775;-0.33000
10355553;-0.33000
10358330;-0.32000
10361108;-0.31000
10363886;-0.31500
10366664;-0.31000
10369442;-0.31500
10372219;-0.32000
10374997;-0.30500
10377775;-0.27500
10380553;-0.26500
10383330;-0.26500
10386108;-0.27500
10388886;-0.28000
10391664;-0.27500
10394442;-0.28000
10397219;-0.27500
10399997;-0.29500
10402775;-0.30000
10405553;-0.30500
10408330;-0.30500
10411108;-0.30000
10413886;-0.29000
10416664;-0.30500
10419442;-0.30500
10422219;-0.30500
10424997;-0.29000
10427775;-0.26500
10430553;-0.27000
10433330;-0.29000
10436108;-0.32000
10438886;-0.34500
10441664;-0.36500
10444442;-0.37000
10447219;-0.38000
10449997;-0.39500
10452775;-0.41500
10455553;-0.42500
10458330;-0.42500
10461108;-0.40000
10463886;-0.39500
10466664;-0.39000
10469442;-0.42000
10472219;-0.41500
10474997;-0.44000
10477775;-0.43000
10480553;-0.43000
10483330;-0.44000
10486108;-0.44000
10488886;-0.45000
10491664;-0.43500
10494442;-0.42000
10497219;-0.41500
10499997;-0.41500
10502775;-0.41000
10505553;-0.43500
10508330;-0.44000
10511108;-0.41500
10513886;-0.41000
10516664;-0.40500
10519441;-0.42500
10522219;-0.43000
10524997;-0.44000
10527775;-0.45000
10530553;-0.47000
10533330;-0.50000
10536108;-0.54000
10538886;-0.58000
10541664;-0.63000
10544441;-0.65500
10547219;-0.59500
10549997;-0.50500
10552775;-0.37500
10555553;-0.22500
10558330;-0.04500
10561108;0.19000
10563886;0.46500
10566664;0.69500
10569441;0.83000
10572219;0.84000
10574997;0.66500
10577775;0.32000
10580553;-0.07500
10583330;-0.37500
10586108;-0.55000
10588886;-0.59500
10591664;-0.56000
10594441;-0.52500
10597219;-0.48000
10599997;-0.48000
10602775;-0.48000
10605553;-0.48000
10608330;-0.46500
10611108;-0.45000
10613886;-0.44500
10616664;-0.46000
10619441;-0.47000
10622219;-0.48000
10624997;-0.47500
10627775;-0.47000
10630553;-0.45500
10633330;-0.46500
10636108;-0.47000
10638886;-0.47500
10641664;-0.47500
10644441;-0.45500
10647219;-0.46000
10649997;-0.47500
10652775;-0.49000
10655553;-0.49000
10658330;-0.51000
10661108;-0.49500
10663886;-0.50000
10666664;-0.48500
10669441;-0.49000
10672219;-0.49500
10674997;-0.48000
10677775;-0.47500
10680553;-0.47000
10683330;-0.47500
10686108;-0.48000
10688886;-0.48500
10691664;-0.47500
10694441;-0.48000
10697219;-0.48000
10699997;-0.49000
10702775;-0.49500
10705553;-0.50500
10708330;-0.49000
10711108;-0.46500
10713886;-0.46500
10716664;-0.47000
10719441;-0.49000
10722219;-0.50500
10724997;-0.50000
10727775;-0.50000
10730553;-0.48500
10733330;-0.49500
10736108;-0.50500
10738886;-0.50000
10741664;-0.51500
10744441;-0.49500
10747219;-0.48500
10749997;-0.49000
10752775;-0.50000
10755553;-0.49500
10758330;-0.49500
10761108;-0.48000
10763886;-0.46500
10766664;-0.47500
10769441;-0.48000
10772219;-0.47500
10774997;-0.48000
10777775;-0.48500
10780553;-0.48500
10783330;-0.49000
10786108;-0.49000
10788886;-0.48500
10791664;-0.48000
10794441;-0.47500
10797219;-0.45500
10799997;-0.46500
10802775;-0.47000
10805553;-0.49500
10808330;-0.50000
10811108;-0.50000
10813886;-0.50500
10816664;-0.51500
10819441;-0.51500
10822219;-0.53500
10824997;-0.52500
10827775;-0.52000
10830553;-0.51000
10833330;-0.52000
10836108;-0.52500
10838886;-0.53000
10841664;-0.52500
10844441;-0.53000
10847219;-0.51500
10849997;-0.52000
10852775;-0.54000
10855553;-0.53500
10858330;-0.52000
10861108;-0.51500
10863886;-0.49000
10866664;-0.48500
10869441;-0.48500
10872219;-0.49500
10874997;-0.48000
10877775;-0.45500
10880553;-0.43000
10883330;-0.42000
10886108;-0.42500
10888886;-0.42500
10891664;-0.42500
10894441;-0.42000
10897219;-0.40500
10899997;-0.40000
10902775;-0.40000
10905553;-0.38500
10908330;-0.37500
10911108;-0.36000
10913886;-0.34500
10916664;-0.35500
10919441;-0.35000
10922219;-0.36500
10924997;-0.36500
10927775;-0.37500
10930552;-0.36000
10933330;-0.36000
10936108;-0.37000
10938886;-0.38500
10941664;-0.37000
10944441;-0.37500
10947219;-0.36500
10949997;-0.36000
10952775;-0.37500
10955552;-0.39000
10958330;-0.39000
10961108;-0.39000
10963886;-0.39000
10966664;-0.38000
10969441;-0.38000
10972219;-0.38500
10974997;-0.37500
10977775;-0.37000
10980552;-0.36000
10983330;-0.37000
10986108;-0.38000
10988886;-0.39000
10991664;-0.40000
10994441;-0.40000
10997219;-0.40000
10999997;-0.41000
11002775;-0.43000
11005552;-0.43000
11008330;-0.42000
11011108;-0.40000
11013886;-0.39000
11016664;-0.39500
11019441;-0.41000
11022219;-0.43500
11024997;-0.43000
11027775;-0.41500
11030552;-0.40000
11033330;-0.39500
11036108;-0.39000
11038886;-0.41500
11041664;-0.41000
11044441;-0.41500
11047219;-0.40000
11049997;-0.40500
11052775;-0.41000
11055552;-0.42000
11058330;-0.41000
11061108;-0.40000
11063886;-0.39000
11066664;-0.40500
11069441;-0.41500
11072219;-0.43000
11074997;-0.42500
11077775;-0.41500
11080552;-0.41000
11083330;-0.41500
11086108;-0.42000
11088886;-0.43000
11091664;-0.44000
11094441;-0.42500
11097219;-0.42500
11099997;-0.41500
11102775;-0.42000
11105552;-0.44000
11108330;-0.42000
11111108;-0.41000
11113886;-0.40500
11116664;-0.40500
11119441;-0.42000
11122219;-0.42000
11124997;-0.42000
11127775;-0.41000
11130552;-0.40000
11133330;-0.40500
11136108;-0.41500
11138886;-0.43000
11141664;-0.42500
11144441;-0.42000
11147219;-0.40500
11149997;-0.39500
11152775;-0.40500
11155552;-0.40500
11158330;-0.39000
11161108;-0.37500
11163886;-0.37000
11166664;-0.36000
11169441;-0.36000
11172219;-0.36000
11174997;-0.36000
11177775;-0.34000
11180552;-0.33500
11183330;-0.32500
11186108;-0.33500
11188886;-0.34000
11191664;-0.33000
11194441;-0.32000
11197219;-0.30000
11199997;-0.30500
11202775;-0.31500
11205552;-0.30500
11208330;-0.30500
11211108;-0.31000
11213886;-0.30500
11216664;-0.31000
11219441;-0.32000
11222219;-0.33500
11224997;-0.31500
11227775;-0.33000
11230552;-0.32500
11233330;-0.34500
11236108;-0.34500
11238886;-0.33000
11241664;-0.32500
11244441;-0.31000
11247219;-0.34000
11249997;-0.37000
11252775;-0.40000
11255552;-0.42500
11258330;-0.43000
11261108;-0.43000
11263886;-0.42500
11266664;-0.43500
11269441;-0.44000
11272219;-0.44500
11274997;-0.44000
11277775;-0.42500
11280552;-0.43000
11283330;-0.43000
11286108;-0.44000
11288886;-0.45000
11291664;-0.44000
11294441;-0.43000
11297219;-0.42500
11299997;-0.44000
11302775;-0.45000
11305552;-0.46500
11308330;-0.46000
11311108;-0.44500
11313886;-0.44500
11316663;-0.44500
11319441;-0.45500
11322219;-0.46500
11324997;-0.45000
11327775;-0.45000
11330552;-0.44000
11333330;-0.44500
11336108;-0.46500
11338886;-0.50000
11341663;-0.52500
11344441;-0.54000
11347219;-0.54000
11349997;-0.56000
11352775;-0.60500
11355552;-0.66000
11358330;-0.65500
11361108;-0.60500
11363886;-0.51000
11366663;-0.41000
11369441;-0.30500
11372219;-0.20500
11374997;-0.03500
11377775;0.18000
11380552;0.44000
11383330;0.69500
11386108;0.86500
11388886;0.92000
11391663;0.84500
11394441;0.59000
11397219;0.18000
11399997;-0.21500
11402775;-0.47000
11405552;-0.57000
11408330;-0.56500
11411108;-0.53000
11413886;-0.49500
11416663;-0.47000
11419441;-0.48500
11422219;-0.48500
11424997;-0.48000
11427775;-0.46000
11430552;-0.45000
11433330;-0.45000
11436108;-0.45500
11438886;-0.47000
11441663;-0.46500
11444441;-0.45500
11447219;-0.45000
11449997;-0.45500
11452775;-0.46500
11455552;-0.47000
11458330;-0.46000
11461108;-0.46500
11463886;-0.47000
11466663;-0.46000
11469441;-0.46500
11472219;-0.47500
11474997;-0.46000
11477775;-0.46000
11480552;-0.45500
11483330;-0.46000
11486108;-0.46500
11488886;-0.46000
11491663;-0.45500
11494441;-0.45000
11497219;-0.44500
11499997;-0.44500
11502775;-0.47000
11505552;-0.47000
11508330;-0.46000
11511108;-0.46500
11513886;-0.45500
11516663;-0.46000
11519441;-0.46000
11522219;-0.48000
11524997;-0.46000
11527775;-0.45500
11530552;-0.45000
11533330;-0.46000
11536108;-0.47000
11538886;-0.48500
11541663;-0.48000
11544441;-0.48000
11547219;-0.46000
11549997;-0.46000
11552775;-0.46500
11555552;-0.48000
11558330;-0.48000
11561108;-0.47500
11563886;-0.45500
11566663;-0.46500
11569441;-0.48000
11572219;-0.46500
11574997;-0.47000
11577775;-0.46500
11580552;-0.46000
11583330;-0.45000
11586108;-0.45500
11588886;-0.46500
11591663;-0.45000
11594441;-0.46000
11597219;-0.44500
11599997;-0.44500
11602775;-0.46000
11605552;-0.46500
11608330;-0.46500
11611108;-0.46500
11613886;-0.45500
11616663;-0.46000
11619441;-0.47500
11622219;-0.48500
11624997;-0.48500
11627775;-0.48000
11630552;-0.48000
11633330;-0.47500
11636108;-0.48500
11638886;-0.50500
11641663;-0.49500
11644441;-0.48500
11647219;-0.47500
11649997;-0.48000
11652775;-0.48500
11655552;-0.49500
11658330;-0.49500
11661108;-0.48000
11663886;-0.47000
11666663;-0.48000
11669441;-0.48500
11672219;-0.50000
11674997;-0.49000
11677775;-0.49000
11680552;-0.47000
11683330;-0.46500
11686108;-0.47500
11688886;-0.48000
11691663;-0.47000
11694441;-0.46000
11697219;-0.44000
11699997;-0.42500
11702775;-0.42500
11705552;-0.41000
11708330;-0.41000
11711108;-0.39000
11713886;-0.37000
11716663;-0.35500
11719441;-0.36000
11722219;-0.35500
11724997;-0.35000
11727774;-0.34000
11730552;-0.32500
11733330;-0.32500
11736108;-0.32000
11738886;-0.32500
11741663;-0.30500
11744441;-0.30500
11747219;-0.29500
11749997;-0.29500
11752774;-0.30500
11755552;-0.31500
11758330;-0.30500
11761108;-0.29500
11763886;-0.29500
11766663;-0.29000
11769441;-0.30500
11772219;-0.32000
11774997;-0.30500
11777774;-0.31000
11780552;-0.30500
11783330;-0.30500
11786108;-0.31500
11788886;-0.32000
11791663;-0.32000
11794441;-0.31000
11797219;-0.29500
11799997;-0.30500
11802774;-0.32500
11805552;-0.31500
11808330;-0.31500
11811108;-0.30500
11813886;-0.29000
11816663;-0.30500
11819441;-0.30500
11822219;-0.32000
11824997;-0.32000
11827774;-0.31000
11830552;-0.30500
11833330;-0.31500
11836108;-0.32500
11838886;-0.33000
11841663;-0.32500
11844441;-0.33000
11847219;-0.31000
11849997;-0.31000
11852774;-0.33500
11855552;-0.33000
11858330;-0.34000
11861108;-0.33500
11863886;-0.33000
11866663;-0.33000
11869441;-0.34500
11872219;-0.35000
11874997;-0.34500
11877774;-0.32500
11880552;-0.32000
11883330;-0.33500
11886108;-0.34000
11888886;-0.34500
11891663;-0.34000
11894441;-0.33000
11897219;-0.31500
11899997;-0.32500
11902774;-0.33000
11905552;-0.34000
11908330;-0.33000
11911108;-0.32500
11913886;-0.32000
11916663;-0.33000
11919441;-0.32500
11922219;-0.34000
11924997;-0.32000
11927774;-0.32000
11930552;-0.31000
11933330;-0.32000
11936108;-0.32000
11938886;-0.33500
11941663;-0.34000
11944441;-0.33500
11947219;-0.32000
11949997;-0.33000
11952774;-0.32500
11955552;-0.33500
11958330;-0.33500
11961108;-0.33000
11963886;-0.31000
11966663;-0.32500
11969441;-0.31500
11972219;-0.33000
11974997;-0.32500
11977774;-0.30500
11980552;-0.30000
11983330;-0.29500
11986108;-0.30500
11988886;-0.32000
11991663;-0.30500
11994441;-0.29000
11997219;-0.27000
11999997;-0.26500
12002774;-0.25000
12005552;-0.25500
12008330;-0.25500
12011108;-0.24000
12013886;-0.23000
12016663;-0.22500
12019441;-0.24500
12022219;-0.24500
12024997;-0.23500
12027774;-0.22000
12030552;-0.20000
12033330;-0.20000
12036108;-0.21000
12038886;-0.21000
12041663;-0.20500
12044441;-0.19500
12047219;-0.20000
12049997;-0.20000
12052774;-0.21500
12055552;-0.22500
12058330;-0.22500
12061108;-0.21500
12063886;-0.21500
12066663;-0.20500
12069441;-0.22500
12072219;-0.23000
12074997;-0.22500
12077774;-0.20500
12080552;-0.16000
12083330;-0.17000
12086108;-0.20000
12088886;-0.25500
12091663;-0.25500
12094441;-0.26000
12097219;-0.28000
12099997;-0.29500
12102774;-0.32500
12105552;-0.32500
12108330;-0.33500
12111108;-0.33000
12113885;-0.32500
12116663;-0.32500
12119441;-0.32500
12122219;-0.33500
12124997;-0.33000
12127774;-0.33000
12130552;-0.32000
12133330;-0.33000
12136108;-0.34000
12138885;-0.35000
12141663;-0.34500
12144441;-0.34000
12147219;-0.32500
12149997;-0.33500
12152774;-0.33500
12155552;-0.34000
12158330;-0.34000
12161108;-0.33500
12163885;-0.33500
12166663;-0.35000
12169441;-0.36000
12172219;-0.39000
12174997;-0.42000
12177774;-0.45500
12180552;-0.46500
12183330;-0.48500
12186108;-0.52500
12188885;-0.58500
12191663;-0.60500
12194441;-0.59000
12197219;-0.53500
12199997;-0.47500
12202774;-0.38500
12205552;-0.28000
12208330;-0.17000
12211108;-0.06000
12213885;0.07500
12216663;0.25000
12219441;0.45500
12222219;0.71500
12224997;0.96500
12227774;1.12000
12230552;1.16500
12233330;1.03500
12236108;0.70500
12238885;0.22500
12241663;-0.19000
12244441;-0.40000
12247219;-0.42500
12249997;-0.38000
12252774;-0.35000
12255552;-0.34000
12258330;-0.34500
12261108;-0.34500
12263885;-0.34500
12266663;-0.35500
12269441;-0.37500
12272219;-0.38000
12274997;-0.38500
12277774;-0.37000
12280552;-0.35500
12283330;-0.36500
12286108;-0.37000
12288885;-0.38500
12291663;-0.36500
12294441;-0.36500
12297219;-0.36500
12299997;-0.36000
12302774;-0.37000
12305552;-0.38500
12308330;-0.38000
12311108;-0.36500
12313885;-0.37000
12316663;-0.36000
12319441;-0.37000
12322219;-0.38500
12324997;-0.38000
12327774;-0.37000
12330552;-0.36500
12333330;-0.37000
12336108;-0.37500
12338885;-0.38000
12341663;-0.39000
12344441;-0.38000
12347219;-0.37500
12349997;-0.37000
12352774;-0.38000
12355552;-0.38500
12358330;-0.37000
12361108;-0.37500
12363885;-0.36500
12366663;-0.37500
12369441;-0.37500
12372219;-0.37500
12374997;-0.36500
12377774;-0.36500
12380552;-0.34500
12383330;-0.34500
12386108;-0.35500
12388885;-0.36500
12391663;-0.35500
12394441;-0.36000
12397219;-0.35000
12399997;-0.35500
12402774;-0.37000
12405552;-0.37500
12408330;-0.38000
12411108;-0.38000
12413885;-0.36000
12416663;-0.36500
12419441;-0.37000
12422219;-0.38500
12424997;-0.39000
12427774;-0.38500
12430552;-0.38000
12433330;-0.38000
12436108;-0.38500
12438885;-0.40000
12441663;-0.38500
12444441;-0.38000
12447219;-0.37500
12449997;-0.37500
12452774;-0.37500
12455552;-0.38000
12458330;-0.37500
12461108;-0.36500
12463885;-0.36000
12466663;-0.37000
12469441;-0.36500
12472219;-0.38000
12474997;-0.37500
12477774;-0.37500
12480552;-0.36000
12483330;-0.37000
12486108;-0.37000
12488885;-0.38500
12491663;-0.37500
12494441;-0.36500
12497219;-0.35500
12499996;-0.36000
12502774;-0.36000
12505552;-0.37000
12508330;-0.36500
12511108;-0.36000
12513885;-0.34500
12516663;-0.35000
12519441;-0.34500
12522219;-0.35000
12524996;-0.33500
12527774;-0.33000
12530552;-0.30000
12533330;-0.29000
12536108;-0.28500
12538885;-0.30000
12541663;-0.27000
12544441;-0.25000
12547219;-0.23000
12549996;-0.24000
12552774;-0.24000
12555552;-0.24000
12558330;-0.23500
12561108;-0.22500
12563885;-0.21500
12566663;-0.22000
12569441;-0.22500
12572219;-0.22500
12574996;-0.22500
12577774;-0.21500
12580552;-0.21000
12583330;-0.22000
12586108;-0.22000
12588885;-0.23500
12591663;-0.22500
12594441;-0.22000
12597219;-0.21000
12599996;-0.22500
12602774;-0.22000
12605552;-0.24000
12608330;-0.23500
12611108;-0.23500
12613885;-0.23000
12616663;-0.22500
12619441;-0.24000
12622219;-0.23500
12624996;-0.24000
12627774;-0.23500
12630552;-0.23000
12633330;-0.23500
12636108;-0.24500
12638885;-0.25000
12641663;-0.25000
12644441;-0.23000
12647219;-0.23000
12649996;-0.22000
12652774;-0.25000
12655552;-0.25000
12658330;-0.25500
12661108;-0.24500
12663885;-0.25500
12666663;-0.24500
12669441;-0.25000
12672219;-0.26500
12674996;-0.27000
12677774;-0.27500
12680552;-0.26000
12683330;-0.27000
12686108;-0.28000
12688885;-0.29000
12691663;-0.29500
12694441;-0.28000
12697219;-0.29500
12699996;-0.28500
12702774;-0.30000
12705552;-0.30000
12708330;-0.30000
12711108;-0.27500
12713885;-0.28000
12716663;-0.29500
12719441;-0.29000
12722219;-0.30500
12724996;-0.29500
12727774;-0.28500
12730552;-0.28000
12733330;-0.28500
12736108;-0.30000
12738885;-0.30000
12741663;-0.29500
12744441;-0.29000
12747219;-0.28500
12749996;-0.28500
12752774;-0.29500
12755552;-0.30500
12758330;-0.29500
12761108;-0.29500
12763885;-0.28000
12766663;-0.28500
12769441;-0.28500
12772219;-0.28500
12774996;-0.28000
12777774;-0.27500
12780552;-0.27000
12783330;-0.28000
12786108;-0.28000
12788885;-0.29500
12791663;-0.28500
12794441;-0.27000
12797219;-0.27500
12799996;-0.27500
12802774;-0.27500
12805552;-0.28500
12808330;-0.27000
12811108;-0.26000
12813885;-0.26000
12816663;-0.26000
12819441;-0.26500
12822219;-0.26000
12824996;-0.24500
12827774;-0.22000
12830552;-0.19500
12833330;-0.18500
12836108;-0.19000
12838885;-0.20500
12841663;-0.20000
12844441;-0.18000
12847219;-0.17000
12849996;-0.15500
12852774;-0.15500
12855552;-0.16000
12858330;-0.16000
12861108;-0.15500
12863885;-0.14500
12866663;-0.15500
12869441;-0.17500
12872219;-0.19500
12874996;-0.19500
12877774;-0.18500
12880552;-0.17500
12883330;-0.18500
12886108;-0.20500
12888885;-0.20000
12891663;-0.17500
12894441;-0.16500
12897219;-0.14500
12899996;-0.15000
12902774;-0.19000
12905552;-0.23000
12908330;-0.22500
12911107;-0.22500
12913885;-0.22000
12916663;-0.23500
12919441;-0.26000
12922219;-0.27000
12924996;-0.26000
12927774;-0.26500
12930552;-0.27000
12933330;-0.27500
12936107;-0.29000
12938885;-0.29500
12941663;-0.28000
12944441;-0.28500
12947219;-0.28000
12949996;-0.28500
12952774;-0.29000
12955552;-0.30500
12958330;-0.30500
12961107;-0.30500
12963885;-0.29000
12966663;-0.30500
12969441;-0.31500
12972219;-0.32000
12974996;-0.32000
12977774;-0.31000
12980552;-0.30000
12983330;-0.30000
12986107;-0.30500
12988885;-0.31500
12991663;-0.31000
12994441;-0.32000
12997219;-0.30000
12999996;-0.33000
13002774;-0.37500
13005552;-0.42500
13008330;-0.44000
13011107;-0.47000
13013885;-0.49500
13016663;-0.51500
13019441;-0.45500
13022219;-0.32500
13024996;-0.15500
13027774;0.01500
13030552;0.23500
13033330;0.49500
13036107;0.76500
13038885;0.98000
13041663;1.11000
13044441;1.11000
13047219;0.92000
13049996;0.51000
13052774;0.07500
13055552;-0.28000
13058330;-0.42000
13061107;-0.42000
13063885;-0.35000
13066663;-0.31000
13069441;-0.31000
13072219;-0.33000
13074996;-0.33000
13077774;-0.32500
13080552;-0.31000
13083330;-0.32000
13086107;-0.32500
13088885;-0.34500
13091663;-0.34500
13094441;-0.33000
13097219;-0.33000
13099996;-0.34000
13102774;-0.33000
13105552;-0.35500
13108330;-0.35000
13111107;-0.34000
13113885;-0.32500
13116663;-0.33000
13119441;-0.34000
13122219;-0.35500
13124996;-0.35500
13127774;-0.35500
13130552;-0.34000
13133330;-0.34000
13136107;-0.35500
13138885;-0.35000
13141663;-0.35500
13144441;-0.32500
13147219;-0.31500
13149996;-0.32500
13152774;-0.32500
13155552;-0.33500
13158330;-0.33500
13161107;-0.33500
13163885;-0.32500
13166663;-0.32500
13169441;-0.32500
13172219;-0.33500
13174996;-0.33500
13177774;-0.33000
13180552;-0.33500
13183330;-0.33000
13186107;-0.34000
13188885;-0.35000
13191663;-0.34000
13194441;-0.33000
13197219;-0.34500
13199996;-0.34000
13202774;-0.35000
13205552;-0.36500
13208330;-0.36000
13211107;-0.35000
13213885;-0.33500
13216663;-0.33000
13219441;-0.31500
13222219;-0.32500
13224996;-0.33000
13227774;-0.32000
13230552;-0.32000
13233330;-0.31500
13236107;-0.34000
13238885;-0.35500
13241663;-0.33500
13244441;-0.33500
13247219;-0.32500
13249996;-0.32500
13252774;-0.33000
13255552;-0.35000
13258330;-0.33500
13261107;-0.33500
13263885;-0.32500
13266663;-0.32500
13269441;-0.33000
13272219;-0.34000
13274996;-0.34500
13277774;-0.34500
13280552;-0.34000
13283330;-0.33500
13286107;-0.36500
13288885;-0.36000
13291663;-0.36000
13294441;-0.35500
13297218;-0.35000
13299996;-0.35500
13302774;-0.35500
13305552;-0.35000
13308330;-0.33500
13311107;-0.32000
13313885;-0.32000
13316663;-0.32000
13319441;-0.33000
13322218;-0.34000
13324996;-0.34000
13327774;-0.33000
13330552;-0.33000
13333330;-0.32500
13336107;-0.33000
13338885;-0.31500
13341663;-0.31000
13344441;-0.29500
13347218;-0.27500
13349996;-0.27500
13352774;-0.27000
13355552;-0.28500
13358330;-0.27000
13361107;-0.26500
13363885;-0.25500
13366663;-0.25000
13369441;-0.26000
13372218;-0.26500
13374996;-0.25000
13377774;-0.24000
13380552;-0.24000
13383330;-0.23500
13386107;-0.24000
13388885;-0.25500
13391663;-0.22500
13394441;-0.22000
13397218;-0.22000
13399996;-0.22000
13402774;-0.24000
13405552;-0.24500
13408330;-0.23500
13411107;-0.21500
13413885;-0.22500
13416663;-0.23000
13419441;-0.22500
13422218;-0.24000
13424996;-0.23500
13427774;-0.23500
13430552;-0.24500
13433330;-0.25000
13436107;-0.26500
13438885;-0.27000
13441663;-0.28000
13444441;-0.27000
13447218;-0.26500
13449996;-0.26500
13452774;-0.27000
13455552;-0.29500
13458330;-0.28500
13461107;-0.28500
13463885;-0.28000
13466663;-0.28000
13469441;-0.26500
13472218;-0.26500
13474996;-0.25500
13477774;-0.25500
13480552;-0.25500
13483330;-0.26500
13486107;-0.26500
13488885;-0.27500
13491663;-0.27500
13494441;-0.28000
13497218;-0.28000
13499996;-0.28500
13502774;-0.29500
13505552;-0.29000
13508330;-0.29500
13511107;-0.29500
13513885;-0.29500
13516663;-0.30000
13519441;-0.31000
13522218;-0.31000
13524996;-0.31500
13527774;-0.30500
13530552;-0.30500
13533330;-0.31000
13536107;-0.32000
13538885;-0.34500
13541663;-0.34000
13544441;-0.31000
13547218;-0.30500
13549996;-0.30000
13552774;-0.29500
13555552;-0.31000
13558330;-0.31500
13561107;-0.30500
13563885;-0.30500
13566663;-0.31500
13569441;-0.29500
13572218;-0.30500
13574996;-0.31000
13577774;-0.30500
13580552;-0.30000
13583330;-0.29000
13586107;-0.30000
13588885;-0.31000
13591663;-0.30500
13594441;-0.30000
13597218;-0.29000
13599996;-0.29500
13602774;-0.32000
13605552;-0.33000
13608330;-0.33500
13611107;-0.32000
13613885;-0.30500
13616663;-0.30000
13619441;-0.29500
13622218;-0.29000
13624996;-0.28000
13627774;-0.25500
13630552;-0.24000
13633330;-0.25000
13636107;-0.25500
13638885;-0.26500
13641663;-0.24000
13644441;-0.21500
13647218;-0.19500
13649996;-0.19000
13652774;-0.19500
13655552;-0.21500
13658330;-0.19500
13661107;-0.18500
13663885;-0.18000
13666663;-0.19500
13669441;-0.20500
13672218;-0.23000
13674996;-0.23500
13677774;-0.21500
13680552;-0.21000
13683330;-0.24000
13686107;-0.25000
13688885;-0.26000
13691663;-0.23000
13694441;-0.20500
13697218;-0.22000
13699996;-0.24500
13702774;-0.28500
13705552;-0.31000
13708329;-0.31500
13711107;-0.32000
13713885;-0.31500
13716663;-0.32500
13719441;-0.33500
13722218;-0.34500
13724996;-0.34500
13727774;-0.33000
13730552;-0.32000
13733329;-0.32500
13736107;-0.34000
13738885;-0.36000
13741663;-0.37000
13744441;-0.34500
13747218;-0.31500
13749996;-0.32000
13752774;-0.31500
13755552;-0.33000
13758329;-0.35500
13761107;-0.34000
13763885;-0.34000
13766663;-0.35000
13769441;-0.36000
13772218;-0.37500
13774996;-0.37000
13777774;-0.35500
13780552;-0.35500
13783329;-0.36000
13786107;-0.36000
13788885;-0.38000
13791663;-0.40000
13794441;-0.43000
13797218;-0.44500
13799996;-0.45500
13802774;-0.50000
13805552;-0.55000
13808329;-0.52000
13811107;-0.40500
13813885;-0.25000
13816663;-0.07500
13819441;0.16000
13822218;0.43000
13824996;0.71500
13827774;0.92000
13830552;0.99000
13833329;0.85500
13836107;0.50000
13838885;0.04500
13841663;-0.29500
13844441;-0.46000
13847218;-0.49000
13849996;-0.46500
13852774;-0.43000
13855552;-0.41500
13858329;-0.41500
13861107;-0.40500
13863885;-0.39500
13866663;-0.39000
13869441;-0.38500
13872218;-0.39500
13874996;-0.39000
13877774;-0.39000
13880552;-0.38000
13883329;-0.37500
13886107;-0.38000
13888885;-0.39000
13891663;-0.39500
13894441;-0.39000
13897218;-0.38500
13899996;-0.39500
13902774;-0.40000
13905552;-0.41500
13908329;-0.40000
13911107;-0.40000
13913885;-0.37500
13916663;-0.37000
13919441;-0.36500
13922218;-0.39000
13924996;-0.40500
13927774;-0.40500
13930552;-0.41000
13933329;-0.41500
13936107;-0.41500
13938885;-0.42500
13941663;-0.42500
13944441;-0.41500
13947218;-0.41000
13949996;-0.41000
13952774;-0.42000
13955552;-0.43000
13958329;-0.41000
13961107;-0.40500
13963885;-0.40500
13966663;-0.40500
13969441;-0.42000
13972218;-0.41500
13974996;-0.43000
13977774;-0.41500
13980552;-0.39500
13983329;-0.40000
13986107;-0.42000
13988885;-0.43000
13991663;-0.42000
13994441;-0.41500
13997218;-0.41500
13999996;-0.42000
14002774;-0.42000
14005552;-0.43000
14008329;-0.43000
14011107;-0.40500
14013885;-0.40000
14016663;-0.42000
14019441;-0.41000
14022218;-0.42000
14024996;-0.40500
14027774;-0.40500
14030552;-0.40500
14033329;-0.40500
14036107;-0.42500
14038885;-0.44500
14041663;-0.45500
14044441;-0.44000
14047218;-0.42000
14049996;-0.42500
14052774;-0.44000
14055552;-0.46000
14058329;-0.44500
14061107;-0.43500
14063885;-0.43500
14066663;-0.45500
14069441;-0.46500
14072218;-0.46500
14074996;-0.48000
14077774;-0.47000
14080552;-0.46500
14083329;-0.45500
14086107;-0.47000
14088885;-0.47000
14091663;-0.46000
14094440;-0.45500
14097218;-0.44500
14099996;-0.44000
14102774;-0.45500
14105552;-0.47500
14108329;-0.45500
14111107;-0.43000
14113885;-0.41000
14116663;-0.41000
14119440;-0.41500
14122218;-0.40500
14124996;-0.39000
14127774;-0.38500
14130552;-0.36500
14133329;-0.35000
14136107;-0.35000
14138885;-0.33500
14141663;-0.31500
14144440;-0.31000
14147218;-0.28500
14149996;-0.28500
14152774;-0.29500
14155552;-0.29500
14158329;-0.28500
14161107;-0.28500
14163885;-0.27500
14166663;-0.28500
14169440;-0.29000
14172218;-0.30000
14174996;-0.29500
14177774;-0.28000
14180552;-0.27500
14183329;-0.28000
14186107;-0.27500
14188885;-0.28500
14191663;-0.28500
14194440;-0.27500
14197218;-0.27000
14199996;-0.27000
14202774;-0.28500
14205552;-0.28000
14208329;-0.27500
14211107;-0.28000
14213885;-0.28500
14216663;-0.28000
14219440;-0.30500
14222218;-0.30500
14224996;-0.31500
14227774;-0.31000
14230552;-0.29500
14233329;-0.30000
14236107;-0.30000
14238885;-0.30500
14241663;-0.30500
14244440;-0.29500
14247218;-0.29500
14249996;-0.31000
14252774;-0.31500
14255552;-0.33000
14258329;-0.31500
14261107;-0.29500
14263885;-0.31500
14266663;-0.31500
14269440;-0.33000
14272218;-0.34000
14274996;-0.33000
14277774;-0.32500
14280552;-0.32500
14283329;-0.32000
14286107;-0.33000
14288885;-0.34000
14291663;-0.33500
14294440;-0.32500
14297218;-0.34000
14299996;-0.33000
14302774;-0.34500
14305552;-0.35000
14308329;-0.35000
14311107;-0.35500
14313885;-0.33000
14316663;-0.33500
14319440;-0.33500
14322218;-0.36000
14324996;-0.33500
14327774;-0.32500
14330552;-0.32000
14333329;-0.32500
14336107;-0.34000
14338885;-0.33500
14341663;-0.32500
14344440;-0.32500
14347218;-0.31500
14349996;-0.32000
14352774;-0.32000
14355552;-0.33000
14358329;-0.32000
14361107;-0.30500
14363885;-0.31000
14366663;-0.31000
14369440;-0.31000
14372218;-0.32500
14374996;-0.29500
14377774;-0.30000
14380552;-0.31000
14383329;-0.31000
14386107;-0.32500
14388885;-0.33000
14391663;-0.32500
14394440;-0.32000
14397218;-0.31500
14399996;-0.31000
14402774;-0.29000
14405552;-0.28000
14408329;-0.27000
14411107;-0.24500
14413885;-0.24000
14416663;-0.24000
14419440;-0.23500
14422218;-0.23000
14424996;-0.21000
14427774;-0.22500
14430552;-0.20500
14433329;-0.20000
14436107;-0.20000
14438885;-0.22500
14441663;-0.22000
14444440;-0.22500
14447218;-0.22500
14449996;-0.23000
14452774;-0.23500
14455552;-0.23500
14458329;-0.25000
14461107;-0.24500
14463885;-0.22500
14466663;-0.20500
14469440;-0.21000
14472218;-0.25000
14474996;-0.29000
14477774;-0.29000
14480552;-0.29000
14483329;-0.29500
14486107;-0.32000
14488885;-0.34000
14491663;-0.34500
14494440;-0.34000
14497218;-0.33000
14499996;-0.32000
14502774;-0.33000
14505551;-0.34500
14508329;-0.33000
14511107;-0.33000
14513885;-0.32000
14516663;-0.32000
14519440;-0.33000
14522218;-0.34500
14524996;-0.34000
14527774;-0.33500
14530551;-0.33500
14533329;-0.34500
14536107;-0.35500
14538885;-0.36000
14541663;-0.35500
14544440;-0.35000
14547218;-0.35500
14549996;-0.36500
14552774;-0.38500
14555551;-0.44500
14558329;-0.46000
14561107;-0.46500
14563885;-0.45500
14566663;-0.47500
14569440;-0.53500
14572218;-0.58000
14574996;-0.59000
14577774;-0.53000
14580551;-0.44500
14583329;-0.32000
14586107;-0.17000
14588885;-0.01000
14591663;0.22500
14594440;0.51500
14597218;0.82500
14599996;1.04000
14602774;1.11000
14605551;0.97500
14608329;0.60500
14611107;0.12000
14613885;-0.27000
14616663;-0.46000
14619440;-0.49000
14622218;-0.43500
14624996;-0.38000
14627774;-0.36500
14630551;-0.36500
14633329;-0.36500
14636107;-0.37000
14638885;-0.37500
14641663;-0.38000
14644440;-0.37000
14647218;-0.35000
14649996;-0.35500
14652774;-0.36000
14655551;-0.36500
14658329;-0.36500
14661107;-0.36000
14663885;-0.34500
14666663;-0.35500
14669440;-0.37000
14672218;-0.38000
14674996;-0.37000
14677774;-0.36500
14680551;-0.36000
14683329;-0.36000
14686107;-0.36500
14688885;-0.38500
14691663;-0.38000
14694440;-0.37500
14697218;-0.37000
14699996;-0.37000
14702774;-0.37500
14705551;-0.38000
14708329;-0.38500
14711107;-0.37000
14713885;-0.36000
14716663;-0.36500
14719440;-0.37500
14722218;-0.37000
14724996;-0.37000
14727774;-0.36500
14730551;-0.36000
14733329;-0.35000
14736107;-0.35500
14738885;-0.36500
14741663;-0.36500
14744440;-0.35500
14747218;-0.35000
14749996;-0.36000
14752774;-0.36500
14755551;-0.37000
14758329;-0.36500
14761107;-0.34500
14763885;-0.34000
14766663;-0.35500
14769440;-0.36500
14772218;-0.38000
14774996;-0.38000
14777774;-0.36500
14780551;-0.35500
14783329;-0.36500
14786107;-0.36000
14788885;-0.37000
14791663;-0.36500
14794440;-0.36000
14797218;-0.34500
14799996;-0.35000
14802774;-0.36000
14805551;-0.38000
14808329;-0.37000
14811107;-0.36000
14813885;-0.37000
14816663;-0.36500
14819440;-0.37500
14822218;-0.39000
14824996;-0.39000
14827774;-0.37500
14830551;-0.37500
14833329;-0.38000
14836107;-0.39500
14838885;-0.41000
14841663;-0.41500
14844440;-0.40000
14847218;-0.37500
14849996;-0.38500
14852774;-0.38000
14855551;-0.39000
14858329;-0.38500
14861107;-0.36000
14863885;-0.34000
14866663;-0.33500
14869440;-0.33500
14872218;-0.32500
14874996;-0.31500
14877774;-0.30500
14880551;-0.29500
14883329;-0.29000
14886107;-0.27500
14888885;-0.26000
14891662;-0.25000
14894440;-0.24500
14897218;-0.22500
14899996;-0.22500
14902774;-0.22000
14905551;-0.23500
14908329;-0.22000
14911107;-0.21000
14913885;-0.21000
14916662;-0.21000
14919440;-0.21000
14922218;-0.22500
14924996;-0.22500
14927774;-0.20500
14930551;-0.21000
14933329;-0.20500
14936107;-0.21500
14938885;-0.22500
14941662;-0.21500
14944440;-0.22000
14947218;-0.20500
14949996;-0.20500
14952774;-0.20500
14955551;-0.21500
14958329;-0.21500
14961107;-0.20500
14963885;-0.20500
14966662;-0.20000
14969440;-0.21000
14972218;-0.24000
14974996;-0.21000
14977774;-0.21000
14980551;-0.20000
14983329;-0.20500
14986107;-0.22500
14988885;-0.22500
14991662;-0.23000
14994440;-0.21500
14997218;-0.21500
14999996;-0.22000
15002774;-0.24000
15005551;-0.24500
15008329;-0.24000
15011107;-0.23500
15013885;-0.22500
15016662;-0.23000
15019440;-0.25500
15022218;-0.25500
15024996;-0.25500
15027774;-0.24000
15030551;-0.22500
15033329;-0.24500
15036107;-0.25500
15038885;-0.25000
15041662;-0.25500
15044440;-0.23500
15047218;-0.24500
15049996;-0.24000
15052774;-0.25500
15055551;-0.26500
15058329;-0.26500
15061107;-0.25000
15063885;-0.24500
15066662;-0.24500
15069440;-0.25000
15072218;-0.26500
15074996;-0.26000
15077774;-0.26000
15080551;-0.25000
15083329;-0.26000
15086107;-0.27000
15088885;-0.27500
15091662;-0.26500
15094440;-0.26000
15097218;-0.25500
15099996;-0.25500
15102774;-0.25500
15105551;-0.25500
15108329;-0.24500
15111107;-0.24500
15113885;-0.23500
15116662;-0.24500
15119440;-0.25500
15122218;-0.26000
15124996;-0.25500
15127774;-0.25000
15130551;-0.24000
15133329;-0.25000
15136107;-0.25000
15138885;-0.26000
15141662;-0.26000
15144440;-0.25000
15147218;-0.24500
15149996;-0.24000
15152774;-0.24500
15155551;-0.23500
15158329;-0.22500
15161107;-0.20000
15163885;-0.17500
15166662;-0.17500
15169440;-0.16500
15172218;-0.17500
15174996;-0.16500
15177774;-0.15500
15180551;-0.13500
15183329;-0.12000
15186107;-0.14500
15188885;-0.15500
15191662;-0.14000
15194440;-0.11500
15197218;-0.10500
15199996;-0.13500
15202774;-0.13000
15205551;-0.14000
15208329;-0.14000
15211107;-0.14000
15213885;-0.14000
15216662;-0.14500
15219440;-0.16000
15222218;-0.15500
15224996;-0.16500
15227774;-0.16500
15230551;-0.15500
15233329;-0.14500
15236107;-0.13000
15238885;-0.14500
15241662;-0.17000
15244440;-0.19000
15247218;-0.19500
15249996;-0.19500
15252774;-0.20500
15255551;-0.24000
15258329;-0.24500
15261107;-0.24500
15263885;-0.24000
15266662;-0.24500
15269440;-0.25500
15272218;-0.27000
15274996;-0.25500
15277774;-0.26000
15280551;-0.25500
15283329;-0.25500
15286107;-0.26000
15288885;-0.28500
15291662;-0.27000
15294440;-0.25500
15297218;-0.24500
15299996;-0.26500
15302773;-0.27000
15305551;-0.27500
15308329;-0.29500
15311107;-0.27500
15313885;-0.26000
15316662;-0.27000
15319440;-0.29500
15322218;-0.33500
15324996;-0.35500
15327773;-0.39000
15330551;-0.41000
15333329;-0.44500
15336107;-0.49500
15338885;-0.53000
15341662;-0.50000
15344440;-0.43500
15347218;-0.34000
15349996;-0.22500
15352773;-0.09500
15355551;0.03000
15358329;0.18500
15361107;0.39500
15363885;0.67000
15366662;0.93500
15369440;1.13000
15372218;1.22500
15374996;1.18000
15377773;0.92500
15380551;0.45500
15383329;-0.03500
15386107;-0.33000
15388885;-0.39500
15391662;-0.33500
15394440;-0.27500
15397218;-0.25500
15399996;-0.26500
15402773;-0.28500
15405551;-0.30500
15408329;-0.29500
15411107;-0.29000
15413885;-0.28500
15416662;-0.30000
15419440;-0.32000
15422218;-0.33000
15424996;-0.33000
15427773;-0.33000
15430551;-0.31500
15433329;-0.32000
15436107;-0.32000
15438885;-0.34000
15441662;-0.32500
15444440;-0.31500
15447218;-0.30500
15449996;-0.31500
15452773;-0.32500
15455551;-0.34000
15458329;-0.32000
15461107;-0.31500
15463885;-0.32000
15466662;-0.32000
15469440;-0.33000
15472218;-0.33500
15474996;-0.32500
15477773;-0.31500
15480551;-0.31000
15483329;-0.31000
15486107;-0.32000
15488885;-0.33000
15491662;-0.33000
15494440;-0.32000
15497218;-0.31500
15499996;-0.32000
15502773;-0.32000
15505551;-0.33500
15508329;-0.34000
15511107;-0.32500
15513885;-0.31500
15516662;-0.30500
15519440;-0.31500
15522218;-0.33500
15524996;-0.32000
15527773;-0.31000
15530551;-0.31500
15533329;-0.31500
15536107;-0.32500
15538885;-0.33000
15541662;-0.33000
15544440;-0.31000
15547218;-0.30500
15549996;-0.31000
15552773;-0.32000
15555551;-0.33500
15558329;-0.32000
15561107;-0.32000
15563885;-0.31000
15566662;-0.31000
15569440;-0.32500
15572218;-0.33000
15574996;-0.32500
15577773;-0.33000
15580551;-0.32500
15583329;-0.32000
15586107;-0.32500
15588885;-0.34000
15591662;-0.33500
15594440;-0.33500
15597218;-0.33000
15599996;-0.33500
15602773;-0.34000
15605551;-0.35000
15608329;-0.34500
15611107;-0.34000
15613885;-0.33000
15616662;-0.33000
15619440;-0.32500
15622218;-0.35000
15624996;-0.32500
15627773;-0.31500
15630551;-0.32000
15633329;-0.31500
15636107;-0.32000
15638885;-0.33000
15641662;-0.32000
15644440;-0.33000
15647218;-0.30500
15649996;-0.30000
15652773;-0.29500
15655551;-0.31500
15658329;-0.29500
15661107;-0.27500
15663885;-0.26000
15666662;-0.25000
15669440;-0.24000
15672218;-0.25000
15674996;-0.23000
15677773;-0.20000
15680551;-0.20000
15683329;-0.19500
15686107;-0.19500
15688884;-0.20500
15691662;-0.19500
15694440;-0.19000
15697218;-0.18000
15699996;-0.17500
15702773;-0.18000
15705551;-0.19000
15708329;-0.20000
15711107;-0.18500
15713884;-0.18000
15716662;-0.18000
15719440;-0.18500
15722218;-0.21000
15724996;-0.19500
15727773;-0.19500
15730551;-0.19000
15733329;-0.20500
15736107;-0.21000
15738884;-0.20500
15741662;-0.21000
15744440;-0.20500
15747218;-0.19000
15749996;-0.20500
15752773;-0.21500
15755551;-0.21000
15758329;-0.20500
15761107;-0.20000
15763884;-0.19500
15766662;-0.20000
15769440;-0.20500
15772218;-0.22500
15774996;-0.21000
15777773;-0.21000
15780551;-0.20500
15783329;-0.21000
15786107;-0.21000
15788884;-0.23000
15791662;-0.21500
15794440;-0.22500
15797218;-0.22000
15799996;-0.23000
15802773;-0.22500
15805551;-0.25000
15808329;-0.25500
15811107;-0.24500
15813884;-0.23500
15816662;-0.25000
15819440;-0.26000
15822218;-0.24500
15824996;-0.25500
15827773;-0.25000
15830551;-0.25500
15833329;-0.24000
15836107;-0.23500
15838884;-0.24500
15841662;-0.24500
15844440;-0.23500
15847218;-0.24000
15849996;-0.23000
15852773;-0.23500
15855551;-0.26000
15858329;-0.24500
15861107;-0.24000
15863884;-0.23500
15866662;-0.24000
15869440;-0.24500
15872218;-0.25500
15874996;-0.25500
15877773;-0.24500
15880551;-0.23500
15883329;-0.25000
15886107;-0.26000
15888884;-0.27000
15891662;-0.26000
15894440;-0.25500
15897218;-0.26000
15899996;-0.25000
15902773;-0.25000
15905551;-0.26000
15908329;-0.25500
15911107;-0.24000
15913884;-0.23000
15916662;-0.23500
15919440;-0.25000
15922218;-0.25000
15924996;-0.24500
15927773;-0.23500
15930551;-0.23500
15933329;-0.24000
15936107;-0.24000
15938884;-0.25000
15941662;-0.25500
15944440;-0.23500
15947218;-0.23000
15949996;-0.23000
15952773;-0.24000
15955551;-0.23000
15958329;-0.22500
15961107;-0.21000
15963884;-0.19000
15966662;-0.19000
15969440;-0.19000
15972218;-0.19000
15974996;-0.18500
15977773;-0.18000
15980551;-0.17000
15983329;-0.16000
15986107;-0.16500
15988884;-0.16000
15991662;-0.15500
15994440;-0.13500
15997218;-0.12000
15999996;-0.13000
16002773;-0.13500
16005551;-0.15000
16008329;-0.14500
16011107;-0.15500
16013884;-0.15000
16016662;-0.16000
16019440;-0.15500
16022218;-0.15500
16024996;-0.15500
16027773;-0.14000
16030551;-0.16000
16033329;-0.15500
16036107;-0.16000
16038884;-0.15500
16041662;-0.13000
16044440;-0.11000
16047218;-0.12000
16049996;-0.15500
16052773;-0.18000
16055551;-0.21000
16058329;-0.22500
16061107;-0.22000
16063884;-0.23500
16066662;-0.26500
16069440;-0.26000
16072218;-0.28000
16074995;-0.28500
16077773;-0.27500
16080551;-0.26500
16083329;-0.26000
16086107;-0.27500
16088884;-0.27500
16091662;-0.28000
16094440;-0.28000
16097218;-0.28000
16099995;-0.27000
16102773;-0.28000
16105551;-0.29000
16108329;-0.29000
16111107;-0.29000
16113884;-0.27500
16116662;-0.29500
16119440;-0.29000
16122218;-0.29500
16124995;-0.29000
16127773;-0.29000
16130551;-0.29500
16133329;-0.29000
16136107;-0.32000
16138884;-0.37000
16141662;-0.40500
16144440;-0.42000
16147218;-0.43000
16149995;-0.47500
16152773;-0.52000
16155551;-0.50000
16158329;-0.41500
16161107;-0.29500
16163884;-0.15500
16166662;-0.05500
16169440;0.05500
16172218;0.18500
16174995;0.39000
16177773;0.65500
16180551;0.91000
16183329;1.09500
16186107;1.20500
