time_ms;ecg_value
0;1.22500
2778;1.30000
5556;1.25000
8333;1.06500
11111;0.74500
13889;0.39000
16667;0.05500
19444;-0.19000
22222;-0.34500
25000;-0.41000
27778;-0.39000
30556;-0.35000
33333;-0.30000
36111;-0.27500
38889;-0.26500
41667;-0.28000
44444;-0.30000
47222;-0.28000
50000;-0.28000
52778;-0.27000
55556;-0.27500
58333;-0.28500
61111;-0.30500
63889;-0.29500
66667;-0.29000
69444;-0.29000
72222;-0.29500
75000;-0.29000
77778;-0.30500
80556;-0.31500
83333;-0.29000
86111;-0.29000
88889;-0.29000
91667;-0.30000
94444;-0.30000
97222;-0.32000
100000;-0.30500
102778;-0.32000
105556;-0.30000
108333;-0.30500
111111;-0.31500
113889;-0.30000
116667;-0.30500
119444;-0.29000
122222;-0.29000
125000;-0.30000
127778;-0.31500
130556;-0.30500
133333;-0.30000
136111;-0.29500
138889;-0.29500
141667;-0.30500
144444;-0.31500
147222;-0.31500
150000;-0.31500
152778;-0.29000
155556;-0.29500
158333;-0.29500
161111;-0.32000
163889;-0.30500
166667;-0.30500
169444;-0.30000
172222;-0.30500
175000;-0.31000
177778;-0.32000
180556;-0.31000
183333;-0.31000
186111;-0.30000
188889;-0.29000
191667;-0.31500
194444;-0.31000
197222;-0.30500
200000;-0.29500
202778;-0.29500
205555;-0.30500
208333;-0.31000
211111;-0.31000
213889;-0.31500
216667;-0.31000
219444;-0.30000
222222;-0.29500
225000;-0.30000
227778;-0.31000
230555;-0.31000
233333;-0.30000
236111;-0.28500
238889;-0.29000
241667;-0.31500
244444;-0.31500
247222;-0.32000
250000;-0.31500
252778;-0.31000
255555;-0.31000
258333;-0.33000
261111;-0.33000
263889;-0.32500
266667;-0.32500
269444;-0.33500
272222;-0.32500
275000;-0.33000
277778;-0.33000
280555;-0.34500
283333;-0.32000
286111;-0.31500
288889;-0.30500
291667;-0.32000
294444;-0.32000
297222;-0.31500
300000;-0.30000
302778;-0.28000
305555;-0.27500
308333;-0.27000
311111;-0.26500
313889;-0.26000
316667;-0.23500
319444;-0.22000
322222;-0.21000
325000;-0.21000
327778;-0.21500
330555;-0.21000
333333;-0.19000
336111;-0.17000
338889;-0.17500
341667;-0.18000
344444;-0.18000
347222;-0.17000
350000;-0.16500
352778;-0.17000
355555;-0.16000
358333;-0.17500
361111;-0.18500
363889;-0.19000
366667;-0.17000
369444;-0.16500
372222;-0.16500
375000;-0.17000
377778;-0.18500
380555;-0.18000
383333;-0.16500
386111;-0.16500
388889;-0.15500
391667;-0.17500
394444;-0.18000
397222;-0.17500
400000;-0.17000
402778;-0.17000
405555;-0.17000
408333;-0.18000
411111;-0.19000
413889;-0.19000
416667;-0.17500
419444;-0.16000
422222;-0.17000
425000;-0.17000
427778;-0.19000
430555;-0.18500
433333;-0.18500
436111;-0.17000
438889;-0.18000
441667;-0.18500
444444;-0.20000
447222;-0.20000
450000;-0.19500
452778;-0.18000
455555;-0.18500
458333;-0.20000
461111;-0.20000
463889;-0.21000
466667;-0.20000
469444;-0.18500
472222;-0.21000
475000;-0.21000
477778;-0.22500
480555;-0.21500
483333;-0.22000
486111;-0.20500
488889;-0.21000
491667;-0.21000
494444;-0.22000
497222;-0.22000
500000;-0.22000
502778;-0.20500
505555;-0.21000
508333;-0.21500
511111;-0.22500
513889;-0.22500
516667;-0.21000
519444;-0.21500
522222;-0.21500
525000;-0.22500
527778;-0.23500
530555;-0.22500
533333;-0.21500
536111;-0.21500
538889;-0.21500
541667;-0.22000
544444;-0.22000
547222;-0.22000
550000;-0.21000
552778;-0.20000
555555;-0.21000
558333;-0.22500
561111;-0.24000
563889;-0.23500
566667;-0.21500
569444;-0.19500
572222;-0.19500
575000;-0.21000
577778;-0.21500
580555;-0.21500
583333;-0.20000
586111;-0.19500
588889;-0.20500
591667;-0.21500
594444;-0.22000
597222;-0.21000
600000;-0.21000
602778;-0.18500
605555;-0.18500
608333;-0.18000
611111;-0.19500
613889;-0.17500
616666;-0.15000
619444;-0.14000
622222;-0.14500
625000;-0.15000
627778;-0.14500
630555;-0.14500
633333;-0.14000
636111;-0.12500
638889;-0.12500
641666;-0.13500
644444;-0.14500
647222;-0.13000
650000;-0.11500
652778;-0.09500
655555;-0.09000
658333;-0.10000
661111;-0.10500
663889;-0.10500
666666;-0.10500
669444;-0.11000
672222;-0.10000
675000;-0.12000
677778;-0.13000
680555;-0.13000
683333;-0.11500
686111;-0.11500
688889;-0.12000
691666;-0.13000
694444;-0.12000
697222;-0.09000
700000;-0.09000
702778;-0.10500
705555;-0.13500
708333;-0.16000
711111;-0.17500
713889;-0.19000
716666;-0.19500
719444;-0.19500
722222;-0.21000
725000;-0.24000
727778;-0.24000
730555;-0.23000
733333;-0.21500
736111;-0.21500
738889;-0.21000
741666;-0.23000
744444;-0.24000
747222;-0.23500
750000;-0.22500
752778;-0.23500
755555;-0.22500
758333;-0.24000
761111;-0.24500
763889;-0.24000
766666;-0.23000
769444;-0.22500
772222;-0.23000
775000;-0.24500
777778;-0.24500
780555;-0.24500
783333;-0.24500
786111;-0.23500
788889;-0.24000
791666;-0.26000
794444;-0.30000
797222;-0.34000
800000;-0.36500
802778;-0.37500
805555;-0.40000
808333;-0.45000
811111;-0.45000
813889;-0.37000
816666;-0.22500
819444;-0.06000
822222;0.12000
825000;0.30500
827778;0.55000
830555;0.82000
833333;1.03500
836111;1.15500
838889;1.14500
841666;0.99000
844444;0.62500
847222;0.16000
850000;-0.19500
852778;-0.34000
855555;-0.34500
858333;-0.30500
861111;-0.27000
863889;-0.25500
866666;-0.25500
869444;-0.25500
872222;-0.26000
875000;-0.25500
877778;-0.27000
880555;-0.27000
883333;-0.27000
886111;-0.25000
888889;-0.26500
891666;-0.26500
894444;-0.27000
897222;-0.27000
900000;-0.27000
902778;-0.26500
905555;-0.26000
908333;-0.27000
911111;-0.30500
913889;-0.29500
916666;-0.28000
919444;-0.27000
922222;-0.27500
925000;-0.27500
927778;-0.28000
930555;-0.28500
933333;-0.27500
936111;-0.27000
938889;-0.27500
941666;-0.28000
944444;-0.28000
947222;-0.27000
950000;-0.27000
952778;-0.27000
955555;-0.27000
958333;-0.28000
961111;-0.28500
963889;-0.28000
966666;-0.28500
969444;-0.27000
972222;-0.27000
975000;-0.27500
977778;-0.28500
980555;-0.28500
983333;-0.27000
986111;-0.27000
988889;-0.27500
991666;-0.27000
994444;-0.28500
997222;-0.28000
1000000;-0.26500
1002777;-0.26500
1005555;-0.26500
1008333;-0.27500
1011111;-0.27500
1013889;-0.27500
1016666;-0.28000
1019444;-0.26000
1022222;-0.27000
1025000;-0.28000
1027777;-0.29500
1030555;-0.28500
1033333;-0.27500
1036111;-0.27500
1038889;-0.26500
1041666;-0.27000
1044444;-0.29500
1047222;-0.28000
1050000;-0.28000
1052777;-0.27000
1055555;-0.28000
1058333;-0.29000
1061111;-0.31000
1063889;-0.30000
1066666;-0.29000
1069444;-0.28000
1072222;-0.27000
1075000;-0.28500
1077777;-0.30500
1080555;-0.30000
1083333;-0.28500
1086111;-0.27500
1088889;-0.27500
1091666;-0.29500
1094444;-0.30500
1097222;-0.30000
1100000;-0.29000
1102777;-0.28000
1105555;-0.29500
1108333;-0.28000
1111111;-0.29500
1113889;-0.29000
1116666;-0.28000
1119444;-0.26000
1122222;-0.26000
1125000;-0.25000
1127777;-0.25000
1130555;-0.24500
1133333;-0.22500
1136111;-0.21500
1138889;-0.20000
1141666;-0.20500
1144444;-0.20000
1147222;-0.19500
1150000;-0.17500
1152777;-0.17000
1155555;-0.16000
1158333;-0.16000
1161111;-0.17500
1163889;-0.18000
1166666;-0.16500
1169444;-0.15500
1172222;-0.15500
1175000;-0.15500
1177777;-0.16500
1180555;-0.17000
1183333;-0.16000
1186111;-0.15000
1188889;-0.15000
1191666;-0.16000
1194444;-0.16500
1197222;-0.16500
1200000;-0.16000
1202777;-0.15500
1205555;-0.16000
1208333;-0.16500
1211111;-0.17500
1213889;-0.17500
1216666;-0.16500
1219444;-0.16000
1222222;-0.18000
1225000;-0.18000
1227777;-0.18500
1230555;-0.18000
1233333;-0.17500
1236111;-0.17500
1238889;-0.17500
1241666;-0.18500
1244444;-0.19000
1247222;-0.18000
1250000;-0.18500
1252777;-0.17000
1255555;-0.18000
1258333;-0.19000
1261111;-0.20500
1263889;-0.20500
1266666;-0.19000
1269444;-0.19000
1272222;-0.20500
1275000;-0.19500
1277777;-0.21000
1280555;-0.21500
1283333;-0.20500
1286111;-0.21000
1288889;-0.21000
1291666;-0.21500
1294444;-0.23500
1297222;-0.23000
1300000;-0.22000
1302777;-0.21500
1305555;-0.22000
1308333;-0.22000
1311111;-0.24500
1313889;-0.23500
1316666;-0.23000
1319444;-0.21500
1322222;-0.22000
1325000;-0.23500
1327777;-0.24000
1330555;-0.23500
1333333;-0.23500
1336111;-0.22500
1338889;-0.22000
1341666;-0.23000
1344444;-0.23500
1347222;-0.23500
1350000;-0.23000
1352777;-0.22000
1355555;-0.22500
1358333;-0.23000
1361111;-0.23500
1363889;-0.24000
1366666;-0.22500
1369444;-0.21500
1372222;-0.22000
1375000;-0.23000
1377777;-0.24500
1380555;-0.22500
1383333;-0.22500
1386111;-0.21500
1388888;-0.21000
1391666;-0.22000
1394444;-0.22500
1397222;-0.22000
1400000;-0.21000
1402777;-0.19500
1405555;-0.20000
1408333;-0.22000
1411111;-0.20500
1413888;-0.19500
1416666;-0.17500
1419444;-0.15500
1422222;-0.15000
1425000;-0.15500
1427777;-0.17000
1430555;-0.15500
1433333;-0.16000
1436111;-0.14500
1438888;-0.14500
1441666;-0.13500
1444444;-0.15000
1447222;-0.13000
1450000;-0.12000
1452777;-0.11500
1455555;-0.10500
1458333;-0.11500
1461111;-0.12000
1463888;-0.12000
1466666;-0.12000
1469444;-0.11000
1472222;-0.12000
1475000;-0.12500
1477777;-0.14000
1480555;-0.13500
1483333;-0.13500
1486111;-0.13000
1488888;-0.14500
1491666;-0.13500
1494444;-0.12500
1497222;-0.10000
1500000;-0.09500
1502777;-0.12000
1505555;-0.14500
1508333;-0.17500
1511111;-0.20500
1513888;-0.20000
1516666;-0.21000
1519444;-0.22000
1522222;-0.22000
1525000;-0.23500
1527777;-0.24500
1530555;-0.23000
1533333;-0.23000
1536111;-0.22000
1538888;-0.22000
1541666;-0.23500
1544444;-0.24500
1547222;-0.25000
1550000;-0.23500
1552777;-0.23500
1555555;-0.24500
1558333;-0.25500
1561111;-0.25000
1563888;-0.25000
1566666;-0.23500
1569444;-0.22500
1572222;-0.23500
1575000;-0.24000
1577777;-0.24000
1580555;-0.26000
1583333;-0.25000
1586111;-0.23500
1588888;-0.23500
1591666;-0.24000
1594444;-0.24000
1597222;-0.26000
1600000;-0.27000
1602777;-0.30000
1605555;-0.34500
1608333;-0.36500
1611111;-0.40000
1613888;-0.43000
1616666;-0.44000
1619444;-0.39500
1622222;-0.26500
1625000;-0.11500
1627777;0.04500
1630555;0.26500
1633333;0.53500
1636111;0.80000
1638888;0.98500
1641666;1.05000
1644444;0.96000
1647222;0.68500
1650000;0.27500
1652777;-0.09500
1655555;-0.32500
1658333;-0.36000
1661111;-0.34500
1663888;-0.28500
1666666;-0.25500
1669444;-0.25500
1672222;-0.24500
1675000;-0.24000
1677777;-0.25000
1680555;-0.25000
1683333;-0.24500
1686111;-0.24500
1688888;-0.25500
1691666;-0.25500
1694444;-0.26500
1697222;-0.26000
1700000;-0.25000
1702777;-0.25500
1705555;-0.25000
1708333;-0.24000
1711111;-0.25000
1713888;-0.25000
1716666;-0.24500
1719444;-0.24500
1722222;-0.24500
1725000;-0.26000
1727777;-0.28000
1730555;-0.27500
1733333;-0.27000
1736111;-0.27000
1738888;-0.27500
1741666;-0.27000
1744444;-0.27000
1747222;-0.26500
1750000;-0.24500
1752777;-0.24500
1755555;-0.26000
1758333;-0.27000
1761111;-0.28000
1763888;-0.27500
1766666;-0.27000
1769444;-0.24500
1772222;-0.24000
1775000;-0.25500
1777777;-0.26500
1780555;-0.25000
1783333;-0.25000
1786111;-0.25500
1788888;-0.25500
1791666;-0.26500
1794444;-0.27000
1797222;-0.27000
1799999;-0.28000
1802777;-0.26500
1805555;-0.26000
1808333;-0.26000
1811111;-0.27500
1813888;-0.27000
1816666;-0.26500
1819444;-0.26000
1822222;-0.26000
1824999;-0.25500
1827777;-0.28000
1830555;-0.27000
1833333;-0.27000
1836111;-0.26000
1838888;-0.26000
1841666;-0.25500
1844444;-0.27500
1847222;-0.27500
1849999;-0.26500
1852777;-0.26000
1855555;-0.27000
1858333;-0.27000
1861111;-0.27500
1863888;-0.27500
1866666;-0.27000
1869444;-0.26000
1872222;-0.26000
1874999;-0.28000
1877777;-0.28000
1880555;-0.28000
1883333;-0.26500
1886111;-0.25500
1888888;-0.26500
1891666;-0.28000
1894444;-0.30500
1897222;-0.30000
1899999;-0.28500
1902777;-0.28000
1905555;-0.28000
1908333;-0.28500
1911111;-0.29000
1913888;-0.29000
1916666;-0.27500
1919444;-0.26500
1922222;-0.25500
1924999;-0.25500
1927777;-0.25500
1930555;-0.25500
1933333;-0.23500
1936111;-0.22500
1938888;-0.21000
1941666;-0.21500
1944444;-0.21500
1947222;-0.20500
1949999;-0.19000
1952777;-0.19000
1955555;-0.17500
1958333;-0.18500
1961111;-0.18000
1963888;-0.18500
1966666;-0.17500
1969444;-0.16000
1972222;-0.16000
1974999;-0.16500
1977777;-0.19000
1980555;-0.18500
1983333;-0.18000
1986111;-0.16000
1988888;-0.15000
1991666;-0.15500
1994444;-0.18000
1997222;-0.18000
1999999;-0.17500
2002777;-0.16000
2005555;-0.15500
2008333;-0.18000
2011111;-0.18500
2013888;-0.17500
2016666;-0.17000
2019444;-0.15500
2022222;-0.16000
2024999;-0.18000
2027777;-0.19500
2030555;-0.20000
2033333;-0.19000
2036111;-0.18000
2038888;-0.17500
2041666;-0.17000
2044444;-0.19500
2047222;-0.20000
2049999;-0.20000
2052777;-0.19500
2055555;-0.19500
2058333;-0.18500
2061111;-0.20500
2063888;-0.22000
2066666;-0.20000
2069444;-0.20000
2072222;-0.19500
2074999;-0.20000
2077777;-0.20500
2080555;-0.21500
2083333;-0.20000
2086111;-0.19000
2088888;-0.19500
2091666;-0.21500
2094444;-0.21500
2097222;-0.23000
2099999;-0.22000
2102777;-0.20500
2105555;-0.21500
2108333;-0.23500
2111111;-0.26000
2113888;-0.25500
2116666;-0.24500
2119444;-0.23500
2122222;-0.24000
2124999;-0.24500
2127777;-0.25000
2130555;-0.24000
2133333;-0.23500
2136111;-0.24000
2138888;-0.23000
2141666;-0.23000
2144444;-0.25000
2147222;-0.24500
2149999;-0.23000
2152777;-0.22500
2155555;-0.21500
2158333;-0.23500
2161111;-0.26500
2163888;-0.24500
2166666;-0.24000
2169444;-0.22000
2172222;-0.21000
2174999;-0.22000
2177777;-0.23000
2180555;-0.23500
2183333;-0.22500
2186110;-0.24000
2188888;-0.24000
2191666;-0.24000
2194444;-0.25000
2197222;-0.25000
2199999;-0.24000
2202777;-0.23000
2205555;-0.23000
2208333;-0.22000
2211110;-0.22000
2213888;-0.20000
2216666;-0.18500
2219444;-0.18500
2222222;-0.17500
2224999;-0.17500
2227777;-0.19000
2230555;-0.17000
2233333;-0.15500
2236110;-0.12500
2238888;-0.12500
2241666;-0.14000
2244444;-0.15000
2247222;-0.15000
2249999;-0.13500
2252777;-0.13500
2255555;-0.14000
2258333;-0.14000
2261110;-0.15000
2263888;-0.15000
2266666;-0.16000
2269444;-0.15500
2272222;-0.16000
2274999;-0.16500
2277777;-0.16500
2280555;-0.14000
2283333;-0.12500
2286110;-0.11000
2288888;-0.13500
2291666;-0.17500
2294444;-0.19500
2297222;-0.21000
2299999;-0.21000
2302777;-0.19500
2305555;-0.21500
2308333;-0.23000
2311110;-0.26000
2313888;-0.25500
2316666;-0.24500
2319444;-0.25000
2322222;-0.26000
2324999;-0.26500
2327777;-0.27500
2330555;-0.27500
2333333;-0.27000
2336110;-0.26000
2338888;-0.26500
2341666;-0.27500
2344444;-0.29000
2347222;-0.29000
2349999;-0.28000
2352777;-0.27500
2355555;-0.27000
2358333;-0.28500
2361110;-0.30500
2363888;-0.30500
2366666;-0.29000
2369444;-0.28000
2372222;-0.28000
2374999;-0.27500
2377777;-0.28500
2380555;-0.29500
2383333;-0.30500
2386110;-0.33500
2388888;-0.36500
2391666;-0.38500
2394444;-0.42000
2397222;-0.48000
2399999;-0.49000
2402777;-0.43500
2405555;-0.32000
2408333;-0.19500
2411110;-0.06500
2413888;0.08000
2416666;0.26000
2419444;0.49500
2422222;0.72000
2424999;0.89000
2427777;0.98500
2430555;0.98500
2433333;0.81500
2436110;0.49500
2438888;0.10000
2441666;-0.21000
2444444;-0.36000
2447222;-0.40000
2449999;-0.39500
2452777;-0.36000
2455555;-0.32000
2458333;-0.31500
2461110;-0.32500
2463888;-0.33500
2466666;-0.32000
2469444;-0.30500
2472222;-0.29000
2474999;-0.30500
2477777;-0.32500
2480555;-0.32500
2483333;-0.31000
2486110;-0.29500
2488888;-0.29000
2491666;-0.29000
2494444;-0.31000
2497222;-0.31500
2499999;-0.32000
2502777;-0.31000
2505555;-0.31000
2508333;-0.32500
2511110;-0.33500
2513888;-0.33000
2516666;-0.33000
2519444;-0.31500
2522222;-0.31000
2524999;-0.32500
2527777;-0.33500
2530555;-0.34500
2533333;-0.33500
2536110;-0.31000
2538888;-0.29000
2541666;-0.29000
2544444;-0.31500
2547222;-0.33000
2549999;-0.32500
2552777;-0.31000
2555555;-0.30000
2558333;-0.32000
2561110;-0.34000
2563888;-0.34000
2566666;-0.33500
2569444;-0.32500
2572222;-0.32000
2574999;-0.33000
2577777;-0.35000
2580555;-0.35500
2583333;-0.34000
2586110;-0.32500
2588888;-0.32000
2591666;-0.33500
2594444;-0.34000
2597221;-0.34500
2599999;-0.34000
2602777;-0.33000
2605555;-0.33500
2608333;-0.34000
2611110;-0.36000
2613888;-0.35000
2616666;-0.32500
2619444;-0.30500
2622221;-0.30000
2624999;-0.31500
2627777;-0.34500
2630555;-0.35000
2633333;-0.33500
2636110;-0.32000
2638888;-0.33000
2641666;-0.34000
2644444;-0.34500
2647221;-0.36000
2649999;-0.36000
2652777;-0.35000
2655555;-0.35500
2658333;-0.36500
2661110;-0.36500
2663888;-0.37500
2666666;-0.38000
2669444;-0.36500
2672221;-0.38000
2674999;-0.39500
2677777;-0.40000
2680555;-0.40000
2683333;-0.40000
2686110;-0.38500
2688888;-0.39000
2691666;-0.39000
2694444;-0.41000
2697221;-0.40500
2699999;-0.40500
2702777;-0.38500
2705555;-0.38500
2708333;-0.39000
2711110;-0.38500
2713888;-0.38000
2716666;-0.36500
2719444;-0.34000
2722221;-0.33000
2724999;-0.34000
2727777;-0.35500
2730555;-0.33000
2733333;-0.31000
2736110;-0.29500
2738888;-0.28500
2741666;-0.29000
2744444;-0.28500
2747221;-0.26500
2749999;-0.26000
2752777;-0.23500
2755555;-0.22500
2758333;-0.23500
2761110;-0.23500
2763888;-0.23500
2766666;-0.22500
2769444;-0.22000
2772221;-0.21500
2774999;-0.22000
2777777;-0.23000
2780555;-0.23000
2783333;-0.22500
2786110;-0.21500
2788888;-0.22000
2791666;-0.22500
2794444;-0.22500
2797221;-0.22500
2799999;-0.23500
2802777;-0.23000
2805555;-0.22000
2808333;-0.22500
2811110;-0.23500
2813888;-0.23000
2816666;-0.23000
2819444;-0.21500
2822221;-0.22000
2824999;-0.24500
2827777;-0.24500
2830555;-0.25500
2833333;-0.23500
2836110;-0.23000
2838888;-0.23500
2841666;-0.24000
2844444;-0.26000
2847221;-0.24500
2849999;-0.25000
2852777;-0.23500
2855555;-0.25000
2858333;-0.26000
2861110;-0.27500
2863888;-0.26000
2866666;-0.24500
2869444;-0.26000
2872221;-0.24500
2874999;-0.25500
2877777;-0.26500
2880555;-0.27000
2883333;-0.27000
2886110;-0.27000
2888888;-0.26500
2891666;-0.25500
2894444;-0.28500
2897221;-0.28000
2899999;-0.26500
2902777;-0.26000
2905555;-0.27500
2908333;-0.28500
2911110;-0.29000
2913888;-0.29500
2916666;-0.27000
2919444;-0.26000
2922221;-0.25500
2924999;-0.27000
2927777;-0.27500
2930555;-0.27000
2933333;-0.27000
2936110;-0.27000
2938888;-0.26500
2941666;-0.27000
2944444;-0.28000
2947221;-0.28500
2949999;-0.27500
2952777;-0.27000
2955555;-0.26000
2958333;-0.28000
2961110;-0.29500
2963888;-0.28000
2966666;-0.27500
2969444;-0.26500
2972221;-0.26500
2974999;-0.28000
2977777;-0.29500
2980555;-0.28500
2983332;-0.28000
2986110;-0.26500
2988888;-0.27000
2991666;-0.28000
2994444;-0.29000
2997221;-0.28500
2999999;-0.27500
3002777;-0.27000
3005555;-0.26000
3008332;-0.26000
3011110;-0.24500
3013888;-0.24000
3016666;-0.23000
3019444;-0.21500
3022221;-0.22000
3024999;-0.22000
3027777;-0.22000
3030555;-0.20500
3033332;-0.19500
3036110;-0.17500
3038888;-0.18500
3041666;-0.17500
3044444;-0.20500
3047221;-0.20500
3049999;-0.19500
3052777;-0.19000
3055555;-0.19500
3058332;-0.20500
3061110;-0.21000
3063888;-0.21500
3066666;-0.22000
3069444;-0.21000
3072221;-0.20500
3074999;-0.19000
3077777;-0.18500
3080555;-0.21000
3083332;-0.22000
3086110;-0.23000
3088888;-0.25000
3091666;-0.27500
3094444;-0.30500
3097221;-0.30500
3099999;-0.30500
3102777;-0.31000
3105555;-0.31500
3108332;-0.32000
3111110;-0.32000
3113888;-0.32500
3116666;-0.30500
3119444;-0.30500
3122221;-0.31500
3124999;-0.33000
3127777;-0.33500
3130555;-0.33000
3133332;-0.32000
3136110;-0.31500
3138888;-0.33000
3141666;-0.33000
3144444;-0.33500
3147221;-0.34000
3149999;-0.33500
3152777;-0.32500
3155555;-0.33000
3158332;-0.34000
3161110;-0.34000
3163888;-0.34500
3166666;-0.33500
3169444;-0.33500
3172221;-0.35500
3174999;-0.38500
3177777;-0.44000
3180555;-0.46000
3183332;-0.48000
3186110;-0.50500
3188888;-0.53500
3191666;-0.48000
3194444;-0.35500
3197221;-0.17000
3199999;0.03500
3202777;0.27000
3205555;0.56000
3208332;0.82000
3211110;0.98500
3213888;1.02000
3216666;0.86500
3219444;0.49500
3222221;0.00000
3224999;-0.37000
3227777;-0.50500
3230555;-0.47000
3233332;-0.40500
3236110;-0.36000
3238888;-0.35000
3241666;-0.35500
3244444;-0.38000
3247221;-0.37500
3249999;-0.36500
3252777;-0.36000
3255555;-0.36500
3258332;-0.37500
3261110;-0.38500
3263888;-0.38500
3266666;-0.39000
3269444;-0.36000
3272221;-0.37000
3274999;-0.37500
3277777;-0.38000
3280555;-0.38500
3283332;-0.37500
3286110;-0.36000
3288888;-0.37500
3291666;-0.37000
3294444;-0.38000
3297221;-0.38500
3299999;-0.38000
3302777;-0.35500
3305555;-0.36000
3308332;-0.36000
3311110;-0.37500
3313888;-0.38500
3316666;-0.37000
3319444;-0.36500
3322221;-0.37000
3324999;-0.37500
3327777;-0.39500
3330555;-0.38000
3333332;-0.38500
3336110;-0.37500
3338888;-0.36500
3341666;-0.37000
3344444;-0.37500
3347221;-0.37500
3349999;-0.37000
3352777;-0.37000
3355555;-0.37500
3358332;-0.37500
3361110;-0.38000
3363888;-0.38500
3366666;-0.38000
3369444;-0.37000
3372221;-0.37500
3374999;-0.38000
3377777;-0.39000
3380555;-0.38500
3383332;-0.38500
3386110;-0.37500
3388888;-0.38000
3391666;-0.38000
3394443;-0.39000
3397221;-0.39000
3399999;-0.38500
3402777;-0.37000
3405555;-0.37500
3408332;-0.37500
3411110;-0.39000
3413888;-0.39000
3416666;-0.37000
3419443;-0.37500
3422221;-0.38000
3424999;-0.39500
3427777;-0.39500
3430555;-0.39500
3433332;-0.40000
3436110;-0.39000
3438888;-0.39000
3441666;-0.40500
3444443;-0.41500
3447221;-0.41000
3449999;-0.40000
3452777;-0.40500
3455555;-0.40000
3458332;-0.41000
3461110;-0.42000
3463888;-0.41000
3466666;-0.40500
3469443;-0.38000
3472221;-0.39000
3474999;-0.40500
3477777;-0.40500
3480555;-0.40500
3483332;-0.39000
3486110;-0.39000
3488888;-0.39000
3491666;-0.38500
3494443;-0.39000
3497221;-0.39000
3499999;-0.39000
3502777;-0.36000
3505555;-0.34000
3508332;-0.35000
3511110;-0.33000
3513888;-0.32500
3516666;-0.30500
3519443;-0.28500
3522221;-0.28000
3524999;-0.28500
3527777;-0.28000
3530555;-0.27000
3533332;-0.26500
3536110;-0.26500
3538888;-0.25500
3541666;-0.25500
3544443;-0.25500
3547221;-0.25000
3549999;-0.24000
3552777;-0.24000
3555555;-0.23500
3558332;-0.25000
3561110;-0.26000
3563888;-0.25500
3566666;-0.25000
3569443;-0.23500
3572221;-0.24500
3574999;-0.25500
3577777;-0.26000
3580555;-0.26000
3583332;-0.25000
3586110;-0.24500
3588888;-0.24000
3591666;-0.25000
3594443;-0.26000
3597221;-0.25500
3599999;-0.25500
3602777;-0.25500
3605555;-0.25500
3608332;-0.26500
3611110;-0.27500
3613888;-0.29000
3616666;-0.27000
3619443;-0.25000
3622221;-0.26500
3624999;-0.27500
3627777;-0.27500
3630555;-0.27500
3633332;-0.27500
3636110;-0.26500
3638888;-0.27000
3641666;-0.27500
3644443;-0.28500
3647221;-0.29000
3649999;-0.28500
3652777;-0.28500
3655555;-0.28500
3658332;-0.30500
3661110;-0.30000
3663888;-0.29500
3666666;-0.29500
3669443;-0.28000
3672221;-0.28500
3674999;-0.29000
3677777;-0.29500
3680555;-0.30000
3683332;-0.28000
3686110;-0.27500
3688888;-0.28000
3691666;-0.29500
3694443;-0.31000
3697221;-0.31500
3699999;-0.29000
3702777;-0.29000
3705555;-0.29000
3708332;-0.30500
3711110;-0.30000
3713888;-0.31000
3716666;-0.30000
3719443;-0.27500
3722221;-0.28500
3724999;-0.29000
3727777;-0.31000
3730555;-0.31000
3733332;-0.30500
3736110;-0.29000
3738888;-0.30000
3741666;-0.29500
3744443;-0.29500
3747221;-0.29000
3749999;-0.28500
3752777;-0.27500
3755555;-0.28500
3758332;-0.28000
3761110;-0.29500
3763888;-0.29500
3766666;-0.29500
3769443;-0.27500
3772221;-0.29000
3774999;-0.30500
3777777;-0.31000
3780554;-0.30000
3783332;-0.29000
3786110;-0.28500
3788888;-0.27500
3791666;-0.28000
3794443;-0.28500
3797221;-0.26000
3799999;-0.25000
3802777;-0.21500
3805554;-0.21500
3808332;-0.22000
3811110;-0.22000
3813888;-0.22500
3816666;-0.21500
3819443;-0.19500
3822221;-0.19000
3824999;-0.19000
3827777;-0.18500
3830554;-0.18500
3833332;-0.18000
3836110;-0.17500
3838888;-0.17500
3841666;-0.19500
3844443;-0.21000
3847221;-0.21000
3849999;-0.19000
3852777;-0.18000
3855554;-0.20000
3858332;-0.21000
3861110;-0.21500
3863888;-0.19000
3866666;-0.17000
3869443;-0.18000
3872221;-0.21000
3874999;-0.25000
3877777;-0.26000
3880554;-0.26500
3883332;-0.26500
3886110;-0.28000
3888888;-0.28500
3891666;-0.30000
3894443;-0.32000
3897221;-0.32000
3899999;-0.31000
3902777;-0.30500
3905554;-0.30500
3908332;-0.31000
3911110;-0.31000
3913888;-0.32000
3916666;-0.31500
3919443;-0.31500
3922221;-0.32000
3924999;-0.32000
3927777;-0.33500
3930554;-0.33000
3933332;-0.33000
3936110;-0.32500
3938888;-0.32000
3941666;-0.32500
3944443;-0.34000
3947221;-0.34000
3949999;-0.32000
3952777;-0.31000
3955554;-0.32500
3958332;-0.35000
3961110;-0.39000
3963888;-0.43500
3966666;-0.46000
3969443;-0.47000
3972221;-0.51500
3974999;-0.53000
3977777;-0.51000
3980554;-0.38500
3983332;-0.20500
3986110;-0.02000
3988888;0.19000
3991666;0.45500
3994443;0.74500
3997221;0.98000
3999999;1.13000
4002777;1.13000
4005554;0.91000
4008332;0.50000
4011110;0.02500
4013888;-0.34000
4016666;-0.46000
4019443;-0.43500
4022221;-0.36500
4024999;-0.34000
4027777;-0.34500
4030554;-0.36500
4033332;-0.35500
4036110;-0.35000
4038888;-0.35000
4041666;-0.35500
4044443;-0.37000
4047221;-0.37500
4049999;-0.36000
4052777;-0.35500
4055554;-0.35500
4058332;-0.36500
4061110;-0.38000
4063888;-0.38000
4066666;-0.38000
4069443;-0.36500
4072221;-0.37000
4074999;-0.38500
4077777;-0.37500
4080554;-0.37500
4083332;-0.38000
4086110;-0.37500
4088888;-0.36000
4091666;-0.36500
4094443;-0.37500
4097221;-0.37500
4099999;-0.36000
4102777;-0.36000
4105554;-0.36500
4108332;-0.36500
4111110;-0.38000
4113888;-0.38500
4116666;-0.37000
4119443;-0.36500
4122221;-0.37000
4124999;-0.37500
4127777;-0.38000
4130554;-0.37500
4133332;-0.37500
4136110;-0.36500
4138888;-0.37500
4141666;-0.36500
4144443;-0.38000
4147221;-0.38500
4149999;-0.38000
4152777;-0.35500
4155554;-0.36000
4158332;-0.36500
4161110;-0.38000
4163888;-0.38000
4166666;-0.37500
4169443;-0.36500
4172221;-0.36000
4174999;-0.37500
4177777;-0.38500
4180554;-0.38000
4183332;-0.38500
4186110;-0.37500
4188888;-0.37500
4191665;-0.38000
4194443;-0.39000
4197221;-0.39000
4199999;-0.38500
4202777;-0.36000
4205554;-0.38000
4208332;-0.38500
4211110;-0.39500
4213888;-0.38500
4216665;-0.38000
4219443;-0.37500
4222221;-0.37500
4224999;-0.39500
4227777;-0.39500
4230554;-0.39500
4233332;-0.39500
4236110;-0.39000
4238888;-0.40000
4241665;-0.40000
4244443;-0.40000
4247221;-0.40500
4249999;-0.40000
4252777;-0.39000
4255554;-0.39500
4258332;-0.40500
4261110;-0.41000
4263888;-0.40500
4266665;-0.40000
4269443;-0.38000
4272221;-0.38500
4274999;-0.37500
4277777;-0.37000
4280554;-0.36000
4283332;-0.34000
4286110;-0.33000
4288888;-0.31500
4291665;-0.29500
4294443;-0.28000
4297221;-0.25000
4299999;-0.21500
4302777;-0.19000
4305554;-0.16500
4308332;-0.15000
4311110;-0.16500
4313888;-0.15000
4316665;-0.13000
4319443;-0.11500
4322221;-0.11000
4324999;-0.11500
4327777;-0.12000
4330554;-0.13500
4333332;-0.13000
4336110;-0.12500
4338888;-0.14500
4341665;-0.16000
4344443;-0.16000
4347221;-0.16000
4349999;-0.16500
4352777;-0.16000
4355554;-0.18000
4358332;-0.19500
4361110;-0.21000
4363888;-0.21000
4366665;-0.21500
4369443;-0.21500
4372221;-0.21000
4374999;-0.22000
4377777;-0.22000
4380554;-0.23500
4383332;-0.24000
4386110;-0.21500
4388888;-0.23500
4391665;-0.25500
4394443;-0.27500
4397221;-0.29000
4399999;-0.27000
4402777;-0.27000
4405554;-0.28500
4408332;-0.30500
4411110;-0.31500
4413888;-0.32000
4416665;-0.31000
4419443;-0.32000
4422221;-0.32000
4424999;-0.33000
4427777;-0.34000
4430554;-0.35000
4433332;-0.35000
4436110;-0.33000
4438888;-0.34500
4441665;-0.35000
4444443;-0.36500
4447221;-0.36000
4449999;-0.36500
4452777;-0.34500
4455554;-0.35000
4458332;-0.36000
4461110;-0.37000
4463888;-0.38000
4466665;-0.37500
4469443;-0.37000
4472221;-0.37000
4474999;-0.37000
4477777;-0.37500
4480554;-0.38500
4483332;-0.37500
4486110;-0.35500
4488888;-0.37500
4491665;-0.37000
4494443;-0.37500
4497221;-0.39500
4499999;-0.40000
4502777;-0.40500
4505554;-0.42000
4508332;-0.44000
4511110;-0.45500
4513888;-0.44000
4516665;-0.36000
4519443;-0.21000
4522221;-0.00500
4524999;0.18000
4527777;0.34500
4530554;0.54500
4533332;0.79500
4536110;0.99500
4538888;1.07000
4541665;0.97500
4544443;0.61500
4547221;0.12500
4549999;-0.29500
4552777;-0.48500
4555554;-0.53500
4558332;-0.51500
4561110;-0.47500
4563888;-0.43500
4566665;-0.38500
4569443;-0.36500
4572221;-0.37000
4574999;-0.38500
4577776;-0.39000
4580554;-0.38000
4583332;-0.38500
4586110;-0.37500
4588888;-0.38500
4591665;-0.38500
4594443;-0.40000
4597221;-0.39500
4599999;-0.39000
4602776;-0.37500
4605554;-0.38000
4608332;-0.38500
4611110;-0.39500
4613888;-0.39500
4616665;-0.39000
4619443;-0.38000
4622221;-0.39000
4624999;-0.39000
4627776;-0.40000
4630554;-0.39000
4633332;-0.38500
4636110;-0.38000
4638888;-0.38500
4641665;-0.39000
4644443;-0.40000
4647221;-0.40000
4649999;-0.39000
4652776;-0.37500
4655554;-0.37000
4658332;-0.38000
4661110;-0.38000
4663888;-0.39000
4666665;-0.38000
4669443;-0.36000
4672221;-0.37500
4674999;-0.38000
4677776;-0.38500
4680554;-0.37500
4683332;-0.37000
4686110;-0.36500
4688888;-0.35500
4691665;-0.35500
4694443;-0.36500
4697221;-0.37000
4699999;-0.36000
4702776;-0.35000
4705554;-0.37000
4708332;-0.36500
4711110;-0.37000
4713888;-0.37500
4716665;-0.37000
4719443;-0.36000
4722221;-0.36500
4724999;-0.36500
4727776;-0.37000
4730554;-0.36500
4733332;-0.35500
4736110;-0.34000
4738888;-0.35500
4741665;-0.36000
4744443;-0.36000
4747221;-0.36500
4749999;-0.35000
4752776;-0.33500
4755554;-0.34000
4758332;-0.34000
4761110;-0.36000
4763888;-0.36000
4766665;-0.36000
4769443;-0.36500
4772221;-0.36000
4774999;-0.36000
4777776;-0.37500
4780554;-0.37000
4783332;-0.36500
4786110;-0.36000
4788888;-0.36500
4791665;-0.38000
4794443;-0.37500
4797221;-0.38000
4799999;-0.37000
4802776;-0.35500
4805554;-0.36500
4808332;-0.37000
4811110;-0.37500
4813888;-0.37000
4816665;-0.37500
4819443;-0.36000
4822221;-0.36500
4824999;-0.37000
4827776;-0.37500
4830554;-0.37500
4833332;-0.35500
4836110;-0.34000
4838888;-0.34500
4841665;-0.35000
4844443;-0.35000
4847221;-0.35500
4849999;-0.34500
4852776;-0.33000
4855554;-0.33000
4858332;-0.35000
4861110;-0.35500
4863888;-0.34500
4866665;-0.32000
4869443;-0.30000
4872221;-0.30500
4874999;-0.31500
4877776;-0.31000
4880554;-0.31000
4883332;-0.30000
4886110;-0.29000
4888888;-0.28500
4891665;-0.29000
4894443;-0.30500
4897221;-0.31500
4899999;-0.30000
4902776;-0.29000
4905554;-0.30000
4908332;-0.30000
4911110;-0.31000
4913888;-0.30500
4916665;-0.30500
4919443;-0.29500
4922221;-0.30500
4924999;-0.31500
4927776;-0.32000
4930554;-0.31500
4933332;-0.31500
4936110;-0.30000
4938888;-0.30500
4941665;-0.30000
4944443;-0.31500
4947221;-0.32000
4949999;-0.31000
4952776;-0.29500
4955554;-0.31500
4958332;-0.31500
4961110;-0.32500
4963887;-0.32000
4966665;-0.31000
4969443;-0.31000
4972221;-0.31000
4974999;-0.31500
4977776;-0.33000
4980554;-0.32500
4983332;-0.30500
4986110;-0.29500
4988887;-0.30000
4991665;-0.29000
4994443;-0.31000
4997221;-0.30500
4999999;-0.30000
5002776;-0.29500
5005554;-0.31000
5008332;-0.31500
5011110;-0.33000
5013887;-0.31500
5016665;-0.31000
5019443;-0.29500
5022221;-0.29500
5024999;-0.30000
5027776;-0.30500
5030554;-0.31500
5033332;-0.31500
5036110;-0.31000
5038887;-0.31500
5041665;-0.31000
5044443;-0.31000
5047221;-0.32000
5049999;-0.31000
5052776;-0.29000
5055554;-0.31000
5058332;-0.31000
5061110;-0.32000
5063887;-0.32500
5066665;-0.32000
5069443;-0.30500
5072221;-0.30000
5074999;-0.30500
5077776;-0.32000
5080554;-0.32500
5083332;-0.30500
5086110;-0.31000
5088887;-0.32500
5091665;-0.32500
5094443;-0.33000
5097221;-0.32000
5099999;-0.33000
5102776;-0.32000
5105554;-0.30500
5108332;-0.31000
5111110;-0.31500
5113887;-0.32000
5116665;-0.31500
5119443;-0.30500
5122221;-0.31500
5124999;-0.31500
5127776;-0.32000
5130554;-0.32000
5133332;-0.32000
5136110;-0.31500
5138887;-0.31000
5141665;-0.31500
5144443;-0.32000
5147221;-0.32000
5149999;-0.31000
5152776;-0.30000
5155554;-0.30500
5158332;-0.30500
5161110;-0.32000
5163887;-0.32500
5166665;-0.33500
5169443;-0.30500
5172221;-0.31000
5174999;-0.31500
5177776;-0.31500
5180554;-0.32500
5183332;-0.32000
5186110;-0.31000
5188887;-0.32000
5191665;-0.34000
5194443;-0.34000
5197221;-0.33500
5199999;-0.32500
5202776;-0.31500
5205554;-0.33000
5208332;-0.33500
5211110;-0.33500
5213887;-0.33500
5216665;-0.31500
5219443;-0.31000
5222221;-0.31500
5224999;-0.33000
5227776;-0.33500
5230554;-0.33000
5233332;-0.32500
5236110;-0.31000
5238887;-0.31500
5241665;-0.31500
5244443;-0.33000
5247221;-0.33000
5249999;-0.33000
5252776;-0.31500
5255554;-0.32000
5258332;-0.33000
5261110;-0.33500
5263887;-0.34000
5266665;-0.33500
5269443;-0.32500
5272221;-0.32500
5274999;-0.33500
5277776;-0.34000
5280554;-0.35500
5283332;-0.34500
5286110;-0.33000
5288887;-0.33000
5291665;-0.33000
5294443;-0.33500
5297221;-0.33000
5299999;-0.32500
5302776;-0.30500
5305554;-0.31500
5308332;-0.32000
5311110;-0.33500
5313887;-0.34500
5316665;-0.33000
5319443;-0.32000
5322221;-0.32500
5324999;-0.32500
5327776;-0.34000
5330554;-0.32000
5333332;-0.31500
5336110;-0.31500
5338887;-0.30500
5341665;-0.30500
5344443;-0.29500
5347221;-0.28500
5349999;-0.27500
5352776;-0.26000
5355554;-0.27500
5358332;-0.27500
5361110;-0.27000
5363887;-0.27000
5366665;-0.25000
5369443;-0.23000
5372221;-0.23000
5374998;-0.23000
5377776;-0.23500
5380554;-0.24000
5383332;-0.23500
5386110;-0.22500
5388887;-0.24000
5391665;-0.24500
5394443;-0.26500
5397221;-0.26000
5399998;-0.24000
5402776;-0.24000
5405554;-0.25000
5408332;-0.26500
5411110;-0.27000
5413887;-0.27500
5416665;-0.25000
5419443;-0.22500
5422221;-0.24000
5424998;-0.25500
5427776;-0.27000
5430554;-0.29500
5433332;-0.28500
5436110;-0.29000
5438887;-0.31000
5441665;-0.33000
5444443;-0.35000
5447221;-0.35500
5449998;-0.36000
5452776;-0.35000
5455554;-0.35000
5458332;-0.35500
5461110;-0.37500
5463887;-0.37000
5466665;-0.36000
5469443;-0.34500
5472221;-0.35500
5474998;-0.36500
5477776;-0.37500
5480554;-0.38500
5483332;-0.38000
5486110;-0.38500
5488887;-0.38000
5491665;-0.37500
5494443;-0.38000
5497221;-0.36000
5499998;-0.35000
5502776;-0.35500
5505554;-0.35000
5508332;-0.38000
5511110;-0.40000
5513887;-0.41000
5516665;-0.41500
5519443;-0.42500
5522221;-0.46000
5524998;-0.48000
5527776;-0.49500
5530554;-0.53500
5533332;-0.57000
5536110;-0.58000
5538887;-0.54500
5541665;-0.43500
5544443;-0.32500
5547221;-0.22000
5549998;-0.07500
5552776;0.12500
5555554;0.37500
5558332;0.63500
5561110;0.80500
5563887;0.93000
5566665;0.95500
5569443;0.82000
5572221;0.49000
5574998;0.08500
5577776;-0.22500
5580554;-0.42000
5583332;-0.49500
5586110;-0.50500
5588887;-0.49500
5591665;-0.48000
5594443;-0.44500
5597221;-0.43500
5599998;-0.41000
5602776;-0.42500
5605554;-0.43000
5608332;-0.43500
5611110;-0.43000
5613887;-0.43000
5616665;-0.42500
5619443;-0.41500
5622221;-0.42500
5624998;-0.42500
5627776;-0.43000
5630554;-0.43000
5633332;-0.42000
5636110;-0.42000
5638887;-0.42000
5641665;-0.41500
5644443;-0.42500
5647221;-0.43500
5649998;-0.42000
5652776;-0.41500
5655554;-0.41000
5658332;-0.41500
5661110;-0.42000
5663887;-0.44500
5666665;-0.44000
5669443;-0.43500
5672221;-0.43500
5674998;-0.43000
5677776;-0.43000
5680554;-0.43500
5683332;-0.43000
5686110;-0.42500
5688887;-0.43000
5691665;-0.42500
5694443;-0.43500
5697221;-0.43500
5699998;-0.42500
5702776;-0.40000
5705554;-0.40500
5708332;-0.42500
5711110;-0.44000
5713887;-0.45500
5716665;-0.44500
5719443;-0.44000
5722221;-0.43500
5724998;-0.44000
5727776;-0.44500
5730554;-0.43000
5733332;-0.42500
5736110;-0.44000
5738887;-0.43500
5741665;-0.44500
5744443;-0.44000
5747221;-0.43500
5749998;-0.42500
5752776;-0.41500
5755554;-0.41500
5758332;-0.42500
5761109;-0.44000
5763887;-0.44000
5766665;-0.42500
5769443;-0.42000
5772221;-0.43000
5774998;-0.44000
5777776;-0.45000
5780554;-0.45000
5783332;-0.44000
5786109;-0.42500
5788887;-0.43000
5791665;-0.45500
5794443;-0.46500
5797221;-0.47000
5799998;-0.47500
5802776;-0.45500
5805554;-0.45500
5808332;-0.46500
5811109;-0.49500
5813887;-0.50500
5816665;-0.48500
5819443;-0.47000
5822221;-0.48500
5824998;-0.50500
5827776;-0.52000
5830554;-0.52500
5833332;-0.51000
5836109;-0.48500
5838887;-0.47500
5841665;-0.46500
5844443;-0.47500
5847221;-0.48500
5849998;-0.46500
5852776;-0.45500
5855554;-0.44000
5858332;-0.44500
5861109;-0.44500
5863887;-0.44000
5866665;-0.41500
5869443;-0.41500
5872221;-0.40000
5874998;-0.40500
5877776;-0.41000
5880554;-0.40000
5883332;-0.38500
5886109;-0.36500
5888887;-0.35500
5891665;-0.33500
5894443;-0.34500
5897221;-0.33500
5899998;-0.32500
5902776;-0.30500
5905554;-0.29500
5908332;-0.28500
5911109;-0.30000
5913887;-0.28500
5916665;-0.27500
5919443;-0.26500
5922221;-0.27000
5924998;-0.28000
5927776;-0.28500
5930554;-0.29000
5933332;-0.28500
5936109;-0.28500
5938887;-0.28000
5941665;-0.29000
5944443;-0.29000
5947221;-0.29500
5949998;-0.28500
5952776;-0.28000
5955554;-0.26000
5958332;-0.28000
5961109;-0.28000
5963887;-0.29500
5966665;-0.30000
5969443;-0.28500
5972221;-0.28500
5974998;-0.29000
5977776;-0.30000
5980554;-0.30500
5983332;-0.28500
5986109;-0.29000
5988887;-0.29500
5991665;-0.29500
5994443;-0.30500
5997221;-0.31000
5999998;-0.30500
6002776;-0.30000
6005554;-0.30500
6008332;-0.30000
6011109;-0.30500
6013887;-0.31500
6016665;-0.31500
6019443;-0.31000
6022221;-0.32500
6024998;-0.31000
6027776;-0.33000
6030554;-0.33000
6033332;-0.33000
6036109;-0.32500
6038887;-0.33000
6041665;-0.33500
6044443;-0.34500
6047221;-0.34000
6049998;-0.33000
6052776;-0.32000
6055554;-0.33000
6058332;-0.33000
6061109;-0.34500
6063887;-0.35000
6066665;-0.34500
6069443;-0.33000
6072221;-0.33000
6074998;-0.34500
6077776;-0.35000
6080554;-0.34000
6083332;-0.33500
6086109;-0.33000
6088887;-0.34000
6091665;-0.33500
6094443;-0.34500
6097221;-0.35500
6099998;-0.34500
6102776;-0.34000
6105554;-0.33500
6108332;-0.35000
6111109;-0.35500
6113887;-0.35000
6116665;-0.34500
6119443;-0.32500
6122221;-0.32500
6124998;-0.33500
6127776;-0.33500
6130554;-0.33500
6133332;-0.34500
6136109;-0.32500
6138887;-0.33500
6141665;-0.35000
6144443;-0.35000
6147221;-0.34500
6149998;-0.33500
6152776;-0.33000
6155554;-0.33000
6158332;-0.32500
6161109;-0.34500
6163887;-0.33500
6166665;-0.33000
6169443;-0.31500
6172220;-0.31000
6174998;-0.30000
6177776;-0.30000
6180554;-0.30000
6183332;-0.28000
6186109;-0.26500
6188887;-0.27000
6191665;-0.27000
6194443;-0.26500
6197220;-0.26500
6199998;-0.26000
6202776;-0.23500
6205554;-0.23500
6208332;-0.25000
6211109;-0.26500
6213887;-0.25500
6216665;-0.24000
6219443;-0.22500
6222220;-0.22500
6224998;-0.23500
6227776;-0.24000
6230554;-0.25500
6233332;-0.24500
6236109;-0.24000
6238887;-0.24000
6241665;-0.25000
6244443;-0.24500
6247220;-0.27500
6249998;-0.26500
6252776;-0.26500
6255554;-0.25000
6258332;-0.24500
6261109;-0.23000
6263887;-0.24500
6266665;-0.25000
6269443;-0.26500
6272220;-0.28500
6274998;-0.30500
6277776;-0.33000
6280554;-0.32500
6283332;-0.34000
6286109;-0.33500
6288887;-0.34500
6291665;-0.36500
6294443;-0.37500
6297220;-0.37000
6299998;-0.35500
6302776;-0.35000
6305554;-0.35500
6308332;-0.36500
6311109;-0.37500
6313887;-0.37000
6316665;-0.36000
6319443;-0.36000
6322220;-0.36000
6324998;-0.36500
6327776;-0.37000
6330554;-0.37000
6333332;-0.36000
6336109;-0.35000
6338887;-0.35500
6341665;-0.36000
6344443;-0.36500
6347220;-0.37500
6349998;-0.36500
6352776;-0.36500
6355554;-0.37000
6358332;-0.39000
6361109;-0.41500
6363887;-0.46000
6366665;-0.48500
6369443;-0.49500
6372220;-0.51500
6374998;-0.56500
6377776;-0.57500
6380554;-0.50500
6383332;-0.36000
6386109;-0.20500
6388887;-0.02000
6391665;0.19500
6394443;0.45000
6397220;0.70000
6399998;0.89500
6402776;0.99500
6405554;0.94500
6408332;0.72000
6411109;0.32500
6413887;-0.12500
6416665;-0.40500
6419443;-0.50000
6422220;-0.49000
6424998;-0.44500
6427776;-0.41500
6430554;-0.41000
6433332;-0.40500
6436109;-0.39500
6438887;-0.39500
6441665;-0.40500
6444443;-0.40500
6447220;-0.42000
6449998;-0.41000
6452776;-0.39000
6455554;-0.39000
6458332;-0.40500
6461109;-0.41500
6463887;-0.41500
6466665;-0.40000
6469443;-0.39500
6472220;-0.40500
6474998;-0.40000
6477776;-0.41500
6480554;-0.41500
6483332;-0.41500
6486109;-0.40500
6488887;-0.40000
6491665;-0.40500
6494443;-0.41000
6497220;-0.42000
6499998;-0.41000
6502776;-0.40500
6505554;-0.38500
6508332;-0.41000
6511109;-0.41500
6513887;-0.42000
6516665;-0.41000
6519443;-0.40000
6522220;-0.39500
6524998;-0.40000
6527776;-0.41000
6530554;-0.41000
6533332;-0.41000
6536109;-0.40000
6538887;-0.40500
6541665;-0.41000
6544443;-0.41500
6547220;-0.42000
6549998;-0.41000
6552776;-0.40000
6555554;-0.40500
6558331;-0.41000
6561109;-0.41500
6563887;-0.43000
6566665;-0.41500
6569443;-0.40500
6572220;-0.41000
6574998;-0.42000
6577776;-0.42000
6580554;-0.42000
6583331;-0.41000
6586109;-0.40000
6588887;-0.41000
6591665;-0.41500
6594443;-0.41500
6597220;-0.41000
6599998;-0.42000
6602776;-0.41000
6605554;-0.40500
6608331;-0.40500
6611109;-0.41000
6613887;-0.41000
6616665;-0.41500
6619443;-0.40000
6622220;-0.40000
6624998;-0.42000
6627776;-0.42500
6630554;-0.42500
6633331;-0.41500
6636109;-0.42000
6638887;-0.42000
6641665;-0.43500
6644443;-0.44500
6647220;-0.45000
6649998;-0.44500
6652776;-0.44500
6655554;-0.44000
6658331;-0.44000
6661109;-0.45500
6663887;-0.46500
6666665;-0.45000
6669443;-0.44000
6672220;-0.44500
6674998;-0.45000
6677776;-0.44000
6680554;-0.45500
6683331;-0.44500
6686109;-0.43000
6688887;-0.41500
6691665;-0.42000
6694443;-0.41000
6697220;-0.41000
6699998;-0.39500
6702776;-0.37000
6705554;-0.35500
6708331;-0.35500
6711109;-0.35000
6713887;-0.33500
6716665;-0.31500
6719443;-0.30000
6722220;-0.29000
6724998;-0.29500
6727776;-0.29500
6730554;-0.29500
6733331;-0.28500
6736109;-0.27000
6738887;-0.26000
6741665;-0.27500
6744443;-0.27500
6747220;-0.28000
6749998;-0.28500
6752776;-0.26500
6755554;-0.26500
6758331;-0.26500
6761109;-0.29000
6763887;-0.28500
6766665;-0.28000
6769443;-0.27500
6772220;-0.28000
6774998;-0.27500
6777776;-0.28000
6780554;-0.30000
6783331;-0.28500
6786109;-0.28500
6788887;-0.28000
6791665;-0.29500
6794443;-0.30500
6797220;-0.30500
6799998;-0.29000
6802776;-0.28500
6805554;-0.27500
6808331;-0.28500
6811109;-0.28500
6813887;-0.29500
6816665;-0.29000
6819443;-0.28000
6822220;-0.28000
6824998;-0.29000
6827776;-0.29500
6830554;-0.30000
6833331;-0.30000
6836109;-0.29000
6838887;-0.28500
6841665;-0.30000
6844443;-0.31500
6847220;-0.31500
6849998;-0.30500
6852776;-0.30000
6855554;-0.30000
6858331;-0.30500
6861109;-0.32000
6863887;-0.32500
6866665;-0.32000
6869443;-0.32000
6872220;-0.30500
6874998;-0.31000
6877776;-0.31000
6880554;-0.31500
6883331;-0.31500
6886109;-0.31500
6888887;-0.31000
6891665;-0.31000
6894443;-0.31500
6897220;-0.31500
6899998;-0.31500
6902776;-0.30000
6905554;-0.31000
6908331;-0.31500
6911109;-0.32000
6913887;-0.32000
6916665;-0.31000
6919443;-0.30500
6922220;-0.30500
6924998;-0.31500
6927776;-0.31500
6930554;-0.31500
6933331;-0.31000
6936109;-0.30500
6938887;-0.30500
6941665;-0.31500
6944442;-0.32500
6947220;-0.32000
6949998;-0.31000
6952776;-0.30500
6955554;-0.30500
6958331;-0.30500
6961109;-0.32000
6963887;-0.32000
6966665;-0.30500
6969442;-0.30500
6972220;-0.30500
6974998;-0.30000
6977776;-0.30500
6980554;-0.31000
6983331;-0.30000
6986109;-0.29000
6988887;-0.29500
6991665;-0.30000
6994442;-0.30500
6997220;-0.31000
6999998;-0.29500
7002776;-0.27500
7005554;-0.27000
7008331;-0.27500
7011109;-0.26000
7013887;-0.26500
7016665;-0.24000
7019442;-0.22000
7022220;-0.22500
7024998;-0.23000
7027776;-0.22500
7030554;-0.23000
7033331;-0.22000
7036109;-0.21000
7038887;-0.18500
7041665;-0.19000
7044442;-0.19000
7047220;-0.19000
7049998;-0.18500
7052776;-0.19000
7055554;-0.20000
7058331;-0.21500
7061109;-0.21500
7063887;-0.22000
7066665;-0.21500
7069442;-0.19000
7072220;-0.20000
7074998;-0.21500
7077776;-0.22500
7080554;-0.22000
7083331;-0.18500
7086109;-0.15500
7088887;-0.17000
7091665;-0.19000
7094442;-0.22500
7097220;-0.24000
7099998;-0.23500
7102776;-0.22500
7105554;-0.23500
7108331;-0.25500
7111109;-0.27500
7113887;-0.29000
7116665;-0.29500
7119442;-0.30500
7122220;-0.30500
7124998;-0.31000
7127776;-0.33500
7130554;-0.34000
7133331;-0.32000
7136109;-0.33000
7138887;-0.33000
7141665;-0.32500
7144442;-0.34000
7147220;-0.35500
7149998;-0.34000
7152776;-0.33000
7155554;-0.33000
7158331;-0.33500
7161109;-0.34500
7163887;-0.34500
7166665;-0.34500
7169442;-0.33000
7172220;-0.33500
7174998;-0.32500
7177776;-0.34500
7180554;-0.35500
7183331;-0.35500
7186109;-0.36500
7188887;-0.40500
7191665;-0.44500
7194442;-0.47500
7197220;-0.51500
7199998;-0.53000
7202776;-0.55000
7205554;-0.50500
7208331;-0.40500
7211109;-0.25000
7213887;-0.07000
7216665;0.13000
7219442;0.37500
7222220;0.66500
7224998;0.92000
7227776;1.08000
7230554;1.12500
7233331;1.02000
7236109;0.72000
7238887;0.25500
7241665;-0.18500
7244442;-0.43500
7247220;-0.50500
7249998;-0.47000
7252776;-0.42000
7255554;-0.39500
7258331;-0.38000
7261109;-0.37000
7263887;-0.38500
7266665;-0.37000
7269442;-0.37500
7272220;-0.37500
7274998;-0.38000
7277776;-0.39500
7280554;-0.40000
7283331;-0.39500
7286109;-0.38000
7288887;-0.38000
7291665;-0.39500
7294442;-0.40500
7297220;-0.40500
7299998;-0.39000
7302776;-0.39000
7305554;-0.39500
7308331;-0.39000
7311109;-0.40000
7313887;-0.42000
7316665;-0.39500
7319442;-0.38000
7322220;-0.39500
7324998;-0.39000
7327776;-0.40500
7330554;-0.40000
7333331;-0.39000
7336109;-0.39000
7338887;-0.40000
7341665;-0.40000
7344442;-0.41000
7347220;-0.40000
7349998;-0.39500
7352776;-0.39000
7355553;-0.39000
7358331;-0.38000
7361109;-0.40500
7363887;-0.40000
7366665;-0.40000
7369442;-0.38500
7372220;-0.39000
7374998;-0.39000
7377776;-0.40000
7380553;-0.41500
7383331;-0.39500
7386109;-0.39000
7388887;-0.38500
7391665;-0.40000
7394442;-0.42000
7397220;-0.42000
7399998;-0.40000
7402776;-0.40000
7405553;-0.39500
7408331;-0.40000
7411109;-0.41000
7413887;-0.41000
7416665;-0.39500
7419442;-0.39000
7422220;-0.39000
7424998;-0.40500
7427776;-0.40000
7430553;-0.40500
7433331;-0.40500
7436109;-0.39500
7438887;-0.39000
7441665;-0.40000
7444442;-0.41000
7447220;-0.41000
7449998;-0.41000
7452776;-0.39500
7455553;-0.39500
7458331;-0.40000
7461109;-0.42500
7463887;-0.42500
7466665;-0.42000
7469442;-0.41500
7472220;-0.41500
7474998;-0.42500
7477776;-0.42500
7480553;-0.41000
7483331;-0.42000
7486109;-0.40500
7488887;-0.40500
7491665;-0.42000
7494442;-0.42500
7497220;-0.43000
7499998;-0.41000
7502776;-0.39500
7505553;-0.39000
7508331;-0.38500
7511109;-0.39000
7513887;-0.38000
7516665;-0.36500
7519442;-0.35000
7522220;-0.35000
7524998;-0.35000
7527776;-0.34000
7530553;-0.34500
7533331;-0.32000
7536109;-0.31500
7538887;-0.30500
7541665;-0.30000
7544442;-0.31000
7547220;-0.31000
7549998;-0.30000
7552776;-0.28500
7555553;-0.28500
7558331;-0.28500
7561109;-0.29500
7563887;-0.29000
7566665;-0.28000
7569442;-0.27000
7572220;-0.26500
7574998;-0.27500
7577776;-0.29000
7580553;-0.28000
7583331;-0.27500
7586109;-0.27000
7588887;-0.27000
7591665;-0.28000
7594442;-0.29000
7597220;-0.28500
7599998;-0.28500
7602776;-0.28000
7605553;-0.28500
7608331;-0.28000
7611109;-0.29500
7613887;-0.30000
7616665;-0.28500
7619442;-0.28500
7622220;-0.28500
7624998;-0.30000
7627776;-0.31000
7630553;-0.31500
7633331;-0.29500
7636109;-0.29000
7638887;-0.29000
7641665;-0.30500
7644442;-0.31500
7647220;-0.32500
7649998;-0.31000
7652776;-0.30500
7655553;-0.30500
7658331;-0.31000
7661109;-0.32000
7663887;-0.32500
7666665;-0.33000
7669442;-0.31000
7672220;-0.31500
7674998;-0.32000
7677776;-0.32500
7680553;-0.33000
7683331;-0.33000
7686109;-0.32000
7688887;-0.32000
7691665;-0.32000
7694442;-0.33000
7697220;-0.33000
7699998;-0.32000
7702776;-0.31500
7705553;-0.32000
7708331;-0.32500
7711109;-0.32500
7713887;-0.34000
7716665;-0.33000
7719442;-0.32000
7722220;-0.33500
7724998;-0.34000
7727776;-0.35000
7730553;-0.34000
7733331;-0.33500
7736109;-0.33000
7738887;-0.33000
7741664;-0.33500
7744442;-0.34000
7747220;-0.33000
7749998;-0.34000
7752776;-0.33000
7755553;-0.32000
7758331;-0.32000
7761109;-0.34500
7763887;-0.33500
7766664;-0.33500
7769442;-0.31500
7772220;-0.32000
7774998;-0.32000
7777776;-0.32000
7780553;-0.33000
7783331;-0.32000
7786109;-0.30500
7788887;-0.30500
7791664;-0.30500
7794442;-0.31500
7797220;-0.32500
7799998;-0.31000
7802776;-0.30500
7805553;-0.30000
7808331;-0.30000
7811109;-0.30000
7813887;-0.29500
7816664;-0.26500
7819442;-0.25000
7822220;-0.24500
7824998;-0.24500
7827776;-0.25000
7830553;-0.26000
7833331;-0.24000
7836109;-0.22500
7838887;-0.22000
7841664;-0.22000
7844442;-0.21500
7847220;-0.21500
7849998;-0.20000
7852776;-0.19000
7855553;-0.19500
7858331;-0.21500
7861109;-0.23500
7863887;-0.24000
7866664;-0.22500
7869442;-0.22000
7872220;-0.21500
7874998;-0.23000
7877776;-0.24000
7880553;-0.25000
7883331;-0.21500
7886109;-0.18500
7888887;-0.18500
7891664;-0.21500
7894442;-0.26000
7897220;-0.27500
7899998;-0.27000
7902776;-0.28000
7905553;-0.29500
7908331;-0.31500
7911109;-0.33000
7913887;-0.34500
7916664;-0.33000
7919442;-0.31000
7922220;-0.31500
7924998;-0.33000
7927776;-0.33000
7930553;-0.34000
7933331;-0.32500
7936109;-0.32000
7938887;-0.33000
7941664;-0.33500
7944442;-0.34000
7947220;-0.34500
7949998;-0.32500
7952776;-0.31500
7955553;-0.32000
7958331;-0.32000
7961109;-0.33000
7963887;-0.33000
7966664;-0.32500
7969442;-0.32500
7972220;-0.31000
7974998;-0.33000
7977776;-0.36000
7980553;-0.40500
7983331;-0.43500
7986109;-0.45500
7988887;-0.47000
7991664;-0.51000
7994442;-0.54000
7997220;-0.48000
7999998;-0.33500
8002776;-0.16000
8005553;0.03000
8008331;0.25000
8011109;0.53500
8013887;0.83500
8016664;1.06500
8019442;1.19500
8022220;1.22500
8024998;1.12500
8027776;0.90500
8030553;0.61500
8033331;0.33500
8036109;0.10500
8038887;-0.10500
8041664;-0.27000
8044442;-0.42000
8047220;-0.49000
8049998;-0.46000
8052776;-0.40500
8055553;-0.35500
8058331;-0.33500
8061109;-0.34500
8063887;-0.35000
8066664;-0.33500
8069442;-0.33500
8072220;-0.32500
8074998;-0.34500
8077776;-0.35500
8080553;-0.36000
8083331;-0.35500
8086109;-0.34500
8088887;-0.34500
8091664;-0.35000
8094442;-0.36000
8097220;-0.35500
8099998;-0.35000
8102776;-0.34500
8105553;-0.33000
8108331;-0.33500
8111109;-0.34500
8113887;-0.35000
8116664;-0.35000
8119442;-0.34000
8122220;-0.34000
8124998;-0.34500
8127776;-0.34500
8130553;-0.34500
8133331;-0.33000
8136109;-0.32500
8138887;-0.33500
8141664;-0.33500
8144442;-0.35000
8147220;-0.35500
8149998;-0.36000
8152775;-0.34500
8155553;-0.34000
8158331;-0.35000
8161109;-0.36000
8163887;-0.35500
8166664;-0.34500
8169442;-0.33500
8172220;-0.34500
8174998;-0.35000
8177775;-0.37500
8180553;-0.38000
8183331;-0.35500
8186109;-0.34000
8188887;-0.34500
8191664;-0.34500
8194442;-0.35500
8197220;-0.36000
8199998;-0.34500
8202775;-0.34500
8205553;-0.34500
8208331;-0.34500
8211109;-0.36000
8213887;-0.35500
8216664;-0.34000
8219442;-0.33000
8222220;-0.33500
8224998;-0.34000
8227775;-0.35500
8230553;-0.35000
8233331;-0.35500
8236109;-0.35000
8238887;-0.34500
8241664;-0.35500
8244442;-0.36000
8247220;-0.37000
8249998;-0.36000
8252775;-0.35000
8255553;-0.36000
8258331;-0.36000
8261109;-0.37500
8263887;-0.38000
8266664;-0.36500
8269442;-0.34500
8272220;-0.35500
8274998;-0.35500
8277775;-0.37000
8280553;-0.37000
8283331;-0.37000
8286109;-0.36000
8288887;-0.35000
8291664;-0.36000
8294442;-0.36000
8297220;-0.34000
8299998;-0.32500
8302775;-0.30000
8305553;-0.30000
8308331;-0.29500
8311109;-0.29500
8313887;-0.28000
8316664;-0.27000
8319442;-0.26000
8322220;-0.25500
8324998;-0.25000
8327775;-0.25000
8330553;-0.26500
8333331;-0.25000
8336109;-0.23000
8338887;-0.23000
8341664;-0.25000
8344442;-0.23500
8347220;-0.23500
8349998;-0.22000
8352775;-0.23000
8355553;-0.23500
8358331;-0.24000
8361109;-0.25500
8363887;-0.25000
8366664;-0.24500
8369442;-0.24000
8372220;-0.23000
8374998;-0.23500
8377775;-0.24000
8380553;-0.25000
8383331;-0.24000
8386109;-0.24500
8388887;-0.23000
8391664;-0.24000
8394442;-0.25500
8397220;-0.27500
8399998;-0.26000
8402775;-0.25000
8405553;-0.24500
8408331;-0.24500
8411109;-0.26500
8413887;-0.27500
8416664;-0.27000
8419442;-0.25500
8422220;-0.26000
8424998;-0.26000
8427775;-0.26500
8430553;-0.26000
8433331;-0.27000
8436109;-0.25500
8438887;-0.27000
8441664;-0.28000
8444442;-0.29000
8447220;-0.29000
8449998;-0.29000
8452775;-0.28000
8455553;-0.29000
8458331;-0.28500
8461109;-0.28500
8463887;-0.29500
8466664;-0.30500
8469442;-0.28500
8472220;-0.28500
8474998;-0.28000
8477775;-0.28500
8480553;-0.29000
8483331;-0.29000
8486109;-0.28000
8488887;-0.28500
8491664;-0.29000
8494442;-0.29500
8497220;-0.31000
8499998;-0.29500
8502775;-0.30000
8505553;-0.28500
8508331;-0.29000
8511109;-0.30000
8513887;-0.30000
8516664;-0.29000
8519442;-0.28000
8522220;-0.30000
8524998;-0.29000
8527775;-0.29000
8530553;-0.29500
8533331;-0.27500
8536109;-0.26500
8538886;-0.26500
8541664;-0.28000
8544442;-0.28500
8547220;-0.29500
8549998;-0.28500
8552775;-0.27500
8555553;-0.27500
8558331;-0.27500
8561109;-0.27500
8563886;-0.27500
8566664;-0.27000
8569442;-0.27000
8572220;-0.26500
8574998;-0.26000
8577775;-0.24500
8580553;-0.22000
8583331;-0.21500
8586109;-0.20500
8588886;-0.22000
8591664;-0.21000
8594442;-0.21000
8597220;-0.21000
8599998;-0.19000
8602775;-0.17500
8605553;-0.15500
8608331;-0.17000
8611109;-0.17500
8613886;-0.19000
8616664;-0.18500
8619442;-0.17500
8622220;-0.18500
8624998;-0.19500
8627775;-0.19000
8630553;-0.19500
8633331;-0.20500
8636109;-0.21500
8638886;-0.20500
8641664;-0.18000
8644442;-0.15500
8647220;-0.16500
8649998;-0.19000
8652775;-0.20500
8655553;-0.23500
8658331;-0.26000
8661109;-0.28000
8663886;-0.30000
8666664;-0.29500
8669442;-0.30000
8672220;-0.29500
8674998;-0.29000
8677775;-0.29000
8680553;-0.29500
8683331;-0.28500
8686109;-0.29000
8688886;-0.29500
8691664;-0.30000
8694442;-0.31500
8697220;-0.32000
8699998;-0.32000
8702775;-0.30500
8705553;-0.30000
8708331;-0.29500
8711109;-0.30500
8713886;-0.31500
8716664;-0.32000
8719442;-0.32000
8722220;-0.32500
8724998;-0.31500
8727775;-0.31000
8730553;-0.32500
8733331;-0.30500
8736109;-0.31000
8738886;-0.31000
8741664;-0.33000
8744442;-0.36000
8747220;-0.40000
8749998;-0.41500
8752775;-0.42000
8755553;-0.46500
8758331;-0.51500
8761109;-0.51000
8763886;-0.43000
8766664;-0.28000
8769442;-0.11000
8772220;0.07000
8774998;0.29500
8777775;0.55000
8780553;0.78000
8783331;0.95000
8786109;0.99500
8788886;0.85500
8791664;0.53000
8794442;0.11000
8797220;-0.21500
8799998;-0.39000
8802775;-0.42000
8805553;-0.42000
8808331;-0.40000
8811109;-0.38000
8813886;-0.37500
8816664;-0.36500
8819442;-0.35000
8822220;-0.35000
8824998;-0.34000
8827775;-0.34500
8830553;-0.35000
8833331;-0.33500
8836109;-0.34000
8838886;-0.34000
8841664;-0.35500
8844442;-0.37500
8847220;-0.35500
8849998;-0.33500
8852775;-0.32000
8855553;-0.33000
8858331;-0.35000
8861109;-0.35000
8863886;-0.35500
8866664;-0.35000
8869442;-0.34500
8872220;-0.35500
8874998;-0.36000
8877775;-0.35500
8880553;-0.33500
8883331;-0.33000
8886109;-0.32500
8888886;-0.33000
8891664;-0.35000
8894442;-0.36500
8897220;-0.36500
8899998;-0.36500
8902775;-0.36000
8905553;-0.36000
8908331;-0.36500
8911109;-0.36500
8913886;-0.36000
8916664;-0.34500
8919442;-0.33500
8922220;-0.34000
8924998;-0.36000
8927775;-0.37000
8930553;-0.39000
8933331;-0.37500
8936109;-0.36500
8938886;-0.36500
8941664;-0.37000
8944442;-0.39500
8947220;-0.39000
8949997;-0.37500
8952775;-0.35000
8955553;-0.35000
8958331;-0.36000
8961109;-0.37500
8963886;-0.37500
8966664;-0.36500
8969442;-0.36500
8972220;-0.35000
8974997;-0.36500
8977775;-0.37500
8980553;-0.37000
8983331;-0.35000
8986109;-0.34000
8988886;-0.33500
8991664;-0.35000
8994442;-0.36500
8997220;-0.37500
8999997;-0.37500
9002775;-0.38000
9005553;-0.37000
9008331;-0.37500
9011109;-0.38500
9013886;-0.38500
9016664;-0.38000
9019442;-0.39000
9022220;-0.40000
9024997;-0.40000
9027775;-0.40000
9030553;-0.40500
9033331;-0.41000
9036109;-0.42000
9038886;-0.42000
9041664;-0.42500
9044442;-0.43000
9047220;-0.44500
9049997;-0.42500
9052775;-0.41500
9055553;-0.41000
9058331;-0.41000
9061109;-0.41000
9063886;-0.41500
9066664;-0.41000
9069442;-0.39500
9072220;-0.39000
9074997;-0.40000
9077775;-0.40500
9080553;-0.39500
9083331;-0.38500
9086109;-0.36000
9088886;-0.36000
9091664;-0.33500
9094442;-0.33000
9097220;-0.32000
9099997;-0.31000
9102775;-0.29500
9105553;-0.27000
9108331;-0.27500
9111109;-0.27500
9113886;-0.26500
9116664;-0.25000
9119442;-0.24000
9122220;-0.23000
9124997;-0.24000
9127775;-0.25500
9130553;-0.24500
9133331;-0.24000
9136109;-0.22500
9138886;-0.22500
9141664;-0.23000
9144442;-0.23500
9147220;-0.24000
9149997;-0.23000
9152775;-0.23500
9155553;-0.23000
9158331;-0.24000
9161109;-0.25500
9163886;-0.25000
9166664;-0.25000
9169442;-0.23500
9172220;-0.24000
9174997;-0.24000
9177775;-0.24500
9180553;-0.25500
9183331;-0.25000
9186109;-0.25000
9188886;-0.23500
9191664;-0.25000
9194442;-0.26500
9197220;-0.27500
9199997;-0.25000
9202775;-0.24000
9205553;-0.25500
9208331;-0.26500
9211109;-0.27500
9213886;-0.27000
9216664;-0.26000
9219442;-0.26000
9222220;-0.26000
9224997;-0.25500
9227775;-0.28000
9230553;-0.28500
9233331;-0.27500
9236109;-0.26000
9238886;-0.27000
9241664;-0.28500
9244442;-0.28000
9247220;-0.29500
9249997;-0.27000
9252775;-0.26000
9255553;-0.26500
9258331;-0.27000
9261109;-0.27500
9263886;-0.28000
9266664;-0.27500
9269442;-0.26500
9272220;-0.27500
9274997;-0.27000
9277775;-0.29000
9280553;-0.29000
9283331;-0.28000
9286109;-0.27000
9288886;-0.28500
9291664;-0.28500
9294442;-0.28000
9297220;-0.28500
9299997;-0.28500
9302775;-0.27500
9305553;-0.27000
9308331;-0.28000
9311109;-0.29000
9313886;-0.29500
9316664;-0.28500
9319442;-0.28000
9322220;-0.26500
9324997;-0.27500
9327775;-0.27500
9330553;-0.29000
9333331;-0.29000
9336108;-0.27500
9338886;-0.27500
9341664;-0.27500
9344442;-0.29000
9347220;-0.28000
9349997;-0.28000
9352775;-0.27500
9355553;-0.26000
9358331;-0.27500
9361108;-0.28000
9363886;-0.27000
9366664;-0.26500
9369442;-0.23000
9372220;-0.22500
9374997;-0.22000
9377775;-0.22500
9380553;-0.22500
9383331;-0.20500
9386108;-0.20000
9388886;-0.19500
9391664;-0.19000
9394442;-0.18000
9397220;-0.17500
9399997;-0.17000
9402775;-0.16500
9405553;-0.16500
9408331;-0.17000
9411108;-0.18500
9413886;-0.19500
9416664;-0.19500
9419442;-0.18500
9422220;-0.18000
9424997;-0.18000
9427775;-0.19500
9430553;-0.20500
9433331;-0.20500
9436108;-0.18500
9438886;-0.16000
9441664;-0.14500
9444442;-0.16500
9447220;-0.19000
9449997;-0.21500
9452775;-0.22500
9455553;-0.23000
9458331;-0.23000
9461108;-0.24500
9463886;-0.27000
9466664;-0.27000
9469442;-0.25500
9472220;-0.29000
9474997;-0.29000
9477775;-0.31000
9480553;-0.31500
9483331;-0.30500
9486108;-0.30500
9488886;-0.30000
9491664;-0.30000
9494442;-0.31000
9497220;-0.31000
9499997;-0.31500
9502775;-0.30500
9505553;-0.30500
9508331;-0.31000
9511108;-0.32000
9513886;-0.31500
9516664;-0.32500
9519442;-0.31000
9522220;-0.31000
9524997;-0.31000
9527775;-0.32000
9530553;-0.32500
9533331;-0.31500
9536108;-0.32000
9538886;-0.32000
9541664;-0.34000
9544442;-0.38500
9547220;-0.43500
9549997;-0.44000
9552775;-0.45000
9555553;-0.48000
9558331;-0.51500
9561108;-0.48500
9563886;-0.35500
9566664;-0.19500
9569442;-0.02000
9572220;0.16000
9574997;0.40500
9577775;0.67500
9580553;0.89500
9583331;1.05500
9586108;1.10000
9588886;0.94500
9591664;0.60000
9594442;0.13000
9597220;-0.26500
9599997;-0.44000
9602775;-0.45000
9605553;-0.40000
9608331;-0.35500
9611108;-0.35500
9613886;-0.34500
9616664;-0.34500
9619442;-0.33500
9622220;-0.35000
9624997;-0.34500
9627775;-0.34500
9630553;-0.36000
9633331;-0.35500
9636108;-0.35500
9638886;-0.35000
9641664;-0.35500
9644442;-0.35500
9647220;-0.35000
9649997;-0.35500
9652775;-0.34500
9655553;-0.34500
9658331;-0.34000
9661108;-0.34000
9663886;-0.34000
9666664;-0.33000
9669442;-0.32000
9672220;-0.32000
9674997;-0.32500
9677775;-0.34500
9680553;-0.36000
9683331;-0.35500
9686108;-0.34500
9688886;-0.34500
9691664;-0.35000
9694442;-0.37000
9697220;-0.37000
9699997;-0.36000
9702775;-0.34500
9705553;-0.34500
9708331;-0.35000
9711108;-0.36500
9713886;-0.37000
9716664;-0.35000
9719442;-0.34500
9722220;-0.36000
9724997;-0.35500
9727775;-0.37500
9730553;-0.38500
9733331;-0.36000
9736108;-0.35000
9738886;-0.36000
9741664;-0.36500
9744442;-0.36000
9747219;-0.36500
9749997;-0.36000
9752775;-0.36000
9755553;-0.35500
9758331;-0.35500
9761108;-0.35500
9763886;-0.37000
9766664;-0.35500
9769442;-0.35000
9772219;-0.35000
9774997;-0.35000
9777775;-0.37000
9780553;-0.37500
9783331;-0.36500
9786108;-0.35500
9788886;-0.36000
9791664;-0.36000
9794442;-0.37000
9797219;-0.37500
9799997;-0.37000
9802775;-0.35500
9805553;-0.36000
9808331;-0.36500
9811108;-0.37500
9813886;-0.38500
9816664;-0.38000
9819442;-0.38000
9822219;-0.38000
9824997;-0.38000
9827775;-0.40000
9830553;-0.40000
9833331;-0.40000
9836108;-0.39000
9838886;-0.39000
9841664;-0.40000
9844442;-0.40000
9847219;-0.40500
9849997;-0.39000
9852775;-0.39500
9855553;-0.38500
9858331;-0.38500
9861108;-0.38000
9863886;-0.37500
9866664;-0.37000
9869442;-0.35000
9872219;-0.34000
9874997;-0.33500
9877775;-0.32500
9880553;-0.32500
9883331;-0.31000
9886108;-0.29500
9888886;-0.27500
9891664;-0.28000
9894442;-0.27000
9897219;-0.27500
9899997;-0.26500
9902775;-0.25500
9905553;-0.25000
9908331;-0.25000
9911108;-0.25500
9913886;-0.26500
9916664;-0.24000
9919442;-0.24500
9922219;-0.23500
9924997;-0.24500
9927775;-0.25000
9930553;-0.24500
9933331;-0.23500
9936108;-0.23500
9938886;-0.23000
9941664;-0.23500
9944442;-0.25000
9947219;-0.24000
9949997;-0.24000
9952775;-0.22500
9955553;-0.22000
9958331;-0.23000
9961108;-0.24000
9963886;-0.24000
9966664;-0.24000
9969442;-0.23000
9972219;-0.22500
9974997;-0.23500
9977775;-0.24000
9980553;-0.25000
9983331;-0.24000
9986108;-0.23500
9988886;-0.23500
9991664;-0.24500
9994442;-0.25500
9997219;-0.25500
9999997;-0.25000
10002775;-0.24500
10005553;-0.24500
10008331;-0.25500
10011108;-0.25500
10013886;-0.25500
10016664;-0.25500
10019442;-0.25500
10022219;-0.25500
10024997;-0.26000
10027775;-0.26500
10030553;-0.28000
10033331;-0.27000
10036108;-0.26500
10038886;-0.26500
10041664;-0.27000
10044442;-0.27500
10047219;-0.27500
10049997;-0.28000
10052775;-0.27000
10055553;-0.27000
10058331;-0.28500
10061108;-0.28500
10063886;-0.28000
10066664;-0.28000
10069442;-0.27500
10072219;-0.27500
10074997;-0.27500
10077775;-0.28500
10080553;-0.29000
10083331;-0.28500
10086108;-0.27500
10088886;-0.27000
10091664;-0.27000
10094442;-0.28000
10097219;-0.28500
10099997;-0.28000
10102775;-0.27000
10105553;-0.26500
10108331;-0.27500
10111108;-0.27500
10113886;-0.28000
10116664;-0.28000
10119442;-0.27000
10122219;-0.27000
10124997;-0.27500
10127775;-0.28500
10130553;-0.28500
10133330;-0.27500
10136108;-0.27500
10138886;-0.27500
10141664;-0.27500
10144442;-0.28500
10147219;-0.29500
10149997;-0.28000
10152775;-0.28000
10155553;-0.27000
10158330;-0.27500
10161108;-0.28500
10163886;-0.28000
10166664;-0.28500
10169442;-0.27000
10172219;-0.26000
10174997;-0.27000
10177775;-0.27000
10180553;-0.27000
10183330;-0.26000
10186108;-0.24000
10188886;-0.21500
10191664;-0.21000
10194442;-0.20000
10197219;-0.21500
10199997;-0.21000
10202775;-0.19000
10205553;-0.18000
10208330;-0.18000
10211108;-0.17000
10213886;-0.17500
10216664;-0.16000
10219442;-0.16000
10222219;-0.16500
10224997;-0.17000
10227775;-0.19000
10230553;-0.19000
10233330;-0.19000
10236108;-0.18000
10238886;-0.17000
10241664;-0.19000
10244442;-0.18500
10247219;-0.21500
10249997;-0.21000
10252775;-0.16000
10255553;-0.16000
10258330;-0.18000
10261108;-0.20000
10263886;-0.23000
10266664;-0.23000
10269442;-0.23500
10272219;-0.25000
10274997;-0.26500
10277775;-0.28000
10280553;-0.29500
10283330;-0.28500
10286108;-0.28000
10288886;-0.28500
10291664;-0.29000
10294442;-0.29000
10297219;-0.30500
10299997;-0.30500
10302775;-0.29500
10305553;-0.30000
10308330;-0.29000
10311108;-0.30500
10313886;-0.32000
10316664;-0.30000
10319442;-0.30500
10322219;-0.30000
10324997;-0.30500
10327775;-0.31500
10330553;-0.31500
10333330;-0.31000
10336108;-0.30000
10338886;-0.30000
10341664;-0.30000
10344442;-0.31000
10347219;-0.32500
10349997;-0.31000
10352775;-0.32000
10355553;-0.32000
10358330;-0.36500
10361108;-0.41000
10363886;-0.45000
10366664;-0.46500
10369442;-0.49000
10372219;-0.51000
10374997;-0.48000
10377775;-0.36000
10380553;-0.20000
10383330;-0.01500
10386108;0.18500
10388886;0.43500
10391664;0.71500
10394442;0.94500
10397219;1.08000
10399997;1.10000
10402775;0.94500
10405553;0.57000
10408330;0.06500
10411108;-0.30500
10413886;-0.44500
10416664;-0.41500
10419442;-0.35000
10422219;-0.31500
10424997;-0.31000
10427775;-0.33000
10430553;-0.34500
10433330;-0.34000
10436108;-0.34000
10438886;-0.33500
10441664;-0.35000
10444442;-0.35000
10447219;-0.36500
10449997;-0.36000
10452775;-0.34500
10455553;-0.34500
10458330;-0.36000
10461108;-0.36500
10463886;-0.36500
10466664;-0.35500
10469442;-0.34500
10472219;-0.35000
10474997;-0.35000
10477775;-0.35500
10480553;-0.37000
10483330;-0.35000
10486108;-0.35500
10488886;-0.35000
10491664;-0.36000
10494442;-0.35500
10497219;-0.36500
10499997;-0.35500
10502775;-0.35500
10505553;-0.35500
10508330;-0.36500
10511108;-0.37000
10513886;-0.37000
10516664;-0.36000
10519441;-0.35000
10522219;-0.34000
10524997;-0.36000
10527775;-0.36500
10530553;-0.37000
10533330;-0.36000
10536108;-0.35000
10538886;-0.34000
10541664;-0.34500
10544441;-0.36000
10547219;-0.37000
10549997;-0.36000
10552775;-0.35000
10555553;-0.35000
10558330;-0.35000
10561108;-0.35500
10563886;-0.36000
10566664;-0.36500
10569441;-0.36000
10572219;-0.35000
10574997;-0.35000
10577775;-0.35500
10580553;-0.35500
10583330;-0.35000
10586108;-0.34500
10588886;-0.34500
10591664;-0.35000
10594441;-0.35000
10597219;-0.35500
10599997;-0.35000
10602775;-0.34500
10605553;-0.35000
10608330;-0.35500
10611108;-0.36000
10613886;-0.36500
10616664;-0.34500
10619441;-0.34500
10622219;-0.34500
10624997;-0.35500
10627775;-0.35500
10630553;-0.36500
10633330;-0.36500
10636108;-0.35500
10638886;-0.36000
10641664;-0.35500
10644441;-0.36000
10647219;-0.36500
10649997;-0.35500
10652775;-0.34000
10655553;-0.34500
10658330;-0.34500
10661108;-0.35000
10663886;-0.36000
10666664;-0.35000
10669441;-0.35500
10672219;-0.34500
10674997;-0.35500
10677775;-0.36000
10680553;-0.36000
10683330;-0.35500
10686108;-0.34500
10688886;-0.34000
10691664;-0.34000
10694441;-0.32500
10697219;-0.32000
10699997;-0.31000
10702775;-0.29000
10705553;-0.27500
10708330;-0.27000
10711108;-0.26000
10713886;-0.26000
10716664;-0.22000
10719441;-0.20000
10722219;-0.17500
10724997;-0.15000
10727775;-0.13500
10730553;-0.12000
10733330;-0.10000
10736108;-0.09000
10738886;-0.09000
10741664;-0.09000
10744441;-0.09000
10747219;-0.07500
10749997;-0.06500
10752775;-0.07500
10755553;-0.08000
10758330;-0.09500
10761108;-0.11000
10763886;-0.13000
10766664;-0.14000
10769441;-0.15000
10772219;-0.15500
10774997;-0.17000
10777775;-0.19000
10780553;-0.19000
10783330;-0.18500
10786108;-0.18500
10788886;-0.19000
10791664;-0.20000
10794441;-0.21000
10797219;-0.21500
10799997;-0.22000
10802775;-0.23000
10805553;-0.23000
10808330;-0.24500
10811108;-0.25000
10813886;-0.26500
10816664;-0.26500
10819441;-0.28000
10822219;-0.28000
10824997;-0.29000
10827775;-0.29500
10830553;-0.31000
10833330;-0.30500
10836108;-0.29000
10838886;-0.31000
10841664;-0.31000
10844441;-0.32000
10847219;-0.32000
10849997;-0.32500
10852775;-0.31500
10855553;-0.31500
10858330;-0.33000
10861108;-0.33500
10863886;-0.34500
10866664;-0.34500
10869441;-0.34000
10872219;-0.33000
10874997;-0.33500
10877775;-0.34500
10880553;-0.34500
10883330;-0.35000
10886108;-0.34000
10888886;-0.33500
10891664;-0.33500
10894441;-0.34000
10897219;-0.34000
10899997;-0.33000
10902775;-0.34000
10905553;-0.34000
10908330;-0.35500
10911108;-0.39500
10913886;-0.41000
10916664;-0.40000
10919441;-0.39500
10922219;-0.40000
10924997;-0.39500
10927775;-0.30500
10930552;-0.14000
10933330;0.06500
10936108;0.25000
10938886;0.43500
10941664;0.63500
10944441;0.85500
10947219;1.01500
10949997;1.08000
10952775;0.96500
10955552;0.62500
10958330;0.17000
10961108;-0.21500
10963886;-0.44500
10966664;-0.50500
10969441;-0.49000
10972219;-0.48000
10974997;-0.45000
10977775;-0.41500
10980552;-0.39000
10983330;-0.36000
10986108;-0.35500
10988886;-0.36000
10991664;-0.36000
10994441;-0.36500
10997219;-0.36000
10999997;-0.36000
11002775;-0.36000
11005552;-0.36500
11008330;-0.37000
11011108;-0.38000
11013886;-0.39500
11016664;-0.37500
11019441;-0.36500
11022219;-0.36500
11024997;-0.37500
11027775;-0.38000
11030552;-0.39000
11033330;-0.38500
11036108;-0.38000
11038886;-0.36500
11041664;-0.36500
11044441;-0.37500
11047219;-0.38000
11049997;-0.37000
11052775;-0.36000
11055552;-0.36500
11058330;-0.37500
11061108;-0.37000
11063886;-0.38000
11066664;-0.38500
11069441;-0.36500
11072219;-0.36000
11074997;-0.36000
11077775;-0.37500
11080552;-0.38000
11083330;-0.36500
11086108;-0.37000
11088886;-0.36500
11091664;-0.37500
11094441;-0.37500
11097219;-0.38500
11099997;-0.37000
11102775;-0.35500
11105552;-0.34500
11108330;-0.35000
11111108;-0.36000
11113886;-0.37500
11116664;-0.36500
11119441;-0.35500
11122219;-0.35000
11124997;-0.36500
11127775;-0.35500
11130552;-0.37500
11133330;-0.37000
11136108;-0.36000
11138886;-0.36000
11141664;-0.36000
11144441;-0.36000
11147219;-0.37000
11149997;-0.36000
11152775;-0.35500
11155552;-0.36000
11158330;-0.35500
11161108;-0.35500
11163886;-0.37500
11166664;-0.36000
11169441;-0.35500
11172219;-0.35000
11174997;-0.36000
11177775;-0.35500
11180552;-0.37000
11183330;-0.36500
11186108;-0.36500
11188886;-0.36000
11191664;-0.36500
11194441;-0.37500
11197219;-0.38000
11199997;-0.37500
11202775;-0.36500
11205552;-0.36500
11208330;-0.35500
11211108;-0.36000
11213886;-0.36500
11216664;-0.35000
11219441;-0.35000
11222219;-0.34000
11224997;-0.35000
11227775;-0.35500
11230552;-0.36500
11233330;-0.35000
11236108;-0.34000
11238886;-0.33500
11241664;-0.34000
11244441;-0.34000
11247219;-0.34000
11249997;-0.32500
11252775;-0.31500
11255552;-0.31000
11258330;-0.30500
11261108;-0.31000
11263886;-0.32000
11266664;-0.31500
11269441;-0.30500
11272219;-0.30000
11274997;-0.30500
11277775;-0.30000
11280552;-0.29500
11283330;-0.30500
11286108;-0.30000
11288886;-0.29500
11291664;-0.30500
11294441;-0.32000
11297219;-0.33000
11299997;-0.31500
11302775;-0.31500
11305552;-0.29500
11308330;-0.30500
11311108;-0.31500
11313886;-0.32000
11316663;-0.31500
11319441;-0.30000
11322219;-0.29500
11324997;-0.30000
11327775;-0.30500
11330552;-0.31500
11333330;-0.32000
11336108;-0.31000
11338886;-0.31500
11341663;-0.31500
11344441;-0.32500
11347219;-0.36000
11349997;-0.33500
11352775;-0.32500
11355552;-0.30500
11358330;-0.31000
11361108;-0.32500
11363886;-0.33500
11366663;-0.33000
11369441;-0.32000
11372219;-0.31500
11374997;-0.33000
11377775;-0.31500
11380552;-0.34000
11383330;-0.33000
11386108;-0.34000
11388886;-0.32000
11391663;-0.32500
11394441;-0.33500
11397219;-0.34500
11399997;-0.34500
11402775;-0.33000
11405552;-0.32500
11408330;-0.32500
11411108;-0.32500
11413886;-0.33000
11416663;-0.32500
11419441;-0.32000
11422219;-0.32000
11424997;-0.32000
11427775;-0.33500
11430552;-0.35000
11433330;-0.34500
11436108;-0.34000
11438886;-0.34000
11441663;-0.33500
11444441;-0.33500
11447219;-0.34000
11449997;-0.34500
11452775;-0.33500
11455552;-0.32500
11458330;-0.33500
11461108;-0.35000
11463886;-0.36500
11466663;-0.35000
11469441;-0.33500
11472219;-0.33500
11474997;-0.34000
11477775;-0.35000
11480552;-0.35000
11483330;-0.34500
11486108;-0.33500
11488886;-0.33000
11491663;-0.34000
11494441;-0.34000
11497219;-0.35000
11499997;-0.34500
11502775;-0.34500
11505552;-0.33500
11508330;-0.33500
11511108;-0.35000
11513886;-0.36500
11516663;-0.35500
11519441;-0.34500
11522219;-0.36000
11524997;-0.36000
11527775;-0.35500
11530552;-0.36000
11533330;-0.35000
11536108;-0.34000
11538886;-0.32500
11541663;-0.33000
11544441;-0.34500
11547219;-0.35500
11549997;-0.35500
11552775;-0.34500
11555552;-0.34500
11558330;-0.35000
11561108;-0.36000
11563886;-0.36500
11566663;-0.37000
11569441;-0.35500
11572219;-0.34000
11574997;-0.33500
11577775;-0.34000
11580552;-0.35000
11583330;-0.34500
11586108;-0.34500
11588886;-0.34000
11591663;-0.35000
11594441;-0.36000
11597219;-0.37000
11599997;-0.37000
11602775;-0.34500
11605552;-0.34000
11608330;-0.35000
11611108;-0.34500
11613886;-0.36000
11616663;-0.35500
11619441;-0.35500
11622219;-0.35000
11624997;-0.35000
11627775;-0.35500
11630552;-0.38000
11633330;-0.36500
11636108;-0.37000
11638886;-0.36000
11641663;-0.36000
11644441;-0.37000
11647219;-0.38000
11649997;-0.36500
11652775;-0.35000
11655552;-0.35000
11658330;-0.35000
11661108;-0.36500
11663886;-0.37500
11666663;-0.36500
11669441;-0.35500
11672219;-0.34500
11674997;-0.35000
11677775;-0.35000
11680552;-0.36500
11683330;-0.36500
11686108;-0.35500
11688886;-0.36500
11691663;-0.36000
11694441;-0.37000
11697219;-0.37000
11699997;-0.36500
11702775;-0.35000
11705552;-0.35000
11708330;-0.36000
11711108;-0.36500
11713886;-0.38000
11716663;-0.35500
11719441;-0.34500
11722219;-0.35000
11724997;-0.34500
11727774;-0.32500
11730552;-0.33000
11733330;-0.32000
11736108;-0.30500
11738886;-0.30000
11741663;-0.30000
11744441;-0.30500
11747219;-0.29500
11749997;-0.28000
11752774;-0.26500
11755552;-0.25000
11758330;-0.26500
11761108;-0.26500
11763886;-0.27500
11766663;-0.25500
11769441;-0.25500
11772219;-0.25500
11774997;-0.27000
11777774;-0.28000
11780552;-0.30000
11783330;-0.29500
11786108;-0.28000
11788886;-0.26500
11791663;-0.26500
11794441;-0.27000
11797219;-0.29500
11799997;-0.30000
11802774;-0.30500
11805552;-0.29500
11808330;-0.27500
11811108;-0.27500
11813886;-0.28000
11816663;-0.29500
11819441;-0.31500
11822219;-0.32000
11824997;-0.33500
11827774;-0.35500
11830552;-0.36000
11833330;-0.37500
11836108;-0.37000
11838886;-0.38500
11841663;-0.39000
11844441;-0.38000
11847219;-0.40000
11849997;-0.39000
11852774;-0.38500
11855552;-0.38000
11858330;-0.38500
11861108;-0.39500
11863886;-0.40500
11866663;-0.40000
11869441;-0.38500
11872219;-0.37500
11874997;-0.40000
11877774;-0.39500
11880552;-0.41500
11883330;-0.39500
11886108;-0.39500
11888886;-0.38500
11891663;-0.39500
11894441;-0.40500
11897219;-0.42000
11899997;-0.44000
11902774;-0.45500
11905552;-0.47000
11908330;-0.49500
11911108;-0.52500
11913886;-0.57500
11916663;-0.61500
11919441;-0.60500
11922219;-0.55500
11924997;-0.46500
11927774;-0.36000
11930552;-0.28500
11933330;-0.20500
11936108;-0.10500
11938886;-0.00500
11941663;0.10000
11944441;0.24000
11947219;0.41500
11949997;0.59500
11952774;0.74500
11955552;0.86500
11958330;0.94500
11961108;0.92500
11963886;0.70500
11966663;0.34000
11969441;-0.02000
11972219;-0.28500
11974997;-0.43000
11977774;-0.49500
11980552;-0.50500
11983330;-0.47000
11986108;-0.45500
11988886;-0.43000
11991663;-0.43000
11994441;-0.44000
11997219;-0.44000
11999997;-0.43000
12002774;-0.41000
12005552;-0.42000
12008330;-0.43500
12011108;-0.46500
12013886;-0.47000
12016663;-0.45000
12019441;-0.45500
12022219;-0.45000
12024997;-0.46500
12027774;-0.45500
12030552;-0.46500
12033330;-0.44000
12036108;-0.42500
12038886;-0.42000
12041663;-0.43500
12044441;-0.45500
12047219;-0.45500
12049997;-0.46500
12052774;-0.45000
12055552;-0.45000
12058330;-0.44500
12061108;-0.46000
12063886;-0.46000
12066663;-0.45500
12069441;-0.46000
12072219;-0.47500
12074997;-0.46500
12077774;-0.47000
12080552;-0.46500
12083330;-0.45500
12086108;-0.45000
12088886;-0.45000
12091663;-0.45000
12094441;-0.44500
12097219;-0.44500
12099997;-0.44500
12102774;-0.43500
12105552;-0.44000
12108330;-0.45000
12111108;-0.46000
12113885;-0.47000
12116663;-0.45000
12119441;-0.43500
12122219;-0.43500
12124997;-0.44000
12127774;-0.45000
12130552;-0.46000
12133330;-0.46500
12136108;-0.44500
12138885;-0.43500
12141663;-0.44500
12144441;-0.46500
12147219;-0.48000
12149997;-0.47500
12152774;-0.45500
12155552;-0.45000
12158330;-0.45000
12161108;-0.44500
12163885;-0.46000
12166663;-0.46000
12169441;-0.44000
12172219;-0.43500
12174997;-0.44500
12177774;-0.45000
12180552;-0.46000
12183330;-0.47000
12186108;-0.47000
12188885;-0.47000
12191663;-0.45500
12194441;-0.47500
12197219;-0.47500
12199997;-0.49500
12202774;-0.48000
12205552;-0.48500
12208330;-0.49000
12211108;-0.49500
12213885;-0.51000
12216663;-0.50000
12219441;-0.50000
12222219;-0.49500
12224997;-0.50000
12227774;-0.51500
12230552;-0.52000
12233330;-0.52000
12236108;-0.50500
12238885;-0.50000
12241663;-0.49500
12244441;-0.50000
12247219;-0.49500
12249997;-0.48500
12252774;-0.47500
12255552;-0.47500
12258330;-0.47500
12261108;-0.46500
12263885;-0.47500
12266663;-0.46000
12269441;-0.45000
12272219;-0.43500
12274997;-0.44000
12277774;-0.43000
12280552;-0.42500
12283330;-0.41500
12286108;-0.40000
12288885;-0.37000
12291663;-0.36500
12294441;-0.36500
12297219;-0.35500
12299997;-0.35000
12302774;-0.33000
12305552;-0.32000
12308330;-0.32000
12311108;-0.32500
12313885;-0.32500
12316663;-0.31500
12319441;-0.30500
12322219;-0.29500
12324997;-0.30500
12327774;-0.31000
12330552;-0.32000
12333330;-0.30000
12336108;-0.31000
12338885;-0.31000
12341663;-0.31000
12344441;-0.31000
12347219;-0.32000
12349997;-0.30000
12352774;-0.28500
12355552;-0.28500
12358330;-0.28500
12361108;-0.29500
12363885;-0.31000
12366663;-0.30500
12369441;-0.31500
12372219;-0.29000
12374997;-0.30500
12377774;-0.30000
12380552;-0.31000
12383330;-0.29500
12386108;-0.30000
12388885;-0.29000
12391663;-0.30500
12394441;-0.31500
12397219;-0.32000
12399997;-0.32500
12402774;-0.31500
12405552;-0.31000
12408330;-0.31500
12411108;-0.32500
12413885;-0.33000
12416663;-0.32500
12419441;-0.32000
12422219;-0.31500
12424997;-0.33000
12427774;-0.33500
12430552;-0.34000
12433330;-0.33500
12436108;-0.32500
12438885;-0.34000
12441663;-0.34000
12444441;-0.36000
12447219;-0.36500
12449997;-0.36000
12452774;-0.34500
12455552;-0.34000
12458330;-0.35000
12461108;-0.36000
12463885;-0.36500
12466663;-0.35500
12469441;-0.34500
12472219;-0.34500
12474997;-0.35000
12477774;-0.35000
12480552;-0.36500
12483330;-0.35500
12486108;-0.34000
12488885;-0.34500
12491663;-0.35500
12494441;-0.36500
12497219;-0.36500
12499996;-0.36500
12502774;-0.36500
12505552;-0.36000
12508330;-0.35000
12511108;-0.35000
12513885;-0.36000
12516663;-0.35000
12519441;-0.35000
12522219;-0.37000
12524996;-0.35500
12527774;-0.35500
12530552;-0.36500
12533330;-0.35500
12536108;-0.35500
12538885;-0.34500
12541663;-0.35000
12544441;-0.35000
12547219;-0.36000
12549996;-0.35500
12552774;-0.35500
12555552;-0.34000
12558330;-0.34000
12561108;-0.36000
12563885;-0.36500
12566663;-0.36000
12569441;-0.35500
12572219;-0.34500
12574996;-0.35000
12577774;-0.34000
12580552;-0.35000
12583330;-0.34500
12586108;-0.33500
12588885;-0.32500
12591663;-0.33000
12594441;-0.33500
12597219;-0.33000
12599996;-0.32000
12602774;-0.30000
12605552;-0.29500
12608330;-0.28500
12611108;-0.29000
12613885;-0.28500
12616663;-0.28500
12619441;-0.27000
12622219;-0.26000
12624996;-0.26500
12627774;-0.26500
12630552;-0.27000
12633330;-0.26500
12636108;-0.25000
12638885;-0.25000
12641663;-0.25500
12644441;-0.26500
12647219;-0.27000
12649996;-0.28000
12652774;-0.28000
12655552;-0.26000
12658330;-0.27000
12661108;-0.28000
12663885;-0.30500
12666663;-0.29000
12669441;-0.26500
12672219;-0.24500
12674996;-0.25000
12677774;-0.28000
12680552;-0.32000
12683330;-0.32000
12686108;-0.33500
12688885;-0.34000
12691663;-0.36500
12694441;-0.37500
12697219;-0.38000
12699996;-0.38500
12702774;-0.38500
12705552;-0.37500
12708330;-0.38000
12711108;-0.38000
12713885;-0.39000
12716663;-0.39000
12719441;-0.38500
12722219;-0.37000
12724996;-0.37000
12727774;-0.38500
12730552;-0.39500
12733330;-0.39000
12736108;-0.38000
12738885;-0.38000
12741663;-0.38500
12744441;-0.40000
12747219;-0.40000
12749996;-0.38500
12752774;-0.38000
12755552;-0.38000
12758330;-0.39000
12761108;-0.39000
12763885;-0.40500
12766663;-0.40500
12769441;-0.42500
12772219;-0.45500
12774996;-0.49500
12777774;-0.53000
12780552;-0.57000
12783330;-0.59000
12786108;-0.58000
12788885;-0.49500
12791663;-0.36000
12794441;-0.20500
12797219;-0.03000
12799996;0.21500
12802774;0.51000
12805552;0.76500
12808330;0.95000
12811108;1.01000
