time_ms;ecg_value
0;-0.48500
2778;-0.49000
5556;-0.50000
8333;-0.50000
11111;-0.48000
13889;-0.46500
16667;-0.47000
19444;-0.48500
22222;-0.49500
25000;-0.49000
27778;-0.48500
30556;-0.48500
33333;-0.49500
36111;-0.49500
38889;-0.49500
41667;-0.48500
44444;-0.46500
47222;-0.46500
50000;-0.48000
52778;-0.49500
55556;-0.50000
58333;-0.49500
61111;-0.48500
63889;-0.46000
66667;-0.47500
69444;-0.48000
72222;-0.49000
75000;-0.49000
77778;-0.48000
80556;-0.47000
83333;-0.47500
86111;-0.48500
88889;-0.49000
91667;-0.49500
94444;-0.49000
97222;-0.49000
100000;-0.47500
102778;-0.49500
105556;-0.52000
108333;-0.51000
111111;-0.50500
113889;-0.49500
116667;-0.49000
119444;-0.50500
122222;-0.51500
125000;-0.51500
127778;-0.49000
130556;-0.46500
133333;-0.48000
136111;-0.49500
138889;-0.51500
141667;-0.51000
144444;-0.50000
147222;-0.49000
150000;-0.49000
152778;-0.50000
155556;-0.49500
158333;-0.50000
161111;-0.48500
163889;-0.47500
166667;-0.48000
169444;-0.49500
172222;-0.51000
175000;-0.51500
177778;-0.51000
180556;-0.50500
183333;-0.50000
186111;-0.51500
188889;-0.52500
191667;-0.52000
194444;-0.51000
197222;-0.49500
200000;-0.52000
202778;-0.53000
205555;-0.53500
208333;-0.52500
211111;-0.52500
213889;-0.52000
216667;-0.53000
219444;-0.54000
222222;-0.55000
225000;-0.54000
227778;-0.54000
230555;-0.53500
233333;-0.54000
236111;-0.55000
238889;-0.55000
241667;-0.53000
244444;-0.50500
247222;-0.47500
250000;-0.48000
252778;-0.48500
255555;-0.48500
258333;-0.47500
261111;-0.47000
263889;-0.45000
266667;-0.45500
269444;-0.45500
272222;-0.46000
275000;-0.45500
277778;-0.42000
280555;-0.39000
283333;-0.38000
286111;-0.38500
288889;-0.40000
291667;-0.39000
294444;-0.38000
297222;-0.37500
300000;-0.37500
302778;-0.39000
305555;-0.38500
308333;-0.38500
311111;-0.37000
313889;-0.36000
316667;-0.38000
319444;-0.38000
322222;-0.39500
325000;-0.38000
327778;-0.36000
330555;-0.36500
333333;-0.36500
336111;-0.37000
338889;-0.38500
341667;-0.37500
344444;-0.36500
347222;-0.36000
350000;-0.37500
352778;-0.38500
355555;-0.39500
358333;-0.39000
361111;-0.39000
363889;-0.38500
366667;-0.37500
369444;-0.38500
372222;-0.40000
375000;-0.40500
377778;-0.39000
380555;-0.39000
383333;-0.39000
386111;-0.40000
388889;-0.40500
391667;-0.39500
394444;-0.39000
397222;-0.38500
400000;-0.38000
402778;-0.39500
405555;-0.40500
408333;-0.40000
411111;-0.39000
413889;-0.38000
416667;-0.39000
419444;-0.40000
422222;-0.40500
425000;-0.41500
427778;-0.40500
430555;-0.40000
433333;-0.39000
436111;-0.40000
438889;-0.42000
441667;-0.42500
444444;-0.41000
447222;-0.40000
450000;-0.40500
452778;-0.42000
455555;-0.42000
458333;-0.41500
461111;-0.40000
463889;-0.39500
466667;-0.40500
469444;-0.41000
472222;-0.41000
475000;-0.41000
477778;-0.40500
480555;-0.39000
483333;-0.40000
486111;-0.40000
488889;-0.40500
491667;-0.39500
494444;-0.40000
497222;-0.40000
500000;-0.38500
502778;-0.39500
505555;-0.42000
508333;-0.40500
511111;-0.40000
513889;-0.38000
516667;-0.39000
519444;-0.38500
522222;-0.39000
525000;-0.37000
527778;-0.36000
530555;-0.36000
533333;-0.36000
536111;-0.35500
538889;-0.36500
541667;-0.35500
544444;-0.34500
547222;-0.33000
550000;-0.33000
552778;-0.33500
555555;-0.33500
558333;-0.32500
561111;-0.32000
563889;-0.31500
566667;-0.30000
569444;-0.30500
572222;-0.30500
575000;-0.29500
577778;-0.28000
580555;-0.27000
583333;-0.27500
586111;-0.30000
588889;-0.31500
591667;-0.31000
594444;-0.29500
597222;-0.28000
600000;-0.28000
602778;-0.29000
605555;-0.29000
608333;-0.26500
611111;-0.25500
613889;-0.26500
616666;-0.31000
619444;-0.34000
622222;-0.35500
625000;-0.36500
627778;-0.38500
630555;-0.38000
633333;-0.39000
636111;-0.40500
638889;-0.42500
641666;-0.41000
644444;-0.41000
647222;-0.41000
650000;-0.40500
652778;-0.42500
655555;-0.43500
658333;-0.42500
661111;-0.42000
663889;-0.40500
666666;-0.41500
669444;-0.41500
672222;-0.43000
675000;-0.42000
677778;-0.41500
680555;-0.41500
683333;-0.42000
686111;-0.42500
688889;-0.43500
691666;-0.42500
694444;-0.42500
697222;-0.41500
700000;-0.44000
702778;-0.47500
705555;-0.50500
708333;-0.54500
711111;-0.56000
713889;-0.57500
716666;-0.61000
719444;-0.61000
722222;-0.52500
725000;-0.36500
727778;-0.21000
730555;-0.00500
733333;0.26000
736111;0.54000
738889;0.75500
741666;0.84500
744444;0.75500
747222;0.43500
750000;-0.01000
752778;-0.38500
755555;-0.56500
758333;-0.57500
761111;-0.53000
763889;-0.47500
766666;-0.45000
769444;-0.46000
772222;-0.48500
775000;-0.47000
777778;-0.45500
780555;-0.44500
783333;-0.45500
786111;-0.47000
788889;-0.46500
791666;-0.47000
794444;-0.47000
797222;-0.46000
800000;-0.46500
802778;-0.48000
805555;-0.49000
808333;-0.48000
811111;-0.47000
813889;-0.47000
816666;-0.47500
819444;-0.47500
822222;-0.48000
825000;-0.48000
827778;-0.46500
830555;-0.47000
833333;-0.47000
836111;-0.46000
838889;-0.48000
841666;-0.47000
844444;-0.46000
847222;-0.45500
850000;-0.47000
852778;-0.46500
855555;-0.47500
858333;-0.46500
861111;-0.46000
863889;-0.46000
866666;-0.45500
869444;-0.46000
872222;-0.46500
875000;-0.46500
877778;-0.46000
880555;-0.45500
883333;-0.46500
886111;-0.47000
888889;-0.47500
891666;-0.48000
894444;-0.47500
897222;-0.45500
900000;-0.45000
902778;-0.46000
905555;-0.47000
908333;-0.46500
911111;-0.46500
913889;-0.45000
916666;-0.46000
919444;-0.46500
922222;-0.47000
925000;-0.46500
927778;-0.45500
930555;-0.44500
933333;-0.44000
936111;-0.45000
938889;-0.45500
941666;-0.45000
944444;-0.45500
947222;-0.46000
950000;-0.46000
952778;-0.48000
955555;-0.48500
958333;-0.48000
961111;-0.47500
963889;-0.47500
966666;-0.45500
969444;-0.47500
972222;-0.48000
975000;-0.48000
977778;-0.46500
980555;-0.46500
983333;-0.46500
986111;-0.48000
988889;-0.48500
991666;-0.48000
994444;-0.46500
997222;-0.47000
1000000;-0.47000
1002777;-0.46500
1005555;-0.48500
1008333;-0.47500
1011111;-0.45000
1013889;-0.45000
1016666;-0.44500
1019444;-0.44500
1022222;-0.45500
1025000;-0.44000
1027777;-0.42000
1030555;-0.41000
1033333;-0.40000
1036111;-0.39000
1038889;-0.39500
1041666;-0.37500
1044444;-0.35000
1047222;-0.34500
1050000;-0.34500
1052777;-0.35500
1055555;-0.34500
1058333;-0.35500
1061111;-0.33500
1063889;-0.32500
1066666;-0.33000
1069444;-0.34000
1072222;-0.35500
1075000;-0.33500
1077777;-0.34000
1080555;-0.32500
1083333;-0.34500
1086111;-0.35000
1088889;-0.35000
1091666;-0.34500
1094444;-0.34000
1097222;-0.33000
1100000;-0.32500
1102777;-0.33500
1105555;-0.33500
1108333;-0.33500
1111111;-0.32500
1113889;-0.32500
1116666;-0.33500
1119444;-0.34000
1122222;-0.35000
1125000;-0.34000
1127777;-0.32500
1130555;-0.33000
1133333;-0.32500
1136111;-0.33500
1138889;-0.34000
1141666;-0.34000
1144444;-0.33500
1147222;-0.34000
1150000;-0.34000
1152777;-0.35500
1155555;-0.36000
1158333;-0.35000
1161111;-0.35000
1163889;-0.34000
1166666;-0.34500
1169444;-0.36000
1172222;-0.36500
1175000;-0.35000
1177777;-0.34500
1180555;-0.34500
1183333;-0.35000
1186111;-0.35500
1188889;-0.36500
1191666;-0.36500
1194444;-0.35000
1197222;-0.34500
1200000;-0.36000
1202777;-0.36500
1205555;-0.37500
1208333;-0.36500
1211111;-0.36500
1213889;-0.35000
1216666;-0.35000
1219444;-0.37000
1222222;-0.36500
1225000;-0.36500
1227777;-0.35500
1230555;-0.35500
1233333;-0.36500
1236111;-0.37000
1238889;-0.37500
1241666;-0.37500
1244444;-0.36000
1247222;-0.36000
1250000;-0.35500
1252777;-0.36500
1255555;-0.37000
1258333;-0.36000
1261111;-0.35500
1263889;-0.35000
1266666;-0.34500
1269444;-0.36000
1272222;-0.36500
1275000;-0.35500
1277777;-0.35000
1280555;-0.34000
1283333;-0.34000
1286111;-0.32500
1288889;-0.34000
1291666;-0.32500
1294444;-0.31000
1297222;-0.30000
1300000;-0.29000
1302777;-0.29500
1305555;-0.30500
1308333;-0.28500
1311111;-0.28000
1313889;-0.27000
1316666;-0.26000
1319444;-0.25500
1322222;-0.26000
1325000;-0.24500
1327777;-0.24000
1330555;-0.22500
1333333;-0.21500
1336111;-0.23000
1338889;-0.23500
1341666;-0.25000
1344444;-0.24500
1347222;-0.24000
1350000;-0.22500
1352777;-0.23000
1355555;-0.24000
1358333;-0.22500
1361111;-0.19500
1363889;-0.18000
1366666;-0.19000
1369444;-0.23000
1372222;-0.28500
1375000;-0.29000
1377777;-0.29000
1380555;-0.30500
1383333;-0.32500
1386111;-0.33000
1388888;-0.35500
1391666;-0.35500
1394444;-0.35000
1397222;-0.35500
1400000;-0.35500
1402777;-0.36500
1405555;-0.37000
1408333;-0.36000
1411111;-0.35500
1413888;-0.36000
1416666;-0.35500
1419444;-0.35500
1422222;-0.37500
1425000;-0.37000
1427777;-0.37000
1430555;-0.36000
1433333;-0.36000
1436111;-0.37000
1438888;-0.39000
1441666;-0.38500
1444444;-0.37000
1447222;-0.38000
1450000;-0.37000
1452777;-0.39000
1455555;-0.39000
1458333;-0.39000
1461111;-0.38000
1463888;-0.36500
1466666;-0.37500
1469444;-0.40500
1472222;-0.44000
1475000;-0.47500
1477777;-0.48500
1480555;-0.49000
1483333;-0.53000
1486111;-0.57500
1488888;-0.58000
1491666;-0.50500
1494444;-0.36500
1497222;-0.21000
1500000;-0.05000
1502777;0.18000
1505555;0.45000
1508333;0.70500
1511111;0.86000
1513888;0.89000
1516666;0.76500
1519444;0.45000
1522222;0.05000
1525000;-0.31000
1527777;-0.49500
1530555;-0.53500
1533333;-0.51000
1536111;-0.47500
1538888;-0.44500
1541666;-0.42000
1544444;-0.42000
1547222;-0.41500
1550000;-0.41000
1552777;-0.41000
1555555;-0.42000
1558333;-0.43500
1561111;-0.42500
1563888;-0.41000
1566666;-0.42500
1569444;-0.43000
1572222;-0.43000
1575000;-0.43000
1577777;-0.43000
1580555;-0.42000
1583333;-0.42500
1586111;-0.43500
1588888;-0.43500
1591666;-0.44000
1594444;-0.43000
1597222;-0.42000
1600000;-0.43000
1602777;-0.43000
1605555;-0.44000
1608333;-0.43000
1611111;-0.42000
1613888;-0.41000
1616666;-0.41000
1619444;-0.41500
1622222;-0.42000
1625000;-0.40500
1627777;-0.40000
1630555;-0.38500
1633333;-0.40500
1636111;-0.41500
1638888;-0.41500
1641666;-0.42000
1644444;-0.40500
1647222;-0.41000
1650000;-0.40500
1652777;-0.42500
1655555;-0.43000
1658333;-0.42500
1661111;-0.42500
1663888;-0.41500
1666666;-0.41500
1669444;-0.44000
1672222;-0.45000
1675000;-0.43000
1677777;-0.42500
1680555;-0.41500
1683333;-0.41500
1686111;-0.42500
1688888;-0.43500
1691666;-0.43000
1694444;-0.41500
1697222;-0.41000
1700000;-0.41000
1702777;-0.43000
1705555;-0.42500
1708333;-0.42000
1711111;-0.40500
1713888;-0.40500
1716666;-0.40500
1719444;-0.40500
1722222;-0.42500
1725000;-0.42500
1727777;-0.42000
1730555;-0.41000
1733333;-0.40500
1736111;-0.41500
1738888;-0.42000
1741666;-0.42000
1744444;-0.41000
1747222;-0.40000
1750000;-0.40500
1752777;-0.40500
1755555;-0.41500
1758333;-0.42000
1761111;-0.40500
1763888;-0.39500
1766666;-0.41000
1769444;-0.41000
1772222;-0.42500
1775000;-0.41500
1777777;-0.40500
1780555;-0.39000
1783333;-0.40000
1786111;-0.39500
1788888;-0.42000
1791666;-0.41500
1794444;-0.40000
1797222;-0.39000
1799999;-0.39000
1802777;-0.39000
1805555;-0.39500
1808333;-0.39500
1811111;-0.36000
1813888;-0.36000
1816666;-0.37000
1819444;-0.35500
1822222;-0.36500
1824999;-0.35500
1827777;-0.34500
1830555;-0.34000
1833333;-0.33000
1836111;-0.32500
1838888;-0.32500
1841666;-0.32000
1844444;-0.31500
1847222;-0.30500
1849999;-0.30500
1852777;-0.30500
1855555;-0.31500
1858333;-0.31000
1861111;-0.32000
1863888;-0.30000
1866666;-0.30000
1869444;-0.31000
1872222;-0.32000
1874999;-0.30500
1877777;-0.30500
1880555;-0.29000
1883333;-0.30000
1886111;-0.30500
1888888;-0.31500
1891666;-0.32000
1894444;-0.31500
1897222;-0.31000
1899999;-0.31000
1902777;-0.32500
1905555;-0.32000
1908333;-0.32500
1911111;-0.31500
1913888;-0.31500
1916666;-0.31000
1919444;-0.32500
1922222;-0.33500
1924999;-0.33000
1927777;-0.31000
1930555;-0.31500
1933333;-0.32500
1936111;-0.32500
1938888;-0.33000
1941666;-0.33000
1944444;-0.32000
1947222;-0.31000
1949999;-0.31500
1952777;-0.32000
1955555;-0.33000
1958333;-0.33500
1961111;-0.33000
1963888;-0.32000
1966666;-0.33000
1969444;-0.34500
1972222;-0.34500
1974999;-0.34500
1977777;-0.34500
1980555;-0.34500
1983333;-0.35000
1986111;-0.35500
1988888;-0.36500
1991666;-0.36000
1994444;-0.35500
1997222;-0.35500
1999999;-0.35000
2002777;-0.35000
2005555;-0.36000
2008333;-0.37000
2011111;-0.35500
2013888;-0.34500
2016666;-0.35000
2019444;-0.36000
2022222;-0.36500
2024999;-0.35500
2027777;-0.36000
2030555;-0.34500
2033333;-0.35500
2036111;-0.36000
2038888;-0.37500
2041666;-0.36000
2044444;-0.36500
2047222;-0.36000
2049999;-0.35500
2052777;-0.35000
2055555;-0.36500
2058333;-0.36500
2061111;-0.34500
2063888;-0.34500
2066666;-0.35500
2069444;-0.36000
2072222;-0.36000
2074999;-0.35500
2077777;-0.34000
2080555;-0.33500
2083333;-0.33500
2086111;-0.34500
2088888;-0.36000
2091666;-0.35500
2094444;-0.35000
2097222;-0.33000
2099999;-0.32500
2102777;-0.31000
2105555;-0.31000
2108333;-0.31000
2111111;-0.29500
2113888;-0.28500
2116666;-0.28500
2119444;-0.28500
2122222;-0.29500
2124999;-0.28000
2127777;-0.27500
2130555;-0.26500
2133333;-0.26000
2136111;-0.25000
2138888;-0.25000
2141666;-0.23000
2144444;-0.21500
2147222;-0.20500
2149999;-0.21500
2152777;-0.23500
2155555;-0.25500
2158333;-0.25000
2161111;-0.24500
2163888;-0.23500
2166666;-0.23000
2169444;-0.23500
2172222;-0.24000
2174999;-0.23000
2177777;-0.19500
2180555;-0.20000
2183333;-0.22500
2186110;-0.28500
2188888;-0.31000
2191666;-0.30500
2194444;-0.31500
2197222;-0.32000
2199999;-0.34000
2202777;-0.35500
2205555;-0.37000
2208333;-0.36500
2211110;-0.37000
2213888;-0.36500
2216666;-0.38000
2219444;-0.37000
2222222;-0.39000
2224999;-0.38000
2227777;-0.38000
2230555;-0.36500
2233333;-0.37500
2236110;-0.39000
2238888;-0.40000
2241666;-0.39500
2244444;-0.39000
2247222;-0.38000
2249999;-0.39500
2252777;-0.39500
2255555;-0.41500
2258333;-0.40500
2261110;-0.38000
2263888;-0.38500
2266666;-0.39000
2269444;-0.38500
2272222;-0.39500
2274999;-0.40000
2277777;-0.40000
2280555;-0.40000
2283333;-0.41000
2286110;-0.44500
2288888;-0.49500
2291666;-0.51500
2294444;-0.51500
2297222;-0.53500
2299999;-0.58000
2302777;-0.60500
2305555;-0.58500
2308333;-0.48500
2311110;-0.36000
2313888;-0.19500
2316666;-0.01500
2319444;0.22000
2322222;0.47500
2324999;0.67000
2327777;0.77000
2330555;0.76000
2333333;0.59000
2336110;0.29000
2338888;-0.05500
2341666;-0.35500
2344444;-0.52000
2347222;-0.56500
2349999;-0.54000
2352777;-0.50500
2355555;-0.48000
2358333;-0.48000
2361110;-0.46000
2363888;-0.46500
2366666;-0.45000
2369444;-0.44500
2372222;-0.46000
2374999;-0.46500
2377777;-0.46000
2380555;-0.45500
2383333;-0.45500
2386110;-0.47000
2388888;-0.47000
2391666;-0.46500
2394444;-0.45500
2397222;-0.45500
2399999;-0.45500
2402777;-0.47500
2405555;-0.48000
2408333;-0.47000
2411110;-0.46500
2413888;-0.45000
2416666;-0.46000
2419444;-0.45000
2422222;-0.46500
2424999;-0.45500
2427777;-0.45500
2430555;-0.45000
2433333;-0.45500
2436110;-0.45000
2438888;-0.46500
2441666;-0.46000
2444444;-0.45500
2447222;-0.45500
2449999;-0.47000
2452777;-0.46000
2455555;-0.48000
2458333;-0.47000
2461110;-0.46500
2463888;-0.45000
2466666;-0.45500
2469444;-0.45500
2472222;-0.46000
2474999;-0.46000
2477777;-0.45000
2480555;-0.44500
2483333;-0.45500
2486110;-0.46500
2488888;-0.47000
2491666;-0.46500
2494444;-0.45000
2497222;-0.44500
2499999;-0.44500
2502777;-0.46000
2505555;-0.47000
2508333;-0.46500
2511110;-0.45000
2513888;-0.44500
2516666;-0.45500
2519444;-0.47000
2522222;-0.47000
2524999;-0.47500
2527777;-0.45500
2530555;-0.44500
2533333;-0.44000
2536110;-0.45000
2538888;-0.46000
2541666;-0.45500
2544444;-0.45000
2547222;-0.45500
2549999;-0.46500
2552777;-0.47500
2555555;-0.48500
2558333;-0.47000
2561110;-0.46500
2563888;-0.46000
2566666;-0.47000
2569444;-0.47500
2572222;-0.50000
2574999;-0.51000
2577777;-0.50500
2580555;-0.51500
2583333;-0.51000
2586110;-0.50500
2588888;-0.51000
2591666;-0.51500
2594444;-0.51500
2597221;-0.51000
2599999;-0.50500
2602777;-0.50000
2605555;-0.51000
2608333;-0.50000
2611110;-0.48500
2613888;-0.48000
2616666;-0.46500
2619444;-0.46000
2622221;-0.45500
2624999;-0.44000
2627777;-0.43500
2630555;-0.43000
2633333;-0.42500
2636110;-0.44000
2638888;-0.44000
2641666;-0.43000
2644444;-0.40500
2647221;-0.40000
2649999;-0.39500
2652777;-0.39500
2655555;-0.40000
2658333;-0.39000
2661110;-0.38000
2663888;-0.38500
2666666;-0.38500
2669444;-0.37500
2672221;-0.39000
2674999;-0.38500
2677777;-0.36500
2680555;-0.35500
2683333;-0.35500
2686110;-0.36500
2688888;-0.38000
2691666;-0.37000
2694444;-0.36500
2697221;-0.35500
2699999;-0.36500
2702777;-0.36000
2705555;-0.37000
2708333;-0.36500
2711110;-0.35500
2713888;-0.36000
2716666;-0.36500
2719444;-0.36500
2722221;-0.38000
2724999;-0.39000
2727777;-0.38000
2730555;-0.37500
2733333;-0.37000
2736110;-0.38000
2738888;-0.38500
2741666;-0.38500
2744444;-0.38500
2747221;-0.37000
2749999;-0.38500
2752777;-0.39000
2755555;-0.39000
2758333;-0.40000
2761110;-0.40000
2763888;-0.40000
2766666;-0.40000
2769444;-0.40000
2772221;-0.41000
2774999;-0.40500
2777777;-0.38500
2780555;-0.38500
2783333;-0.39500
2786110;-0.40500
2788888;-0.41500
2791666;-0.41000
2794444;-0.39500
2797221;-0.39500
2799999;-0.39000
2802777;-0.40500
2805555;-0.43000
2808333;-0.42000
2811110;-0.42000
2813888;-0.41500
2816666;-0.42000
2819444;-0.42000
2822221;-0.43000
2824999;-0.42500
2827777;-0.42000
2830555;-0.43500
2833333;-0.42500
2836110;-0.42500
2838888;-0.43000
2841666;-0.42500
2844444;-0.41500
2847221;-0.41500
2849999;-0.42000
2852777;-0.42500
2855555;-0.43500
2858333;-0.44000
2861110;-0.41000
2863888;-0.41000
2866666;-0.40000
2869444;-0.41000
2872221;-0.42500
2874999;-0.43000
2877777;-0.43000
2880555;-0.42000
2883333;-0.42500
2886110;-0.42000
2888888;-0.42500
2891666;-0.43000
2894444;-0.42500
2897221;-0.41000
2899999;-0.40500
2902777;-0.42500
2905555;-0.42500
2908333;-0.41000
2911110;-0.39000
2913888;-0.37500
2916666;-0.37500
2919444;-0.37500
2922221;-0.38000
2924999;-0.36000
2927777;-0.36000
2930555;-0.33500
2933333;-0.33000
2936110;-0.34500
2938888;-0.34500
2941666;-0.34500
2944444;-0.32500
2947221;-0.31000
2949999;-0.31000
2952777;-0.32000
2955555;-0.32500
2958333;-0.32500
2961110;-0.32000
2963888;-0.30500
2966666;-0.32000
2969444;-0.30500
2972221;-0.32000
2974999;-0.31000
2977777;-0.30000
2980555;-0.28000
2983332;-0.28500
2986110;-0.29500
2988888;-0.30500
2991666;-0.28000
2994444;-0.26000
2997221;-0.25500
2999999;-0.28500
3002777;-0.34000
3005555;-0.36500
3008332;-0.38500
3011110;-0.37000
3013888;-0.37000
3016666;-0.38000
3019444;-0.40500
3022221;-0.42500
3024999;-0.44000
3027777;-0.44500
3030555;-0.44000
3033332;-0.43000
3036110;-0.43000
3038888;-0.44500
3041666;-0.44500
3044444;-0.43000
3047221;-0.43500
3049999;-0.43500
3052777;-0.43500
3055555;-0.45500
3058332;-0.45500
3061110;-0.45000
3063888;-0.44500
3066666;-0.44500
3069444;-0.45500
3072221;-0.46000
3074999;-0.45500
3077777;-0.45500
3080555;-0.44500
3083332;-0.43500
3086110;-0.45000
3088888;-0.46000
3091666;-0.46500
3094444;-0.49000
3097221;-0.50500
3099999;-0.55000
3102777;-0.57500
3105555;-0.62000
3108332;-0.65000
3111110;-0.64500
3113888;-0.59000
3116666;-0.47000
3119444;-0.33000
3122221;-0.19000
3124999;0.02000
3127777;0.30000
3130555;0.56000
3133332;0.75500
3136110;0.84000
3138888;0.80500
3141666;0.57000
3144444;0.22000
3147221;-0.14000
3149999;-0.40500
3152777;-0.57000
3155555;-0.62500
3158332;-0.61500
3161110;-0.58000
3163888;-0.52500
3166666;-0.51000
3169444;-0.51000
3172221;-0.51500
3174999;-0.50500
3177777;-0.49000
3180555;-0.47000
3183332;-0.47500
3186110;-0.48500
3188888;-0.48500
3191666;-0.48500
3194444;-0.47500
3197221;-0.46500
3199999;-0.47000
3202777;-0.48000
3205555;-0.50000
3208332;-0.50000
3211110;-0.48500
3213888;-0.48500
3216666;-0.48500
3219444;-0.50000
3222221;-0.51000
3224999;-0.51000
3227777;-0.50000
3230555;-0.48500
3233332;-0.47500
3236110;-0.49500
3238888;-0.51000
3241666;-0.50500
3244444;-0.50500
3247221;-0.50500
3249999;-0.50500
3252777;-0.50000
3255555;-0.51000
3258332;-0.51000
3261110;-0.50000
3263888;-0.49000
3266666;-0.49500
3269444;-0.50500
3272221;-0.52000
3274999;-0.50500
3277777;-0.51000
3280555;-0.49500
3283332;-0.49500
3286110;-0.51000
3288888;-0.51000
3291666;-0.51500
3294444;-0.50500
3297221;-0.48500
3299999;-0.49500
3302777;-0.51000
3305555;-0.51500
3308332;-0.51000
3311110;-0.50000
3313888;-0.50000
3316666;-0.49500
3319444;-0.51500
3322221;-0.50500
3324999;-0.51000
3327777;-0.50500
3330555;-0.49500
3333332;-0.49000
3336110;-0.49500
3338888;-0.49500
3341666;-0.49500
3344444;-0.49000
3347221;-0.49000
3349999;-0.50000
3352777;-0.51000
3355555;-0.50500
3358332;-0.50000
3361110;-0.50000
3363888;-0.49500
3366666;-0.50000
3369444;-0.51000
3372221;-0.51500
3374999;-0.52000
3377777;-0.50500
3380555;-0.51000
3383332;-0.51500
3386110;-0.52500
3388888;-0.53500
3391666;-0.53000
3394443;-0.53000
3397221;-0.51500
3399999;-0.52500
3402777;-0.53500
3405555;-0.54500
3408332;-0.54500
3411110;-0.54000
3413888;-0.52500
3416666;-0.53000
3419443;-0.54500
3422221;-0.55500
3424999;-0.53500
3427777;-0.53000
3430555;-0.51000
3433332;-0.50500
3436110;-0.50000
3438888;-0.50000
3441666;-0.47500
3444443;-0.45500
3447221;-0.45000
3449999;-0.43000
3452777;-0.43500
3455555;-0.43000
3458332;-0.41000
3461110;-0.39500
3463888;-0.38500
3466666;-0.37500
3469443;-0.37500
3472221;-0.37500
3474999;-0.36000
3477777;-0.35000
3480555;-0.33500
3483332;-0.34000
3486110;-0.34500
3488888;-0.35500
3491666;-0.35000
3494443;-0.34500
3497221;-0.33500
3499999;-0.33500
3502777;-0.34000
3505555;-0.36500
3508332;-0.35500
3511110;-0.33500
3513888;-0.34000
3516666;-0.33500
3519443;-0.33500
3522221;-0.35000
3524999;-0.34000
3527777;-0.34000
3530555;-0.32500
3533332;-0.33000
3536110;-0.33000
3538888;-0.35000
3541666;-0.34000
3544443;-0.34000
3547221;-0.33500
3549999;-0.33500
3552777;-0.33500
3555555;-0.35500
3558332;-0.34500
3561110;-0.35500
3563888;-0.35000
3566666;-0.34500
3569443;-0.34500
3572221;-0.35500
3574999;-0.35500
3577777;-0.35000
3580555;-0.34500
3583332;-0.35000
3586110;-0.36000
3588888;-0.36500
3591666;-0.36500
3594443;-0.35500
3597221;-0.36000
3599999;-0.36000
3602777;-0.36500
3605555;-0.38000
3608332;-0.37500
3611110;-0.37500
3613888;-0.36000
3616666;-0.35500
3619443;-0.35000
3622221;-0.36000
3624999;-0.36000
3627777;-0.36500
3630555;-0.35000
3633332;-0.36000
3636110;-0.35500
3638888;-0.37000
3641666;-0.36000
3644443;-0.36000
3647221;-0.35000
3649999;-0.35500
3652777;-0.36000
3655555;-0.36500
3658332;-0.36500
3661110;-0.35500
3663888;-0.35000
3666666;-0.36000
3669443;-0.36000
3672221;-0.38000
3674999;-0.36500
3677777;-0.36500
3680555;-0.34500
3683332;-0.34500
3686110;-0.35500
3688888;-0.37000
3691666;-0.36500
3694443;-0.35500
3697221;-0.34000
3699999;-0.34000
3702777;-0.34000
3705555;-0.34000
3708332;-0.33000
3711110;-0.32000
3713888;-0.29500
3716666;-0.29500
3719443;-0.29500
3722221;-0.29000
3724999;-0.28000
3727777;-0.26000
3730555;-0.25500
3733332;-0.25500
3736110;-0.25000
3738888;-0.25500
3741666;-0.24000
3744443;-0.23000
3747221;-0.21500
3749999;-0.22000
3752777;-0.22500
3755555;-0.23000
3758332;-0.23500
3761110;-0.23500
3763888;-0.23000
3766666;-0.24000
3769443;-0.23500
3772221;-0.23500
3774999;-0.22500
3777777;-0.22000
3780554;-0.22000
3783332;-0.22000
3786110;-0.21500
3788888;-0.19500
3791666;-0.18500
3794443;-0.19500
3797221;-0.23000
3799999;-0.27000
3802777;-0.29000
3805554;-0.30500
3808332;-0.31500
3811110;-0.31000
3813888;-0.32000
3816666;-0.33000
3819443;-0.34500
3822221;-0.36500
3824999;-0.35000
3827777;-0.34000
3830554;-0.34000
3833332;-0.33000
3836110;-0.35000
3838888;-0.36000
3841666;-0.36000
3844443;-0.35500
3847221;-0.34500
3849999;-0.35000
3852777;-0.36000
3855554;-0.37000
3858332;-0.35500
3861110;-0.35500
3863888;-0.34500
3866666;-0.35000
3869443;-0.36500
3872221;-0.37500
3874999;-0.38000
3877777;-0.37000
3880554;-0.38000
3883332;-0.40500
3886110;-0.45500
3888888;-0.49000
3891666;-0.50000
3894443;-0.52000
3897221;-0.55500
3899999;-0.58000
3902777;-0.56000
3905554;-0.49000
3908332;-0.37500
3911110;-0.25500
3913888;-0.12500
3916666;0.03000
3919443;0.24000
3922221;0.48000
3924999;0.73500
3927777;0.89000
3930554;0.96500
3933332;0.88000
3936110;0.60000
3938888;0.16000
3941666;-0.24500
3944443;-0.47500
3947221;-0.52000
3949999;-0.49000
3952777;-0.43500
3955554;-0.41500
3958332;-0.41000
3961110;-0.39500
3963888;-0.38500
3966666;-0.39500
3969443;-0.38500
3972221;-0.40500
3974999;-0.39500
3977777;-0.40500
3980554;-0.39500
3983332;-0.40000
3986110;-0.40000
3988888;-0.39500
3991666;-0.40000
3994443;-0.39000
3997221;-0.38500
3999999;-0.38500
4002777;-0.39500
4005554;-0.40500
4008332;-0.41500
4011110;-0.39000
4013888;-0.39500
4016666;-0.39500
4019443;-0.41000
4022221;-0.40000
4024999;-0.40000
4027777;-0.39000
4030554;-0.39000
4033332;-0.39500
4036110;-0.39500
4038888;-0.40500
4041666;-0.41500
4044443;-0.39000
4047221;-0.39000
4049999;-0.40000
4052777;-0.40000
4055554;-0.39500
4058332;-0.39500
4061110;-0.37500
4063888;-0.38500
4066666;-0.37500
4069443;-0.39000
4072221;-0.39500
4074999;-0.39000
4077777;-0.38000
4080554;-0.37500
4083332;-0.37500
4086110;-0.38500
4088888;-0.38500
4091666;-0.38500
4094443;-0.38000
4097221;-0.38000
4099999;-0.38000
4102777;-0.39000
4105554;-0.41000
4108332;-0.39500
4111110;-0.38000
4113888;-0.37500
4116666;-0.38000
4119443;-0.38000
4122221;-0.40000
4124999;-0.38000
4127777;-0.38000
4130554;-0.36000
4133332;-0.37000
4136110;-0.37500
4138888;-0.37500
4141666;-0.37500
4144443;-0.38000
4147221;-0.36500
4149999;-0.36500
4152777;-0.37500
4155554;-0.38500
4158332;-0.37500
4161110;-0.38000
4163888;-0.36500
4166666;-0.38500
4169443;-0.39000
4172221;-0.40500
4174999;-0.40500
4177777;-0.40000
4180554;-0.38000
4183332;-0.39000
4186110;-0.40000
4188888;-0.41000
4191665;-0.40000
4194443;-0.38500
4197221;-0.37000
4199999;-0.38500
4202777;-0.38500
4205554;-0.40000
4208332;-0.38500
4211110;-0.36500
4213888;-0.35500
4216665;-0.35000
4219443;-0.35000
4222221;-0.34500
4224999;-0.33000
4227777;-0.31500
4230554;-0.30000
4233332;-0.29500
4236110;-0.29500
4238888;-0.30000
4241665;-0.29000
4244443;-0.28500
4247221;-0.28000
4249999;-0.27500
4252777;-0.28500
4255554;-0.29000
4258332;-0.28000
4261110;-0.27000
4263888;-0.25500
4266665;-0.26000
4269443;-0.27500
4272221;-0.27500
4274999;-0.27000
4277777;-0.27000
4280554;-0.27000
4283332;-0.26500
4286110;-0.26500
4288888;-0.27500
4291665;-0.26500
4294443;-0.25500
4297221;-0.26000
4299999;-0.26000
4302777;-0.26500
4305554;-0.27500
4308332;-0.28000
4311110;-0.27500
4313888;-0.26500
4316665;-0.27000
4319443;-0.27000
4322221;-0.28000
4324999;-0.28500
4327777;-0.28000
4330554;-0.26500
4333332;-0.27000
4336110;-0.27500
4338888;-0.28000
4341665;-0.28000
4344443;-0.27000
4347221;-0.26500
4349999;-0.26500
4352777;-0.27500
4355554;-0.27500
4358332;-0.27500
4361110;-0.27500
4363888;-0.27500
4366665;-0.26500
4369443;-0.28000
4372221;-0.30000
4374999;-0.28500
4377777;-0.28000
4380554;-0.28500
4383332;-0.28500
4386110;-0.29000
4388888;-0.30000
4391665;-0.29500
4394443;-0.29500
4397221;-0.29000
4399999;-0.28500
4402777;-0.28500
4405554;-0.30500
4408332;-0.29000
4411110;-0.29000
4413888;-0.28500
4416665;-0.29500
4419443;-0.29500
4422221;-0.30500
4424999;-0.30000
4427777;-0.30500
4430554;-0.29500
4433332;-0.29500
4436110;-0.30000
4438888;-0.31500
4441665;-0.30500
4444443;-0.29000
4447221;-0.28500
4449999;-0.29000
4452777;-0.29500
4455554;-0.31500
4458332;-0.30500
4461110;-0.29500
4463888;-0.27500
4466665;-0.27500
4469443;-0.28000
4472221;-0.28000
4474999;-0.25500
4477777;-0.24500
4480554;-0.23000
4483332;-0.22500
4486110;-0.23000
4488888;-0.22500
4491665;-0.22000
4494443;-0.20500
4497221;-0.20000
4499999;-0.19500
4502777;-0.18500
4505554;-0.18500
4508332;-0.18500
4511110;-0.17000
4513888;-0.15000
4516665;-0.16000
4519443;-0.16000
4522221;-0.18000
4524999;-0.18000
4527777;-0.18500
4530554;-0.17500
4533332;-0.18000
4536110;-0.17500
4538888;-0.18000
4541665;-0.18000
4544443;-0.16500
4547221;-0.13500
4549999;-0.11000
4552777;-0.11000
4555554;-0.16500
4558332;-0.19500
4561110;-0.21500
4563888;-0.20500
4566665;-0.22000
4569443;-0.22000
4572221;-0.26000
4574999;-0.27500
4577776;-0.27500
4580554;-0.29000
4583332;-0.29500
4586110;-0.31000
4588888;-0.31500
4591665;-0.30500
4594443;-0.30000
4597221;-0.28500
4599999;-0.28500
4602776;-0.30000
4605554;-0.31000
4608332;-0.32000
4611110;-0.30500
4613888;-0.31000
4616665;-0.30500
4619443;-0.31500
4622221;-0.32500
4624999;-0.33000
4627776;-0.32000
4630554;-0.31000
4633332;-0.32000
4636110;-0.30500
4638888;-0.33000
4641665;-0.32500
4644443;-0.33000
4647221;-0.31500
4649999;-0.33000
4652776;-0.37000
4655554;-0.39000
4658332;-0.42000
4661110;-0.43500
4663888;-0.46000
4666665;-0.49000
4669443;-0.55000
4672221;-0.54000
4674999;-0.45500
4677776;-0.31500
4680554;-0.17500
4683332;-0.02500
4686110;0.17500
4688888;0.44500
4691665;0.69500
4694443;0.86000
4697221;0.92000
4699999;0.84000
4702776;0.59000
4705554;0.21500
4708332;-0.15000
4711110;-0.37000
4713888;-0.48000
4716665;-0.53000
4719443;-0.54000
4722221;-0.51500
4724999;-0.45000
4727776;-0.40500
4730554;-0.37000
4733332;-0.37500
4736110;-0.40000
4738888;-0.39500
4741665;-0.38500
4744443;-0.39500
4747221;-0.37500
4749999;-0.38000
4752776;-0.39000
4755554;-0.39500
4758332;-0.39500
4761110;-0.37500
4763888;-0.36000
4766665;-0.36500
4769443;-0.36000
4772221;-0.38500
4774999;-0.37000
4777776;-0.37000
4780554;-0.36500
4783332;-0.36500
4786110;-0.37000
4788888;-0.37500
4791665;-0.37500
4794443;-0.37000
4797221;-0.35500
4799999;-0.35500
4802776;-0.36500
4805554;-0.38000
4808332;-0.37500
4811110;-0.38000
4813888;-0.37000
4816665;-0.37000
4819443;-0.38000
4822221;-0.38000
4824999;-0.38000
4827776;-0.37000
4830554;-0.36500
4833332;-0.36000
4836110;-0.36500
4838888;-0.38000
4841665;-0.37000
4844443;-0.36000
4847221;-0.35000
4849999;-0.35500
4852776;-0.37000
4855554;-0.38500
4858332;-0.37000
4861110;-0.36500
4863888;-0.36000
4866665;-0.36500
4869443;-0.36000
4872221;-0.37000
4874999;-0.37500
4877776;-0.37500
4880554;-0.36500
4883332;-0.37000
4886110;-0.38000
4888888;-0.39500
4891665;-0.39000
4894443;-0.37000
4897221;-0.36000
4899999;-0.36500
4902776;-0.37500
4905554;-0.36500
4908332;-0.35500
4911110;-0.34500
4913888;-0.33500
4916665;-0.34500
4919443;-0.35000
4922221;-0.38000
4924999;-0.36000
4927776;-0.34500
4930554;-0.35500
4933332;-0.34500
4936110;-0.37000
4938888;-0.38000
4941665;-0.37000
4944443;-0.36500
4947221;-0.34500
4949999;-0.37000
4952776;-0.38000
4955554;-0.38500
4958332;-0.39000
4961110;-0.36500
4963887;-0.36500
4966665;-0.36500
4969443;-0.38000
4972221;-0.38500
4974999;-0.38000
4977776;-0.35500
4980554;-0.35500
4983332;-0.35000
4986110;-0.34500
4988887;-0.35500
4991665;-0.35000
4994443;-0.33000
4997221;-0.32000
4999999;-0.31000
5002776;-0.30500
5005554;-0.30500
5008332;-0.30000
5011110;-0.29000
5013887;-0.27500
5016665;-0.27500
5019443;-0.27500
5022221;-0.29000
5024999;-0.27500
5027776;-0.28000
5030554;-0.27500
5033332;-0.27000
5036110;-0.27500
5038887;-0.29500
5041665;-0.28000
5044443;-0.26500
5047221;-0.25500
5049999;-0.25500
5052776;-0.26500
5055554;-0.28000
5058332;-0.26500
5061110;-0.26000
5063887;-0.25000
5066665;-0.26000
5069443;-0.27500
5072221;-0.28500
5074999;-0.28000
5077776;-0.27000
5080554;-0.27000
5083332;-0.27500
5086110;-0.29000
5088887;-0.29000
5091665;-0.30000
5094443;-0.28500
5097221;-0.27000
5099999;-0.28000
5102776;-0.28500
5105554;-0.29500
5108332;-0.29000
5111110;-0.29000
5113887;-0.28000
5116665;-0.28500
5119443;-0.28500
5122221;-0.31000
5124999;-0.31000
5127776;-0.28000
5130554;-0.28000
5133332;-0.28000
5136110;-0.29000
5138887;-0.30500
5141665;-0.29500
5144443;-0.29000
5147221;-0.28500
5149999;-0.28500
5152776;-0.28500
5155554;-0.30500
5158332;-0.31000
5161110;-0.30500
5163887;-0.30500
5166665;-0.31500
5169443;-0.33000
5172221;-0.33500
5174999;-0.35500
5177776;-0.31500
5180554;-0.30500
5183332;-0.30500
5186110;-0.31000
5188887;-0.31500
5191665;-0.32000
5194443;-0.31500
5197221;-0.30000
5199999;-0.30500
5202776;-0.31500
5205554;-0.33000
5208332;-0.32000
5211110;-0.31000
5213887;-0.30500
5216665;-0.31500
5219443;-0.31500
5222221;-0.34000
5224999;-0.33500
5227776;-0.32500
5230554;-0.32500
5233332;-0.31000
5236110;-0.32500
5238887;-0.33500
5241665;-0.32500
5244443;-0.31000
5247221;-0.30000
5249999;-0.29500
5252776;-0.30500
5255554;-0.30500
5258332;-0.29000
5261110;-0.27500
5263887;-0.27500
5266665;-0.26500
5269443;-0.27500
5272221;-0.26000
5274999;-0.24500
5277776;-0.24000
5280554;-0.23500
5283332;-0.22500
5286110;-0.22000
5288887;-0.21500
5291665;-0.21000
5294443;-0.19500
5297221;-0.19500
5299999;-0.20500
5302776;-0.19500
5305554;-0.21000
5308332;-0.20500
5311110;-0.21500
5313887;-0.20500
5316665;-0.19500
5319443;-0.21500
5322221;-0.22500
5324999;-0.21000
5327776;-0.21000
5330554;-0.20500
5333332;-0.19500
5336110;-0.19500
5338887;-0.21000
5341665;-0.17000
5344443;-0.17000
5347221;-0.16000
5349999;-0.20500
5352776;-0.25500
5355554;-0.28500
5358332;-0.28000
5361110;-0.29000
5363887;-0.29500
5366665;-0.31000
5369443;-0.33500
5372221;-0.35500
5374998;-0.34500
5377776;-0.34000
5380554;-0.32500
5383332;-0.32000
5386110;-0.34000
5388887;-0.36500
5391665;-0.35500
5394443;-0.35000
5397221;-0.36000
5399998;-0.35500
5402776;-0.36500
5405554;-0.38000
5408332;-0.37500
5411110;-0.36500
5413887;-0.36500
5416665;-0.37000
5419443;-0.38500
5422221;-0.40500
5424998;-0.39500
5427776;-0.38500
5430554;-0.38000
5433332;-0.41000
5436110;-0.44500
5438887;-0.49000
5441665;-0.51000
5444443;-0.53500
5447221;-0.57500
5449998;-0.57000
5452776;-0.51000
5455554;-0.39000
5458332;-0.22500
5461110;-0.04000
5463887;0.21500
5466665;0.49000
5469443;0.71500
5472221;0.83000
5474998;0.80000
5477776;0.56500
5480554;0.17000
5483332;-0.23500
5486110;-0.49000
5488887;-0.58500
5491665;-0.55500
5494443;-0.48000
5497221;-0.43500
5499998;-0.43500
5502776;-0.45500
5505554;-0.44500
5508332;-0.43000
5511110;-0.41000
5513887;-0.41000
5516665;-0.43000
5519443;-0.43000
5522221;-0.44500
5524998;-0.44000
5527776;-0.43000
5530554;-0.42500
5533332;-0.43000
5536110;-0.43000
5538887;-0.44500
5541665;-0.44500
5544443;-0.43000
5547221;-0.42500
5549998;-0.41500
5552776;-0.42000
5555554;-0.44000
5558332;-0.44500
5561110;-0.43500
5563887;-0.42500
5566665;-0.44500
5569443;-0.44000
5572221;-0.44500
5574998;-0.43000
5577776;-0.42500
5580554;-0.42000
5583332;-0.41500
5586110;-0.43500
5588887;-0.44500
5591665;-0.44500
5594443;-0.43500
5597221;-0.42500
5599998;-0.43000
5602776;-0.44000
5605554;-0.45000
5608332;-0.46000
5611110;-0.45500
5613887;-0.44500
5616665;-0.44000
5619443;-0.44000
5622221;-0.45000
5624998;-0.44500
5627776;-0.44000
5630554;-0.43500
5633332;-0.43500
5636110;-0.44500
5638887;-0.46500
5641665;-0.45500
5644443;-0.44500
5647221;-0.43500
5649998;-0.44000
5652776;-0.45500
5655554;-0.47000
5658332;-0.46500
5661110;-0.44500
5663887;-0.43500
5666665;-0.43500
5669443;-0.45000
5672221;-0.46000
5674998;-0.46500
5677776;-0.44500
5680554;-0.43500
5683332;-0.44500
5686110;-0.47500
5688887;-0.50000
5691665;-0.49000
5694443;-0.48500
5697221;-0.47500
5699998;-0.46500
5702776;-0.47500
5705554;-0.48000
5708332;-0.47500
5711110;-0.49000
5713887;-0.48500
5716665;-0.49500
5719443;-0.49500
5722221;-0.51000
5724998;-0.51000
5727776;-0.50000
5730554;-0.47500
5733332;-0.47500
5736110;-0.47500
5738887;-0.49000
5741665;-0.47000
5744443;-0.45500
5747221;-0.47000
5749998;-0.47000
5752776;-0.47500
5755554;-0.46500
5758332;-0.46000
5761109;-0.43500
5763887;-0.42500
5766665;-0.42000
5769443;-0.42000
5772221;-0.42500
5774998;-0.40000
5777776;-0.38500
5780554;-0.38000
5783332;-0.36500
5786109;-0.37500
5788887;-0.37500
5791665;-0.35500
5794443;-0.35000
5797221;-0.33500
5799998;-0.34500
5802776;-0.34500
5805554;-0.34500
5808332;-0.35500
5811109;-0.33000
5813887;-0.32500
5816665;-0.33500
5819443;-0.34500
5822221;-0.35000
5824998;-0.34500
5827776;-0.34500
5830554;-0.34500
5833332;-0.34000
5836109;-0.35000
5838887;-0.36000
5841665;-0.36000
5844443;-0.34500
5847221;-0.34500
5849998;-0.34500
5852776;-0.34500
5855554;-0.36000
5858332;-0.35500
5861109;-0.33000
5863887;-0.33500
5866665;-0.34000
5869443;-0.36000
5872221;-0.37000
5874998;-0.36500
5877776;-0.35000
5880554;-0.33000
5883332;-0.35000
5886109;-0.36500
5888887;-0.37500
5891665;-0.38000
5894443;-0.37000
5897221;-0.36500
5899998;-0.37000
5902776;-0.37000
5905554;-0.38500
5908332;-0.38000
5911109;-0.37000
5913887;-0.37000
5916665;-0.38500
5919443;-0.37000
5922221;-0.38500
5924998;-0.38000
5927776;-0.37000
5930554;-0.37000
5933332;-0.36000
5936109;-0.37500
5938887;-0.37500
5941665;-0.36500
5944443;-0.35000
5947221;-0.34500
5949998;-0.35500
5952776;-0.36500
5955554;-0.38000
5958332;-0.37000
5961109;-0.36000
5963887;-0.35500
5966665;-0.36000
5969443;-0.37500
5972221;-0.38000
5974998;-0.37500
5977776;-0.37000
5980554;-0.36500
5983332;-0.36500
5986109;-0.38000
5988887;-0.39500
5991665;-0.38500
5994443;-0.37500
5997221;-0.36000
5999998;-0.36500
6002776;-0.36000
6005554;-0.36000
6008332;-0.36000
6011109;-0.36500
6013887;-0.36000
6016665;-0.35000
6019443;-0.35500
6022221;-0.35500
6024998;-0.34500
6027776;-0.33000
6030554;-0.31000
6033332;-0.31000
6036109;-0.32500
6038887;-0.31500
6041665;-0.31000
6044443;-0.30000
6047221;-0.29000
6049998;-0.29000
6052776;-0.29000
6055554;-0.28500
6058332;-0.27000
6061109;-0.26000
6063887;-0.24500
6066665;-0.24000
6069443;-0.25500
6072221;-0.26000
6074998;-0.26000
6077776;-0.25500
6080554;-0.25500
6083332;-0.26500
6086109;-0.26000
6088887;-0.27000
6091665;-0.25000
6094443;-0.24000
6097221;-0.23000
6099998;-0.21500
6102776;-0.20500
6105554;-0.23000
6108332;-0.27000
6111109;-0.29000
6113887;-0.29500
6116665;-0.29500
6119443;-0.31500
6122221;-0.34000
6124998;-0.34500
6127776;-0.34500
6130554;-0.36500
6133332;-0.36500
6136109;-0.37500
6138887;-0.38500
6141665;-0.38500
6144443;-0.38500
6147221;-0.36500
6149998;-0.37500
6152776;-0.38500
6155554;-0.39500
6158332;-0.38000
6161109;-0.37500
6163887;-0.38500
6166665;-0.38000
6169443;-0.38500
6172220;-0.40000
6174998;-0.38500
6177776;-0.37500
6180554;-0.37000
6183332;-0.37500
6186109;-0.38500
6188887;-0.39500
6191665;-0.39500
6194443;-0.38500
6197220;-0.39000
6199998;-0.40500
6202776;-0.44500
6205554;-0.48000
6208332;-0.49000
6211109;-0.51000
6213887;-0.53500
6216665;-0.57000
6219443;-0.55500
6222220;-0.45500
6224998;-0.29000
6227776;-0.10500
6230554;0.13000
6233332;0.39500
6236109;0.66000
6238887;0.82000
6241665;0.87000
6244443;0.72000
6247220;0.38500
6249998;-0.06000
6252776;-0.36500
6255554;-0.52000
6258332;-0.54000
6261109;-0.49500
6263887;-0.44500
6266665;-0.41000
6269443;-0.42500
6272220;-0.44000
6274998;-0.43500
6277776;-0.41500
6280554;-0.41000
6283332;-0.42000
6286109;-0.43500
6288887;-0.43000
6291665;-0.43000
6294443;-0.41500
6297220;-0.41000
6299998;-0.42000
6302776;-0.42500
6305554;-0.44000
6308332;-0.44000
6311109;-0.43000
6313887;-0.42000
6316665;-0.42500
6319443;-0.43000
6322220;-0.43000
6324998;-0.43500
6327776;-0.42500
6330554;-0.41000
6333332;-0.41000
6336109;-0.42000
6338887;-0.42000
6341665;-0.43000
6344443;-0.41000
6347220;-0.40000
6349998;-0.41000
6352776;-0.40500
6355554;-0.41500
6358332;-0.41500
6361109;-0.42000
6363887;-0.40000
6366665;-0.40500
6369443;-0.42000
6372220;-0.42500
6374998;-0.42500
6377776;-0.41500
6380554;-0.42500
6383332;-0.42000
6386109;-0.42500
6388887;-0.44500
6391665;-0.43000
6394443;-0.42000
6397220;-0.41000
6399998;-0.40500
6402776;-0.41500
6405554;-0.42500
6408332;-0.41500
6411109;-0.42000
6413887;-0.41000
6416665;-0.41500
6419443;-0.41500
6422220;-0.43500
6424998;-0.41500
6427776;-0.42000
6430554;-0.42000
6433332;-0.42000
6436109;-0.41500
6438887;-0.44000
6441665;-0.43500
6444443;-0.42500
6447220;-0.42500
6449998;-0.42000
6452776;-0.43500
6455554;-0.45500
6458332;-0.44500
6461109;-0.43500
6463887;-0.44500
6466665;-0.43500
6469443;-0.44500
6472220;-0.45500
6474998;-0.45000
6477776;-0.43500
6480554;-0.43500
6483332;-0.43500
6486109;-0.44000
6488887;-0.45500
6491665;-0.43500
6494443;-0.43000
6497220;-0.42000
6499998;-0.40500
6502776;-0.41000
6505554;-0.40500
6508332;-0.39000
6511109;-0.37000
6513887;-0.35000
6516665;-0.35000
6519443;-0.35500
6522220;-0.36500
6524998;-0.35000
6527776;-0.33500
6530554;-0.32500
6533332;-0.31500
6536109;-0.32000
6538887;-0.31500
6541665;-0.31500
6544443;-0.30000
6547220;-0.28500
6549998;-0.29500
6552776;-0.29500
6555554;-0.31000
6558331;-0.30000
6561109;-0.30500
6563887;-0.28000
6566665;-0.28500
6569443;-0.28500
6572220;-0.30500
6574998;-0.29000
6577776;-0.29500
6580554;-0.28000
6583331;-0.28500
6586109;-0.30000
6588887;-0.30500
6591665;-0.29500
6594443;-0.29000
6597220;-0.29000
6599998;-0.28000
6602776;-0.29500
6605554;-0.29500
6608331;-0.29000
6611109;-0.29000
6613887;-0.28500
6616665;-0.29500
6619443;-0.29000
6622220;-0.31000
6624998;-0.30500
6627776;-0.30000
6630554;-0.28000
6633331;-0.28500
6636109;-0.30000
6638887;-0.32000
6641665;-0.32000
6644443;-0.30000
6647220;-0.29500
6649998;-0.30000
6652776;-0.31000
6655554;-0.32000
6658331;-0.31500
6661109;-0.31000
6663887;-0.31500
6666665;-0.32500
6669443;-0.32000
6672220;-0.33000
6674998;-0.32500
6677776;-0.32500
6680554;-0.30500
6683331;-0.31000
6686109;-0.32000
6688887;-0.32500
6691665;-0.32000
6694443;-0.32000
6697220;-0.31500
6699998;-0.32000
6702776;-0.33000
6705554;-0.33000
6708331;-0.32500
6711109;-0.31500
6713887;-0.31000
6716665;-0.31500
6719443;-0.32500
6722220;-0.33500
6724998;-0.32500
6727776;-0.31500
6730554;-0.30500
6733331;-0.31500
6736109;-0.31500
6738887;-0.33000
6741665;-0.32000
6744443;-0.30000
6747220;-0.30500
6749998;-0.30000
6752776;-0.30000
6755554;-0.30500
6758331;-0.29000
6761109;-0.27000
6763887;-0.26000
6766665;-0.26000
6769443;-0.24500
6772220;-0.25000
6774998;-0.23000
6777776;-0.23000
6780554;-0.22500
6783331;-0.21500
6786109;-0.22500
6788887;-0.22500
6791665;-0.21500
6794443;-0.19500
6797220;-0.19000
6799998;-0.18000
6802776;-0.19000
6805554;-0.20500
6808331;-0.21000
6811109;-0.20000
6813887;-0.19500
6816665;-0.19500
6819443;-0.19000
6822220;-0.19500
6824998;-0.18500
6827776;-0.18000
6830554;-0.14500
6833331;-0.14000
6836109;-0.18000
6838887;-0.23000
6841665;-0.24500
6844443;-0.25500
6847220;-0.24500
6849998;-0.26000
6852776;-0.29000
6855554;-0.31000
6858331;-0.31000
6861109;-0.32500
6863887;-0.31500
6866665;-0.31000
6869443;-0.32000
6872220;-0.33000
6874998;-0.33000
6877776;-0.31500
6880554;-0.32000
6883331;-0.32000
6886109;-0.32500
6888887;-0.33500
6891665;-0.33000
6894443;-0.32000
6897220;-0.31500
6899998;-0.33000
6902776;-0.33000
6905554;-0.34000
6908331;-0.33500
6911109;-0.32500
6913887;-0.32500
6916665;-0.32500
6919443;-0.33500
6922220;-0.34500
6924998;-0.35500
6927776;-0.37500
6930554;-0.40000
6933331;-0.43000
6936109;-0.45500
6938887;-0.47000
6941665;-0.48500
6944442;-0.51000
6947220;-0.55000
6949998;-0.54000
6952776;-0.47500
6955554;-0.36500
6958331;-0.19000
6961109;0.00500
6963887;0.26500
6966665;0.58000
6969442;0.80500
6972220;0.91000
6974998;0.84500
6977776;0.57000
6980554;0.14000
6983331;-0.28000
6986109;-0.50000
6988887;-0.52500
6991665;-0.46500
6994442;-0.39500
6997220;-0.36500
6999998;-0.36500
7002776;-0.39000
7005554;-0.40500
7008331;-0.38500
7011109;-0.38000
7013887;-0.38000
7016665;-0.38000
7019442;-0.38000
7022220;-0.40000
7024998;-0.38000
7027776;-0.37500
7030554;-0.37500
7033331;-0.36500
7036109;-0.38000
7038887;-0.39000
7041665;-0.38500
7044442;-0.37500
7047220;-0.38000
7049998;-0.38000
7052776;-0.38500
7055554;-0.39500
7058331;-0.40000
7061109;-0.39000
7063887;-0.39000
7066665;-0.38500
7069442;-0.39500
7072220;-0.38500
7074998;-0.38000
7077776;-0.38500
7080554;-0.36500
7083331;-0.36500
7086109;-0.38500
7088887;-0.38500
7091665;-0.38000
7094442;-0.38000
7097220;-0.37000
7099998;-0.36500
7102776;-0.37500
7105554;-0.37500
7108331;-0.36500
7111109;-0.36500
7113887;-0.35500
7116665;-0.35000
7119442;-0.35500
7122220;-0.37500
7124998;-0.38000
7127776;-0.37500
7130554;-0.36500
7133331;-0.37000
7136109;-0.38000
7138887;-0.38000
7141665;-0.38000
7144442;-0.37000
7147220;-0.36500
7149998;-0.35500
7152776;-0.36000
7155554;-0.38500
7158331;-0.37500
7161109;-0.36500
7163887;-0.35000
7166665;-0.35000
7169442;-0.36500
7172220;-0.37000
7174998;-0.37500
7177776;-0.35500
7180554;-0.36000
7183331;-0.35500
7186109;-0.36000
7188887;-0.36500
7191665;-0.36500
7194442;-0.37000
7197220;-0.37000
7199998;-0.37000
7202776;-0.37500
7205554;-0.38500
7208331;-0.38500
7211109;-0.38000
7213887;-0.36000
7216665;-0.36500
7219442;-0.37500
7222220;-0.38500
7224998;-0.38500
7227776;-0.37000
7230554;-0.35500
7233331;-0.36000
7236109;-0.35000
7238887;-0.37000
7241665;-0.35000
7244442;-0.34000
7247220;-0.32500
7249998;-0.32500
7252776;-0.33500
7255554;-0.31500
7258331;-0.32000
7261109;-0.30500
7263887;-0.29500
7266665;-0.29000
7269442;-0.29000
7272220;-0.30000
7274998;-0.29000
7277776;-0.27500
7280554;-0.26000
7283331;-0.26500
7286109;-0.26500
7288887;-0.26500
7291665;-0.26500
7294442;-0.25000
7297220;-0.24500
7299998;-0.24500
7302776;-0.26000
7305554;-0.26500
7308331;-0.26000
7311109;-0.24000
7313887;-0.24500
7316665;-0.24500
7319442;-0.26000
7322220;-0.26000
7324998;-0.26500
7327776;-0.25000
7330554;-0.26000
7333331;-0.25500
7336109;-0.27000
7338887;-0.28500
7341665;-0.27000
7344442;-0.27500
7347220;-0.27000
7349998;-0.28000
7352776;-0.29500
7355553;-0.28500
7358331;-0.28000
7361109;-0.28000
7363887;-0.27000
7366665;-0.27000
7369442;-0.27500
7372220;-0.28000
7374998;-0.28500
7377776;-0.27000
7380553;-0.27500
7383331;-0.27500
7386109;-0.27000
7388887;-0.29500
7391665;-0.29000
7394442;-0.29000
7397220;-0.28000
7399998;-0.28000
7402776;-0.29500
7405553;-0.30500
7408331;-0.30500
7411109;-0.30000
7413887;-0.29000
7416665;-0.29000
7419442;-0.30000
7422220;-0.31500
7424998;-0.31500
7427776;-0.30500
7430553;-0.29500
7433331;-0.29500
7436109;-0.30500
7438887;-0.31500
7441665;-0.31500
7444442;-0.30500
7447220;-0.30500
7449998;-0.30000
7452776;-0.30500
7455553;-0.32000
7458331;-0.32500
7461109;-0.31000
7463887;-0.31000
7466665;-0.30000
7469442;-0.32000
7472220;-0.31000
7474998;-0.31500
7477776;-0.29500
7480553;-0.30000
7483331;-0.30000
7486109;-0.30500
7488887;-0.31000
7491665;-0.30000
7494442;-0.29500
7497220;-0.28500
7499998;-0.28000
7502776;-0.29000
7505553;-0.30500
7508331;-0.29000
7511109;-0.27000
7513887;-0.26000
7516665;-0.26500
7519442;-0.26500
7522220;-0.26000
7524998;-0.26500
7527776;-0.24500
7530553;-0.24000
7533331;-0.23500
7536109;-0.23000
7538887;-0.24500
7541665;-0.23500
7544442;-0.23000
7547220;-0.21500
7549998;-0.21500
7552776;-0.22000
7555553;-0.21000
7558331;-0.21000
7561109;-0.19500
7563887;-0.18500
7566665;-0.17000
7569442;-0.17500
7572220;-0.18000
7574998;-0.18500
7577776;-0.17500
7580553;-0.17500
7583331;-0.18000
7586109;-0.19000
7588887;-0.19000
7591665;-0.18500
7594442;-0.18500
7597220;-0.17500
7599998;-0.17000
7602776;-0.16000
7605553;-0.15500
7608331;-0.17500
7611109;-0.22500
7613887;-0.24000
7616665;-0.25000
7619442;-0.26000
7622220;-0.28500
7624998;-0.29000
7627776;-0.29000
7630553;-0.29500
7633331;-0.30500
7636109;-0.31500
7638887;-0.32500
7641665;-0.31500
7644442;-0.32000
7647220;-0.32500
7649998;-0.32000
7652776;-0.33500
7655553;-0.34000
7658331;-0.34000
7661109;-0.32500
7663887;-0.32500
7666665;-0.33000
7669442;-0.34500
7672220;-0.36000
7674998;-0.35000
7677776;-0.35000
7680553;-0.33500
7683331;-0.33000
7686109;-0.33500
7688887;-0.35000
7691665;-0.34500
7694442;-0.34500
7697220;-0.33000
7699998;-0.34000
7702776;-0.36500
7705553;-0.40500
7708331;-0.43000
7711109;-0.45500
7713887;-0.46500
7716665;-0.50000
7719442;-0.56000
7722220;-0.57000
7724998;-0.51500
7727776;-0.41500
7730553;-0.31500
7733331;-0.24000
7736109;-0.16500
7738887;-0.07000
7741664;0.09000
7744442;0.31000
7747220;0.55000
7749998;0.71500
7752776;0.82500
7755553;0.89000
7758331;0.90000
7761109;0.75000
7763887;0.42000
7766664;0.01500
7769442;-0.31500
7772220;-0.49500
7774998;-0.51500
7777776;-0.46000
7780553;-0.40500
7783331;-0.38000
7786109;-0.39000
7788887;-0.40000
7791664;-0.39500
7794442;-0.38500
7797220;-0.37500
7799998;-0.37500
7802776;-0.38500
7805553;-0.39000
7808331;-0.39000
7811109;-0.39500
7813887;-0.38500
7816664;-0.38500
7819442;-0.38000
7822220;-0.39500
7824998;-0.38500
7827776;-0.39000
7830553;-0.39500
7833331;-0.39000
7836109;-0.39500
7838887;-0.39500
7841664;-0.39500
7844442;-0.39000
7847220;-0.38000
7849998;-0.39000
7852776;-0.39000
7855553;-0.40000
7858331;-0.39000
7861109;-0.39000
7863887;-0.38000
7866664;-0.38000
7869442;-0.38500
7872220;-0.40000
7874998;-0.40500
7877776;-0.40000
7880553;-0.38000
7883331;-0.39500
7886109;-0.39000
7888887;-0.40500
7891664;-0.40500
7894442;-0.38500
7897220;-0.37500
7899998;-0.38000
7902776;-0.39000
7905553;-0.39500
7908331;-0.40000
7911109;-0.40000
7913887;-0.39000
7916664;-0.39000
7919442;-0.39000
7922220;-0.40500
7924998;-0.40000
7927776;-0.40000
7930553;-0.38000
7933331;-0.38500
7936109;-0.37500
7938887;-0.38000
7941664;-0.38500
7944442;-0.38000
7947220;-0.37500
7949998;-0.36000
7952776;-0.38500
7955553;-0.39000
7958331;-0.39500
7961109;-0.38500
7963887;-0.36000
7966664;-0.36500
7969442;-0.37500
7972220;-0.40000
7974998;-0.39000
7977776;-0.37500
7980553;-0.37500
7983331;-0.38000
7986109;-0.39500
7988887;-0.40500
7991664;-0.40500
7994442;-0.40000
7997220;-0.38000
7999998;-0.38500
8002776;-0.40000
8005553;-0.40500
8008331;-0.42000
8011109;-0.39500
8013887;-0.39000
8016664;-0.39500
8019442;-0.39500
8022220;-0.39500
8024998;-0.39500
8027776;-0.38000
8030553;-0.38000
8033331;-0.37500
8036109;-0.37500
8038887;-0.38500
8041664;-0.37500
8044442;-0.37000
8047220;-0.35500
8049998;-0.36000
8052776;-0.36000
8055553;-0.37500
8058331;-0.36500
8061109;-0.34500
8063887;-0.32000
8066664;-0.31500
8069442;-0.31500
8072220;-0.32500
8074998;-0.31000
8077776;-0.29500
8080553;-0.29500
8083331;-0.30500
8086109;-0.31000
8088887;-0.32500
8091664;-0.32000
8094442;-0.31500
8097220;-0.30500
8099998;-0.30500
8102776;-0.32000
8105553;-0.33000
8108331;-0.33500
8111109;-0.30500
8113887;-0.29500
8116664;-0.30500
8119442;-0.30000
8122220;-0.32500
8124998;-0.32500
8127776;-0.30500
8130553;-0.30000
8133331;-0.30500
8136109;-0.31000
8138887;-0.32500
8141664;-0.32000
8144442;-0.31500
8147220;-0.30000
8149998;-0.30000
8152775;-0.32500
8155553;-0.33000
8158331;-0.33500
8161109;-0.33000
8163887;-0.33000
8166664;-0.33000
8169442;-0.34000
8172220;-0.35500
8174998;-0.35500
8177775;-0.35000
8180553;-0.34000
8183331;-0.33500
8186109;-0.35000
8188887;-0.36000
8191664;-0.35500
8194442;-0.34500
8197220;-0.34500
8199998;-0.34500
8202775;-0.34500
8205553;-0.35500
8208331;-0.36000
8211109;-0.34500
8213887;-0.34500
8216664;-0.35500
8219442;-0.36000
8222220;-0.37000
8224998;-0.37000
8227775;-0.36500
8230553;-0.35500
8233331;-0.35000
8236109;-0.36500
8238887;-0.37500
8241664;-0.37500
8244442;-0.37000
8247220;-0.36500
8249998;-0.37000
8252775;-0.38000
8255553;-0.39000
8258331;-0.40000
8261109;-0.38500
8263887;-0.37000
8266664;-0.36500
8269442;-0.39500
8272220;-0.40000
8274998;-0.38500
8277775;-0.37500
8280553;-0.35500
8283331;-0.36500
8286109;-0.38000
8288887;-0.39000
8291664;-0.38500
8294442;-0.38500
8297220;-0.38000
8299998;-0.36000
8302775;-0.36500
8305553;-0.37500
8308331;-0.38500
8311109;-0.37000
8313887;-0.36000
8316664;-0.36500
8319442;-0.38000
8322220;-0.37500
8324998;-0.36500
8327775;-0.34500
8330553;-0.34000
8333331;-0.33500
8336109;-0.34000
8338887;-0.35000
8341664;-0.33500
8344442;-0.32000
8347220;-0.31500
8349998;-0.30500
8352775;-0.31500
8355553;-0.33000
8358331;-0.32000
8361109;-0.31000
8363887;-0.28500
8366664;-0.27500
8369442;-0.27000
8372220;-0.28000
8374998;-0.25500
8377775;-0.24500
8380553;-0.24500
8383331;-0.27000
8386109;-0.28000
8388887;-0.28000
8391664;-0.28500
8394442;-0.26500
8397220;-0.26000
8399998;-0.25000
8402775;-0.26500
8405553;-0.27000
8408331;-0.25000
8411109;-0.22500
8413887;-0.23000
8416664;-0.27000
8419442;-0.30500
8422220;-0.33500
8424998;-0.33500
8427775;-0.34000
8430553;-0.35000
8433331;-0.36500
8436109;-0.37500
8438887;-0.40000
8441664;-0.39500
8444442;-0.39500
8447220;-0.37000
8449998;-0.38000
8452775;-0.39000
8455553;-0.39500
8458331;-0.39000
8461109;-0.39000
8463887;-0.38500
8466664;-0.38500
8469442;-0.39500
8472220;-0.42000
8474998;-0.40500
8477775;-0.40000
8480553;-0.38000
8483331;-0.39000
8486109;-0.39500
8488887;-0.41000
8491664;-0.41000
8494442;-0.40000
8497220;-0.40500
8499998;-0.39500
8502775;-0.40000
8505553;-0.42000
8508331;-0.42000
8511109;-0.41000
8513887;-0.40500
8516664;-0.42000
8519442;-0.42000
8522220;-0.44500
8524998;-0.46000
8527775;-0.49000
8530553;-0.51000
8533331;-0.53000
8536109;-0.57500
8538886;-0.62000
8541664;-0.63000
8544442;-0.57500
8547220;-0.48000
8549998;-0.36500
8552775;-0.25000
8555553;-0.08000
8558331;0.17500
8561109;0.44000
8563886;0.65500
8566664;0.80000
8569442;0.83000
8572220;0.69000
8574998;0.39000
8577775;0.03000
8580553;-0.27000
8583331;-0.46500
8586109;-0.56500
8588886;-0.58000
8591664;-0.55000
8594442;-0.49000
8597220;-0.46500
8599998;-0.45500
8602775;-0.47000
8605553;-0.47500
8608331;-0.47000
8611109;-0.45500
8613886;-0.44000
8616664;-0.44000
8619442;-0.46500
8622220;-0.47000
8624998;-0.45000
8627775;-0.44000
8630553;-0.43500
8633331;-0.45000
8636109;-0.44000
8638886;-0.46000
8641664;-0.44500
8644442;-0.44000
8647220;-0.43500
8649998;-0.44000
8652775;-0.45000
8655553;-0.46500
8658331;-0.45000
8661109;-0.46000
8663886;-0.45500
8666664;-0.45000
8669442;-0.46500
8672220;-0.48000
8674998;-0.47500
8677775;-0.45500
8680553;-0.44000
8683331;-0.44500
8686109;-0.46000
8688886;-0.46500
8691664;-0.45000
8694442;-0.45000
8697220;-0.45500
8699998;-0.45000
8702775;-0.45000
8705553;-0.46000
8708331;-0.46500
8711109;-0.44500
8713886;-0.44500
8716664;-0.45000
8719442;-0.46000
8722220;-0.46500
8724998;-0.46000
8727775;-0.46500
8730553;-0.45000
8733331;-0.45500
8736109;-0.46500
8738886;-0.47000
8741664;-0.45500
8744442;-0.46000
8747220;-0.45000
8749998;-0.45000
8752775;-0.45500
8755553;-0.47000
8758331;-0.47000
8761109;-0.45000
8763886;-0.44500
8766664;-0.44500
8769442;-0.43500
8772220;-0.45500
8774998;-0.44500
8777775;-0.44500
8780553;-0.45000
8783331;-0.43500
8786109;-0.44500
8788886;-0.46000
8791664;-0.45500
8794442;-0.46000
8797220;-0.44500
8799998;-0.46000
8802775;-0.47000
8805553;-0.47500
8808331;-0.47500
8811109;-0.48000
8813886;-0.47000
8816664;-0.48500
8819442;-0.50000
8822220;-0.49500
8824998;-0.49500
8827775;-0.49000
8830553;-0.48000
8833331;-0.47500
8836109;-0.49000
8838886;-0.50000
8841664;-0.49500
8844442;-0.48500
8847220;-0.48000
8849998;-0.48000
8852775;-0.47500
8855553;-0.48500
8858331;-0.46500
8861109;-0.46000
8863886;-0.44500
8866664;-0.44000
8869442;-0.44500
8872220;-0.45500
8874998;-0.45000
8877775;-0.43000
8880553;-0.41000
8883331;-0.41000
8886109;-0.40500
8888886;-0.41000
8891664;-0.39500
8894442;-0.37000
8897220;-0.36500
8899998;-0.35000
8902775;-0.35000
8905553;-0.36000
8908331;-0.34500
8911109;-0.33000
8913886;-0.32000
8916664;-0.33000
8919442;-0.33000
8922220;-0.34000
8924998;-0.32500
8927775;-0.30500
8930553;-0.30000
8933331;-0.30000
8936109;-0.31500
8938886;-0.33500
8941664;-0.32500
8944442;-0.32500
8947220;-0.30500
8949997;-0.30500
8952775;-0.31500
8955553;-0.33000
8958331;-0.32000
8961109;-0.32000
8963886;-0.32000
8966664;-0.32000
8969442;-0.32500
8972220;-0.34000
8974997;-0.33500
8977775;-0.33000
8980553;-0.32000
8983331;-0.31500
8986109;-0.33000
8988886;-0.33000
8991664;-0.33500
8994442;-0.33500
8997220;-0.31000
8999997;-0.31000
9002775;-0.33000
9005553;-0.33000
9008331;-0.32500
9011109;-0.33500
9013886;-0.32000
9016664;-0.32500
9019442;-0.34000
9022220;-0.35000
9024997;-0.34000
9027775;-0.35000
9030553;-0.33500
9033331;-0.34500
9036109;-0.34000
9038886;-0.35000
9041664;-0.35500
9044442;-0.34000
9047220;-0.33500
9049997;-0.34000
9052775;-0.34500
9055553;-0.36500
9058331;-0.36000
9061109;-0.35000
9063886;-0.33500
9066664;-0.34000
9069442;-0.34500
9072220;-0.35500
9074997;-0.36000
9077775;-0.34500
9080553;-0.32500
9083331;-0.33500
9086109;-0.34000
9088886;-0.35500
9091664;-0.35000
9094442;-0.33500
9097220;-0.32500
9099997;-0.32500
9102775;-0.33500
9105553;-0.35500
9108331;-0.35500
9111109;-0.34000
9113886;-0.33500
9116664;-0.33500
9119442;-0.33500
9122220;-0.34500
9124997;-0.34000
9127775;-0.32000
9130553;-0.30000
9133331;-0.31000
9136109;-0.31000
9138886;-0.33000
9141664;-0.32000
9144442;-0.30000
9147220;-0.27000
9149997;-0.27500
9152775;-0.29000
9155553;-0.29000
9158331;-0.28500
9161109;-0.27000
9163886;-0.24500
9166664;-0.24500
9169442;-0.25000
9172220;-0.26000
9174997;-0.25000
9177775;-0.23500
9180553;-0.22500
9183331;-0.22000
9186109;-0.22500
9188886;-0.23000
9191664;-0.23000
9194442;-0.22000
9197220;-0.20500
9199997;-0.19500
9202775;-0.20000
9205553;-0.21000
9208331;-0.20000
9211109;-0.20000
9213886;-0.21500
9216664;-0.20500
9219442;-0.20500
9222220;-0.21000
9224997;-0.20000
9227775;-0.19000
9230553;-0.18500
9233331;-0.17500
9236109;-0.16000
9238886;-0.17500
9241664;-0.19000
9244442;-0.22000
9247220;-0.23500
9249997;-0.24500
9252775;-0.26500
9255553;-0.28000
9258331;-0.30000
9261109;-0.31000
9263886;-0.31500
9266664;-0.31500
9269442;-0.33000
9272220;-0.33500
9274997;-0.34000
9277775;-0.32500
9280553;-0.31000
9283331;-0.32000
9286109;-0.32500
9288886;-0.35000
9291664;-0.34000
9294442;-0.33000
9297220;-0.31000
9299997;-0.32500
9302775;-0.33000
9305553;-0.34000
9308331;-0.33000
9311109;-0.32500
9313886;-0.31500
9316664;-0.32000
9319442;-0.33500
9322220;-0.34500
9324997;-0.34000
9327775;-0.32000
9330553;-0.31500
9333331;-0.32000
9336108;-0.33000
9338886;-0.36000
9341664;-0.37500
9344442;-0.41000
9347220;-0.42500
9349997;-0.44000
9352775;-0.47500
9355553;-0.53500
9358331;-0.54000
9361108;-0.50000
9363886;-0.40000
9366664;-0.27000
9369442;-0.15500
9372220;0.01500
9374997;0.25000
9377775;0.52000
9380553;0.75000
9383331;0.89500
9386108;0.92000
