time_ms;ecg_value
0;-0.53000
2778;-0.54000
5556;-0.53500
8333;-0.53500
11111;-0.53500
13889;-0.53000
16667;-0.52000
19444;-0.52000
22222;-0.52500
25000;-0.53000
27778;-0.53000
30556;-0.53000
33333;-0.52000
36111;-0.52500
38889;-0.53000
41667;-0.53500
44444;-0.54000
47222;-0.52500
50000;-0.51500
52778;-0.51500
55556;-0.52500
58333;-0.54000
61111;-0.53500
63889;-0.51500
66667;-0.52500
69444;-0.52000
72222;-0.53000
75000;-0.53000
77778;-0.52500
80556;-0.52500
83333;-0.50500
86111;-0.50000
88889;-0.51000
91667;-0.50000
94444;-0.51000
97222;-0.48500
100000;-0.46500
102778;-0.46500
105556;-0.45000
108333;-0.46000
111111;-0.44500
113889;-0.44000
116667;-0.43000
119444;-0.42500
122222;-0.42500
125000;-0.42000
127778;-0.41500
130556;-0.41000
133333;-0.39500
136111;-0.40000
138889;-0.41000
141667;-0.42500
144444;-0.42500
147222;-0.41000
150000;-0.41000
152778;-0.41000
155556;-0.41500
158333;-0.43000
161111;-0.39500
163889;-0.39500
166667;-0.39500
169444;-0.41000
172222;-0.42500
175000;-0.42000
177778;-0.41000
180556;-0.39000
183333;-0.38500
186111;-0.41000
188889;-0.45500
191667;-0.48000
194444;-0.49000
197222;-0.49500
200000;-0.50000
202778;-0.51500
205555;-0.52000
208333;-0.53000
211111;-0.52500
213889;-0.52500
216667;-0.51000
219444;-0.51500
222222;-0.51500
225000;-0.54000
227778;-0.51500
230555;-0.50500
233333;-0.51000
236111;-0.51000
238889;-0.52500
241667;-0.53000
244444;-0.53000
247222;-0.53000
250000;-0.52000
252778;-0.52000
255555;-0.52500
258333;-0.53500
261111;-0.54500
263889;-0.53500
266667;-0.55000
269444;-0.58000
272222;-0.61500
275000;-0.63500
277778;-0.62500
280555;-0.62000
283333;-0.64000
286111;-0.69000
288889;-0.73000
291667;-0.76500
294444;-0.72500
297222;-0.64500
300000;-0.54000
302778;-0.39500
305555;-0.27500
308333;-0.09500
311111;0.15500
313889;0.42500
316667;0.66500
319444;0.81000
322222;0.85000
325000;0.67500
327778;0.33000
330555;-0.09500
333333;-0.42000
336111;-0.59500
338889;-0.63500
341667;-0.60500
344444;-0.55500
347222;-0.52000
350000;-0.52000
352778;-0.51500
355555;-0.51500
358333;-0.51500
361111;-0.51500
363889;-0.51000
366667;-0.50500
369444;-0.50500
372222;-0.50500
375000;-0.53000
377778;-0.52000
380555;-0.51500
383333;-0.50000
386111;-0.51000
388889;-0.52000
391667;-0.52000
394444;-0.51500
397222;-0.51500
400000;-0.50000
402778;-0.51000
405555;-0.50500
408333;-0.53000
411111;-0.52500
413889;-0.51500
416667;-0.49500
419444;-0.50500
422222;-0.50500
425000;-0.52000
427778;-0.51000
430555;-0.50000
433333;-0.49000
436111;-0.48500
438889;-0.49500
441667;-0.50000
444444;-0.50500
447222;-0.49500
450000;-0.48500
452778;-0.49000
455555;-0.49000
458333;-0.50500
461111;-0.50000
463889;-0.49000
466667;-0.47500
469444;-0.48500
472222;-0.49500
475000;-0.50000
477778;-0.49500
480555;-0.49500
483333;-0.48000
486111;-0.49000
488889;-0.50000
491667;-0.51000
494444;-0.51000
497222;-0.49000
500000;-0.48500
502778;-0.48500
505555;-0.48000
508333;-0.49500
511111;-0.48500
513889;-0.48000
516667;-0.47000
519444;-0.47000
522222;-0.49000
525000;-0.49000
527778;-0.48500
530555;-0.48500
533333;-0.47500
536111;-0.49000
538889;-0.50000
541667;-0.52500
544444;-0.52000
547222;-0.50000
550000;-0.49500
552778;-0.50000
555555;-0.50500
558333;-0.51500
561111;-0.51000
563889;-0.50000
566667;-0.49000
569444;-0.48500
572222;-0.48500
575000;-0.48500
577778;-0.48000
580555;-0.47000
583333;-0.45500
586111;-0.43500
588889;-0.44500
591667;-0.43500
594444;-0.42500
597222;-0.41500
600000;-0.40000
602778;-0.39000
605555;-0.40500
608333;-0.40500
611111;-0.39000
613889;-0.37500
616666;-0.36500
619444;-0.36500
622222;-0.37000
625000;-0.38500
627778;-0.38000
630555;-0.37500
633333;-0.35500
636111;-0.36000
638889;-0.36500
641666;-0.37000
644444;-0.36500
647222;-0.35500
650000;-0.35000
652778;-0.34500
655555;-0.36000
658333;-0.36500
661111;-0.36000
663889;-0.35000
666666;-0.33500
669444;-0.34500
672222;-0.35500
675000;-0.35500
677778;-0.35000
680555;-0.34500
683333;-0.35000
686111;-0.35500
688889;-0.36500
691666;-0.37500
694444;-0.38000
697222;-0.36500
700000;-0.35500
702778;-0.37000
705555;-0.38000
708333;-0.37500
711111;-0.36500
713889;-0.37000
716666;-0.36500
719444;-0.36500
722222;-0.36500
725000;-0.38500
727778;-0.38500
730555;-0.37500
733333;-0.37500
736111;-0.37500
738889;-0.39000
741666;-0.38500
744444;-0.38000
747222;-0.37500
750000;-0.38000
752778;-0.37500
755555;-0.37500
758333;-0.39500
761111;-0.38500
763889;-0.38000
766666;-0.37500
769444;-0.38000
772222;-0.39500
775000;-0.39500
777778;-0.40000
780555;-0.39000
783333;-0.39500
786111;-0.39000
788889;-0.40000
791666;-0.40000
794444;-0.39000
797222;-0.38000
800000;-0.38500
802778;-0.38500
805555;-0.38000
808333;-0.38000
811111;-0.38000
813889;-0.37500
816666;-0.36500
819444;-0.37000
822222;-0.38000
825000;-0.39000
827778;-0.38500
830555;-0.37000
833333;-0.37500
836111;-0.38000
838889;-0.38500
841666;-0.39000
844444;-0.38500
847222;-0.37500
850000;-0.38000
852778;-0.38500
855555;-0.39500
858333;-0.40000
861111;-0.38500
863889;-0.37500
866666;-0.36000
869444;-0.35500
872222;-0.35500
875000;-0.36500
877778;-0.35500
880555;-0.33500
883333;-0.32500
886111;-0.31000
888889;-0.31000
891666;-0.31500
894444;-0.31000
897222;-0.29500
900000;-0.28500
902778;-0.27000
905555;-0.28500
908333;-0.29500
911111;-0.26500
913889;-0.26000
916666;-0.24000
919444;-0.24000
922222;-0.25000
925000;-0.27000
927778;-0.28000
930555;-0.27000
933333;-0.26500
936111;-0.26500
938889;-0.28000
941666;-0.29500
944444;-0.28500
947222;-0.29500
950000;-0.29000
952778;-0.26500
955555;-0.25000
958333;-0.25500
961111;-0.26500
963889;-0.29000
966666;-0.31500
969444;-0.32000
972222;-0.34500
975000;-0.36000
977778;-0.37000
980555;-0.36500
983333;-0.36500
986111;-0.37500
988889;-0.39000
991666;-0.40500
994444;-0.38500
997222;-0.39500
1000000;-0.39500
1002777;-0.39500
1005555;-0.40000
1008333;-0.41000
1011111;-0.40500
1013889;-0.40000
1016666;-0.39500
1019444;-0.39000
1022222;-0.40500
1025000;-0.41500
1027777;-0.41500
1030555;-0.40000
1033333;-0.39500
1036111;-0.40000
1038889;-0.40000
1041666;-0.41500
1044444;-0.41500
1047222;-0.41500
1050000;-0.42000
1052777;-0.45500
1055555;-0.49000
1058333;-0.53500
1061111;-0.55500
1063889;-0.57000
1066666;-0.60000
1069444;-0.59000
1072222;-0.51500
1075000;-0.39000
1077777;-0.22500
1080555;-0.07000
1083333;0.13000
1086111;0.39500
1088889;0.65000
1091666;0.85500
1094444;0.98500
1097222;0.99000
1100000;0.85000
1102777;0.51000
1105555;0.09000
1108333;-0.27500
1111111;-0.49500
1113889;-0.56500
1116666;-0.55000
1119444;-0.52500
1122222;-0.48500
1125000;-0.46500
1127777;-0.44500
1130555;-0.43000
1133333;-0.43000
1136111;-0.42500
1138889;-0.43500
1141666;-0.45500
1144444;-0.45000
1147222;-0.42500
1150000;-0.42500
1152777;-0.42500
1155555;-0.43000
1158333;-0.43500
1161111;-0.43500
1163889;-0.41500
1166666;-0.42000
1169444;-0.42500
1172222;-0.44000
1175000;-0.44500
1177777;-0.43500
1180555;-0.43500
1183333;-0.42000
1186111;-0.42500
1188889;-0.42500
1191666;-0.44000
1194444;-0.43500
1197222;-0.43000
1200000;-0.42500
1202777;-0.43000
1205555;-0.43000
1208333;-0.44000
1211111;-0.44500
1213889;-0.43500
1216666;-0.42000
1219444;-0.42000
1222222;-0.42000
1225000;-0.43000
1227777;-0.42500
1230555;-0.41000
1233333;-0.40000
1236111;-0.40000
1238889;-0.40000
1241666;-0.40500
1244444;-0.40500
1247222;-0.40000
1250000;-0.40000
1252777;-0.40000
1255555;-0.40000
1258333;-0.42500
1261111;-0.41000
1263889;-0.41000
1266666;-0.40500
1269444;-0.41000
1272222;-0.41500
1275000;-0.43000
1277777;-0.41500
1280555;-0.41500
1283333;-0.40000
1286111;-0.40500
1288889;-0.39500
1291666;-0.40500
1294444;-0.40500
1297222;-0.39500
1300000;-0.38000
1302777;-0.38000
1305555;-0.39500
1308333;-0.39500
1311111;-0.39500
1313889;-0.39500
1316666;-0.39500
1319444;-0.40000
1322222;-0.40000
1325000;-0.41500
1327777;-0.41500
1330555;-0.40500
1333333;-0.39500
1336111;-0.40500
1338889;-0.41000
1341666;-0.42000
1344444;-0.41000
1347222;-0.40500
1350000;-0.40000
1352777;-0.39500
1355555;-0.39000
1358333;-0.41000
1361111;-0.39500
1363889;-0.38500
1366666;-0.36500
1369444;-0.36000
1372222;-0.36500
1375000;-0.37500
1377777;-0.36500
1380555;-0.36000
1383333;-0.36500
1386111;-0.35000
1388888;-0.35000
1391666;-0.36500
1394444;-0.34500
1397222;-0.33500
1400000;-0.32000
1402777;-0.31500
1405555;-0.32500
1408333;-0.34500
1411111;-0.32500
1413888;-0.32500
1416666;-0.31000
1419444;-0.31000
1422222;-0.31500
1425000;-0.32500
1427777;-0.31500
1430555;-0.29500
1433333;-0.30000
1436111;-0.29000
1438888;-0.29500
1441666;-0.32500
1444444;-0.32000
1447222;-0.30000
1450000;-0.30000
1452777;-0.30500
1455555;-0.33500
1458333;-0.34500
1461111;-0.32500
1463888;-0.31500
1466666;-0.30500
1469444;-0.30500
1472222;-0.33500
1475000;-0.34500
1477777;-0.34000
1480555;-0.32500
1483333;-0.32000
1486111;-0.32000
1488888;-0.33000
1491666;-0.34000
1494444;-0.34500
1497222;-0.33500
1500000;-0.33000
1502777;-0.33000
1505555;-0.34000
1508333;-0.34500
1511111;-0.34000
1513888;-0.32500
1516666;-0.32000
1519444;-0.32500
1522222;-0.34500
1525000;-0.36000
1527777;-0.35500
1530555;-0.34000
1533333;-0.33500
1536111;-0.34000
1538888;-0.36500
1541666;-0.36500
1544444;-0.37000
1547222;-0.36000
1550000;-0.35000
1552777;-0.35500
1555555;-0.36000
1558333;-0.37500
1561111;-0.36000
1563888;-0.35500
1566666;-0.34000
1569444;-0.33000
1572222;-0.34000
1575000;-0.35500
1577777;-0.35000
1580555;-0.34000
1583333;-0.34000
1586111;-0.34500
1588888;-0.35500
1591666;-0.36500
1594444;-0.37000
1597222;-0.35500
1600000;-0.35500
1602777;-0.35500
1605555;-0.35500
1608333;-0.37500
1611111;-0.37000
1613888;-0.35500
1616666;-0.33500
1619444;-0.35000
1622222;-0.35500
1625000;-0.36500
1627777;-0.37000
1630555;-0.35000
1633333;-0.34000
1636111;-0.33500
1638888;-0.35000
1641666;-0.36500
1644444;-0.35500
1647222;-0.34000
1650000;-0.33000
1652777;-0.33000
1655555;-0.33000
1658333;-0.33500
1661111;-0.31500
1663888;-0.29500
1666666;-0.28000
1669444;-0.28000
1672222;-0.28000
1675000;-0.29500
1677777;-0.28500
1680555;-0.27000
1683333;-0.26000
1686111;-0.25000
1688888;-0.25500
1691666;-0.25500
1694444;-0.25000
1697222;-0.23000
1700000;-0.23500
1702777;-0.25000
1705555;-0.25500
1708333;-0.26000
1711111;-0.26000
1713888;-0.25500
1716666;-0.24500
1719444;-0.26000
1722222;-0.26500
1725000;-0.27500
1727777;-0.26500
1730555;-0.24500
1733333;-0.20000
1736111;-0.19500
1738888;-0.19000
1741666;-0.22500
1744444;-0.25000
1747222;-0.26500
1750000;-0.27000
1752777;-0.28500
1755555;-0.32000
1758333;-0.35000
1761111;-0.36500
1763888;-0.37000
1766666;-0.36000
1769444;-0.38500
1772222;-0.38500
1775000;-0.39000
1777777;-0.38500
1780555;-0.38500
1783333;-0.36000
1786111;-0.36500
1788888;-0.37500
1791666;-0.40000
1794444;-0.39000
1797222;-0.38500
1799999;-0.38500
1802777;-0.37500
1805555;-0.37000
1808333;-0.38000
1811111;-0.37500
1813888;-0.38000
1816666;-0.37000
1819444;-0.36000
1822222;-0.38500
1824999;-0.39500
1827777;-0.40000
1830555;-0.40000
1833333;-0.40500
1836111;-0.43000
1838888;-0.45000
1841666;-0.51000
1844444;-0.51000
1847222;-0.53500
1849999;-0.55500
1852777;-0.58500
1855555;-0.60000
1858333;-0.55000
1861111;-0.45000
1863888;-0.34000
1866666;-0.21000
1869444;-0.05500
1872222;0.14500
1874999;0.37500
1877777;0.58500
1880555;0.73000
1883333;0.82500
1886111;0.91500
1888888;0.99000
1891666;0.99000
1894444;0.89000
1897222;0.61500
1899999;0.24500
1902777;-0.12000
1905555;-0.38000
1908333;-0.52500
1911111;-0.54500
1913888;-0.50500
1916666;-0.46000
1919444;-0.42000
1922222;-0.42500
1924999;-0.44000
1927777;-0.43000
1930555;-0.42500
1933333;-0.42000
1936111;-0.42500
1938888;-0.44000
1941666;-0.44500
1944444;-0.44000
1947222;-0.43000
1949999;-0.42000
1952777;-0.42500
1955555;-0.43000
1958333;-0.44000
1961111;-0.45000
1963888;-0.44000
1966666;-0.45000
1969444;-0.43500
1972222;-0.43500
1974999;-0.43500
1977777;-0.42500
1980555;-0.42000
1983333;-0.43000
1986111;-0.42500
1988888;-0.43500
1991666;-0.44500
1994444;-0.43500
1997222;-0.43000
1999999;-0.41500
2002777;-0.43500
2005555;-0.45000
2008333;-0.45500
2011111;-0.45000
2013888;-0.44000
2016666;-0.43500
2019444;-0.43000
2022222;-0.44000
2024999;-0.45000
2027777;-0.45500
2030555;-0.44500
2033333;-0.45000
2036111;-0.45000
2038888;-0.46000
2041666;-0.45500
2044444;-0.44500
2047222;-0.44500
2049999;-0.45500
2052777;-0.45000
2055555;-0.44500
2058333;-0.46000
2061111;-0.46000
2063888;-0.44000
2066666;-0.43500
2069444;-0.43500
2072222;-0.44500
2074999;-0.45000
2077777;-0.46000
2080555;-0.44000
2083333;-0.45000
2086111;-0.44500
2088888;-0.45000
2091666;-0.45500
2094444;-0.45500
2097222;-0.43500
2099999;-0.42500
2102777;-0.42500
2105555;-0.44000
2108333;-0.45500
2111111;-0.45000
2113888;-0.44500
2116666;-0.44500
2119444;-0.44000
2122222;-0.45500
2124999;-0.45500
2127777;-0.45500
2130555;-0.44500
2133333;-0.43500
2136111;-0.43500
2138888;-0.44000
2141666;-0.44000
2144444;-0.44500
2147222;-0.44500
2149999;-0.44000
2152777;-0.45500
2155555;-0.46500
2158333;-0.49000
2161111;-0.49000
2163888;-0.47500
2166666;-0.46500
2169444;-0.46000
2172222;-0.45500
2174999;-0.47500
2177777;-0.47000
2180555;-0.47000
2183333;-0.47000
2186110;-0.46000
2188888;-0.46000
2191666;-0.46000
2194444;-0.45000
2197222;-0.42000
2199999;-0.40500
2202777;-0.40000
2205555;-0.40500
2208333;-0.39500
2211110;-0.38500
2213888;-0.36000
2216666;-0.35000
2219444;-0.35500
2222222;-0.36000
2224999;-0.36500
2227777;-0.36500
2230555;-0.35000
2233333;-0.36000
2236110;-0.35500
2238888;-0.37000
2241666;-0.37000
2244444;-0.37500
2247222;-0.36000
2249999;-0.36500
2252777;-0.36000
2255555;-0.36000
2258333;-0.36500
2261110;-0.38000
2263888;-0.37000
2266666;-0.36000
2269444;-0.36000
2272222;-0.37000
2274999;-0.38500
2277777;-0.37500
2280555;-0.36500
2283333;-0.35500
2286110;-0.36000
2288888;-0.36000
2291666;-0.38000
2294444;-0.39000
2297222;-0.39500
2299999;-0.39500
2302777;-0.38500
2305555;-0.39000
2308333;-0.41000
2311110;-0.40000
2313888;-0.40500
2316666;-0.40500
2319444;-0.39500
2322222;-0.41000
2324999;-0.41000
2327777;-0.40500
2330555;-0.40500
2333333;-0.40000
2336110;-0.39500
2338888;-0.42000
2341666;-0.42000
2344444;-0.42000
2347222;-0.39500
2349999;-0.38500
2352777;-0.39000
2355555;-0.41000
2358333;-0.43000
2361110;-0.42000
2363888;-0.40000
2366666;-0.39000
2369444;-0.38500
2372222;-0.39500
2374999;-0.41000
2377777;-0.42000
2380555;-0.40000
2383333;-0.40000
2386110;-0.42000
2388888;-0.43000
2391666;-0.43500
2394444;-0.44000
2397222;-0.43000
2399999;-0.41000
2402777;-0.41000
2405555;-0.42500
2408333;-0.43000
2411110;-0.42000
2413888;-0.41000
2416666;-0.40000
2419444;-0.41000
2422222;-0.41000
2424999;-0.41000
2427777;-0.39500
2430555;-0.38000
2433333;-0.37500
2436110;-0.39000
2438888;-0.40500
2441666;-0.43500
2444444;-0.42000
2447222;-0.41000
2449999;-0.40000
2452777;-0.41500
2455555;-0.43500
2458333;-0.44500
2461110;-0.44500
2463888;-0.43500
2466666;-0.42000
2469444;-0.42000
2472222;-0.41000
2474999;-0.40500
2477777;-0.38000
2480555;-0.34500
2483333;-0.34000
2486110;-0.34000
2488888;-0.34000
2491666;-0.34000
2494444;-0.34000
2497222;-0.31500
2499999;-0.29500
2502777;-0.29500
2505555;-0.30500
2508333;-0.32500
2511110;-0.30500
2513888;-0.29500
2516666;-0.29500
2519444;-0.30500
2522222;-0.31500
2524999;-0.33500
2527777;-0.33000
2530555;-0.32000
2533333;-0.30500
2536110;-0.31500
2538888;-0.35000
2541666;-0.35500
2544444;-0.35000
2547222;-0.31500
2549999;-0.29000
2552777;-0.30500
2555555;-0.32500
2558333;-0.35000
2561110;-0.36000
2563888;-0.36500
2566666;-0.38000
2569444;-0.38500
2572222;-0.41000
2574999;-0.42500
2577777;-0.42000
2580555;-0.41500
2583333;-0.40500
2586110;-0.42500
2588888;-0.44000
2591666;-0.43500
2594444;-0.42000
2597221;-0.43000
2599999;-0.43500
2602777;-0.43000
2605555;-0.44000
2608333;-0.45000
2611110;-0.44500
2613888;-0.45000
2616666;-0.44500
2619444;-0.46000
2622221;-0.45500
2624999;-0.47000
2627777;-0.46500
2630555;-0.47500
2633333;-0.45000
2636110;-0.45500
2638888;-0.46500
2641666;-0.47500
2644444;-0.46500
2647221;-0.45500
2649999;-0.48000
2652777;-0.51000
2655555;-0.54000
2658333;-0.58000
2661110;-0.60000
2663888;-0.62000
2666666;-0.65000
2669444;-0.65000
2672221;-0.60500
2674999;-0.48500
2677777;-0.35500
2680555;-0.19500
2683333;0.00500
2686110;0.27500
2688888;0.55500
2691666;0.76000
2694444;0.92000
2697221;0.96500
2699999;0.85500
2702777;0.51500
2705555;0.11000
2708333;-0.26500
2711110;-0.49500
2713888;-0.58000
2716666;-0.59000
2719444;-0.55500
2722221;-0.52000
2724999;-0.51000
2727777;-0.50000
2730555;-0.48500
2733333;-0.49000
2736110;-0.49000
2738888;-0.51000
2741666;-0.51500
2744444;-0.50000
2747221;-0.49500
2749999;-0.49000
2752777;-0.49000
2755555;-0.50000
2758333;-0.51500
2761110;-0.51000
2763888;-0.49500
2766666;-0.49000
2769444;-0.49000
2772221;-0.49000
2774999;-0.49500
2777777;-0.50500
2780555;-0.50500
2783333;-0.48000
2786110;-0.49000
2788888;-0.49000
2791666;-0.51000
2794444;-0.50000
2797221;-0.50500
2799999;-0.50000
2802777;-0.49500
2805555;-0.50500
2808333;-0.51500
2811110;-0.51000
2813888;-0.50000
2816666;-0.50500
2819444;-0.49500
2822221;-0.51000
2824999;-0.51500
2827777;-0.51000
2830555;-0.50000
2833333;-0.50000
2836110;-0.50500
2838888;-0.51000
2841666;-0.52000
2844444;-0.52000
2847221;-0.50000
2849999;-0.49000
2852777;-0.48500
2855555;-0.49000
2858333;-0.49500
2861110;-0.49000
2863888;-0.48500
2866666;-0.49000
2869444;-0.49000
2872221;-0.49000
2874999;-0.51500
2877777;-0.50000
2880555;-0.50000
2883333;-0.49000
2886110;-0.49000
2888888;-0.50000
2891666;-0.51000
2894444;-0.50000
2897221;-0.50000
2899999;-0.49000
2902777;-0.48500
2905555;-0.49500
2908333;-0.49500
2911110;-0.49000
2913888;-0.49000
2916666;-0.47500
2919444;-0.47500
2922221;-0.48000
2924999;-0.49000
2927777;-0.49500
2930555;-0.49500
2933333;-0.48500
2936110;-0.49000
2938888;-0.50000
2941666;-0.51500
2944444;-0.51500
2947221;-0.51000
2949999;-0.51000
2952777;-0.52000
2955555;-0.53500
2958333;-0.54500
2961110;-0.55500
2963888;-0.54000
2966666;-0.54500
2969444;-0.54000
2972221;-0.54500
2974999;-0.55500
2977777;-0.55000
2980555;-0.53500
2983332;-0.53000
2986110;-0.52000
2988888;-0.52000
2991666;-0.53500
2994444;-0.51000
2997221;-0.50000
2999999;-0.48000
3002777;-0.46000
3005555;-0.45500
3008332;-0.45000
3011110;-0.44000
3013888;-0.41500
3016666;-0.39500
3019444;-0.40000
3022221;-0.39000
3024999;-0.41000
3027777;-0.40000
3030555;-0.39000
3033332;-0.39000
3036110;-0.38000
3038888;-0.39000
3041666;-0.40500
3044444;-0.40000
3047221;-0.38500
3049999;-0.37500
3052777;-0.38000
3055555;-0.38000
3058332;-0.39000
3061110;-0.38000
3063888;-0.38000
3066666;-0.37000
3069444;-0.38000
3072221;-0.38500
3074999;-0.39500
3077777;-0.40000
3080555;-0.37500
3083332;-0.37000
3086110;-0.36000
3088888;-0.37000
3091666;-0.37500
3094444;-0.36000
3097221;-0.36000
3099999;-0.35000
3102777;-0.35000
3105555;-0.37000
3108332;-0.38000
3111110;-0.37500
3113888;-0.37000
3116666;-0.37000
3119444;-0.37500
3122221;-0.38500
3124999;-0.40500
3127777;-0.40000
3130555;-0.39500
3133332;-0.40500
3136110;-0.40000
3138888;-0.40500
3141666;-0.41500
3144444;-0.41500
3147221;-0.41000
3149999;-0.40500
3152777;-0.41000
3155555;-0.41000
3158332;-0.42000
3161110;-0.41000
3163888;-0.40000
3166666;-0.40000
3169444;-0.41000
3172221;-0.41500
3174999;-0.44000
3177777;-0.43000
3180555;-0.42000
3183332;-0.41500
3186110;-0.42000
3188888;-0.42500
3191666;-0.43500
3194444;-0.43500
3197221;-0.42500
3199999;-0.41500
3202777;-0.41500
3205555;-0.42500
3208332;-0.43500
3211110;-0.42500
3213888;-0.41000
3216666;-0.41500
3219444;-0.40500
3222221;-0.40500
3224999;-0.42500
3227777;-0.42000
3230555;-0.42500
3233332;-0.39000
3236110;-0.40000
3238888;-0.40500
3241666;-0.41000
3244444;-0.41500
3247221;-0.41500
3249999;-0.40500
3252777;-0.40500
3255555;-0.41500
3258332;-0.42500
3261110;-0.42500
3263888;-0.41000
3266666;-0.41000
3269444;-0.41500
3272221;-0.40000
3274999;-0.41500
3277777;-0.41000
3280555;-0.40500
3283332;-0.39500
3286110;-0.39000
3288888;-0.38500
3291666;-0.38500
3294444;-0.37500
3297221;-0.35000
3299999;-0.32000
3302777;-0.32000
3305555;-0.33000
3308332;-0.34000
3311110;-0.33000
3313888;-0.32000
3316666;-0.31000
3319444;-0.31000
3322221;-0.30000
3324999;-0.30500
3327777;-0.29500
3330555;-0.28500
3333332;-0.27500
3336110;-0.29000
3338888;-0.30500
3341666;-0.31500
3344444;-0.34000
3347221;-0.32000
3349999;-0.30000
3352777;-0.29500
3355555;-0.31500
3358332;-0.33500
3361110;-0.32500
3363888;-0.30000
3366666;-0.27000
3369444;-0.26500
3372221;-0.28500
3374999;-0.31500
3377777;-0.34000
3380555;-0.34500
3383332;-0.34500
3386110;-0.36500
3388888;-0.40000
3391666;-0.40000
3394443;-0.43000
3397221;-0.42500
3399999;-0.40500
3402777;-0.42000
3405555;-0.42000
3408332;-0.42000
3411110;-0.42500
3413888;-0.42000
3416666;-0.42000
3419443;-0.42000
3422221;-0.41500
3424999;-0.42500
3427777;-0.40500
3430555;-0.40500
3433332;-0.39500
3436110;-0.40000
3438888;-0.41500
3441666;-0.42500
3444443;-0.43000
3447221;-0.41500
3449999;-0.40000
3452777;-0.40500
3455555;-0.42000
3458332;-0.42000
3461110;-0.42000
3463888;-0.42000
3466666;-0.41500
3469443;-0.42000
3472221;-0.45500
3474999;-0.48500
3477777;-0.51500
3480555;-0.53500
3483332;-0.54500
3486110;-0.57500
3488888;-0.62000
3491666;-0.63500
3494443;-0.58500
3497221;-0.46000
3499999;-0.29000
3502777;-0.14000
3505555;0.04500
3508332;0.28500
3511110;0.59000
3513888;0.85000
3516666;1.01000
3519443;1.03500
3522221;0.87500
3524999;0.49000
3527777;0.01500
3530555;-0.34000
3533332;-0.50500
3536110;-0.52500
3538888;-0.50000
3541666;-0.45500
3544443;-0.42500
3547221;-0.41000
3549999;-0.41000
3552777;-0.43000
3555555;-0.44500
3558332;-0.46000
3561110;-0.45500
3563888;-0.44500
3566666;-0.44500
3569443;-0.45500
3572221;-0.46000
3574999;-0.47500
3577777;-0.47000
3580555;-0.46000
3583332;-0.45500
3586110;-0.44500
3588888;-0.45500
3591666;-0.46000
3594443;-0.46500
3597221;-0.45500
3599999;-0.44000
3602777;-0.44500
3605555;-0.45500
3608332;-0.46000
3611110;-0.46500
3613888;-0.46000
3616666;-0.44500
3619443;-0.45000
3622221;-0.45500
3624999;-0.46500
3627777;-0.46500
3630555;-0.45000
3633332;-0.44500
3636110;-0.44500
3638888;-0.45000
3641666;-0.46500
3644443;-0.45500
3647221;-0.44000
3649999;-0.42000
3652777;-0.42500
3655555;-0.43000
3658332;-0.44500
3661110;-0.45000
3663888;-0.44500
3666666;-0.44000
3669443;-0.43500
3672221;-0.45000
3674999;-0.46000
3677777;-0.46000
3680555;-0.45500
3683332;-0.45000
3686110;-0.44000
3688888;-0.44500
3691666;-0.45000
3694443;-0.45000
3697221;-0.44000
3699999;-0.43500
3702777;-0.43500
3705555;-0.45000
3708332;-0.45500
3711110;-0.46000
3713888;-0.46000
3716666;-0.43500
3719443;-0.43000
3722221;-0.43500
3724999;-0.45000
3727777;-0.44500
3730555;-0.44500
3733332;-0.44000
3736110;-0.44500
3738888;-0.44000
3741666;-0.45000
3744443;-0.45000
3747221;-0.43500
3749999;-0.43000
3752777;-0.42500
3755555;-0.43000
3758332;-0.45000
3761110;-0.44000
3763888;-0.44500
3766666;-0.44000
3769443;-0.44500
3772221;-0.44500
3774999;-0.44500
3777777;-0.45500
3780554;-0.44000
3783332;-0.43000
3786110;-0.44500
3788888;-0.47500
3791666;-0.47500
3794443;-0.46500
3797221;-0.46000
3799999;-0.44000
3802777;-0.43000
3805554;-0.43500
3808332;-0.43000
3811110;-0.42500
3813888;-0.40000
3816666;-0.39500
3819443;-0.41000
3822221;-0.40000
3824999;-0.40500
3827777;-0.39000
3830554;-0.38000
3833332;-0.36000
3836110;-0.36000
3838888;-0.36500
3841666;-0.36500
3844443;-0.37000
3847221;-0.35000
3849999;-0.34000
3852777;-0.34500
3855554;-0.35000
3858332;-0.36000
3861110;-0.35000
3863888;-0.34500
3866666;-0.34000
3869443;-0.33500
3872221;-0.32500
3874999;-0.34500
3877777;-0.35000
3880554;-0.33000
3883332;-0.33000
3886110;-0.32000
3888888;-0.34000
3891666;-0.34500
3894443;-0.35500
3897221;-0.34500
3899999;-0.33000
3902777;-0.33500
3905554;-0.35500
3908332;-0.36500
3911110;-0.35500
3913888;-0.36000
3916666;-0.34000
3919443;-0.35500
3922221;-0.36500
3924999;-0.37000
3927777;-0.37500
3930554;-0.37000
3933332;-0.36500
3936110;-0.36000
3938888;-0.37000
3941666;-0.38000
3944443;-0.38500
3947221;-0.36000
3949999;-0.35500
3952777;-0.34500
3955554;-0.36000
3958332;-0.36500
3961110;-0.35500
3963888;-0.35000
3966666;-0.35000
3969443;-0.36500
3972221;-0.37500
3974999;-0.39500
3977777;-0.39000
3980554;-0.38500
3983332;-0.38500
3986110;-0.37500
3988888;-0.39000
3991666;-0.39000
3994443;-0.40500
3997221;-0.39000
3999999;-0.39000
4002777;-0.39000
4005554;-0.39000
4008332;-0.40500
4011110;-0.40500
4013888;-0.40000
4016666;-0.37000
4019443;-0.36500
4022221;-0.38000
4024999;-0.38500
4027777;-0.39000
4030554;-0.38500
4033332;-0.38000
4036110;-0.38500
4038888;-0.39500
4041666;-0.41000
4044443;-0.40500
4047221;-0.41000
4049999;-0.39500
4052777;-0.40000
4055554;-0.39500
4058332;-0.40500
4061110;-0.40500
4063888;-0.39500
4066666;-0.39000
4069443;-0.39000
4072221;-0.39500
4074999;-0.40000
4077777;-0.40000
4080554;-0.39500
4083332;-0.38500
4086110;-0.37500
4088888;-0.38000
4091666;-0.39000
4094443;-0.38500
4097221;-0.37000
4099999;-0.35000
4102777;-0.35500
4105554;-0.34500
4108332;-0.34000
4111110;-0.33000
4113888;-0.32500
4116666;-0.31500
4119443;-0.32500
4122221;-0.31500
4124999;-0.32500
4127777;-0.31500
4130554;-0.29500
4133332;-0.28000
4136110;-0.27000
4138888;-0.28500
4141666;-0.29000
4144443;-0.28000
4147221;-0.28000
4149999;-0.27000
4152777;-0.27500
4155554;-0.28500
4158332;-0.31000
4161110;-0.31500
4163888;-0.30500
4166666;-0.30000
4169443;-0.29000
4172221;-0.30500
4174999;-0.32000
4177777;-0.31000
4180554;-0.27000
4183332;-0.24000
4186110;-0.26000
4188888;-0.29500
4191665;-0.32500
4194443;-0.34500
4197221;-0.35000
4199999;-0.35500
4202777;-0.37000
4205554;-0.39500
4208332;-0.41000
4211110;-0.42500
4213888;-0.41000
4216665;-0.39500
4219443;-0.39000
4222221;-0.39500
4224999;-0.41000
4227777;-0.40500
4230554;-0.39500
4233332;-0.39500
4236110;-0.38500
4238888;-0.39500
4241665;-0.41500
4244443;-0.42000
4247221;-0.41500
4249999;-0.41500
4252777;-0.40500
4255554;-0.41000
4258332;-0.41500
4261110;-0.40500
4263888;-0.41500
4266665;-0.38500
4269443;-0.38500
4272221;-0.39000
4274999;-0.41000
4277777;-0.41500
4280554;-0.42000
4283332;-0.42500
4286110;-0.47500
4288888;-0.52000
4291665;-0.55000
4294443;-0.57500
4297221;-0.60000
4299999;-0.62000
4302777;-0.59000
4305554;-0.50500
4308332;-0.38500
4311110;-0.22500
4313888;-0.02500
4316665;0.22500
4319443;0.53000
4322221;0.78000
4324999;0.93500
4327777;0.95500
4330554;0.79500
4333332;0.45000
4336110;0.01500
4338888;-0.32500
4341665;-0.51500
4344443;-0.55500
4347221;-0.52000
4349999;-0.47000
4352777;-0.44500
4355554;-0.45500
4358332;-0.47000
4361110;-0.46500
4363888;-0.45500
4366665;-0.44000
4369443;-0.44000
4372221;-0.45000
4374999;-0.46500
4377777;-0.46500
4380554;-0.46500
4383332;-0.45000
4386110;-0.44500
4388888;-0.45500
4391665;-0.45500
4394443;-0.46000
4397221;-0.47500
4399999;-0.44500
4402777;-0.45500
4405554;-0.46500
4408332;-0.46500
4411110;-0.47500
4413888;-0.45000
4416665;-0.43500
4419443;-0.44500
4422221;-0.45500
4424999;-0.47000
4427777;-0.46000
4430554;-0.45000
4433332;-0.44000
4436110;-0.45000
4438888;-0.47000
4441665;-0.46500
4444443;-0.46000
4447221;-0.46000
4449999;-0.45500
4452777;-0.45000
4455554;-0.46500
4458332;-0.47500
4461110;-0.47500
4463888;-0.46000
4466665;-0.45000
4469443;-0.45000
4472221;-0.44500
4474999;-0.45000
4477777;-0.44000
4480554;-0.45000
4483332;-0.44500
4486110;-0.45000
4488888;-0.46000
4491665;-0.46000
4494443;-0.45000
4497221;-0.44000
4499999;-0.43000
4502777;-0.44500
4505554;-0.45000
4508332;-0.46500
4511110;-0.46000
4513888;-0.45500
4516665;-0.44500
4519443;-0.46500
4522221;-0.46500
4524999;-0.46500
4527777;-0.47000
4530554;-0.46000
4533332;-0.45000
4536110;-0.43500
4538888;-0.44500
4541665;-0.45000
4544443;-0.47000
4547221;-0.46500
4549999;-0.45500
4552777;-0.46000
4555554;-0.47000
4558332;-0.48000
4561110;-0.48500
4563888;-0.48000
4566665;-0.48000
4569443;-0.48000
4572221;-0.48000
4574999;-0.48500
4577776;-0.49000
4580554;-0.49500
4583332;-0.49500
4586110;-0.50000
4588888;-0.49000
4591665;-0.49000
4594443;-0.48500
4597221;-0.48000
4599999;-0.47000
4602776;-0.46500
4605554;-0.48500
4608332;-0.49000
4611110;-0.48500
4613888;-0.48000
4616665;-0.47000
4619443;-0.46000
4622221;-0.45500
4624999;-0.45000
4627776;-0.43500
4630554;-0.42000
4633332;-0.39500
4636110;-0.39000
4638888;-0.38000
4641665;-0.38500
4644443;-0.38000
4647221;-0.36500
4649999;-0.33500
4652776;-0.34500
4655554;-0.34000
4658332;-0.34500
4661110;-0.34000
4663888;-0.34000
4666665;-0.32500
4669443;-0.32500
4672221;-0.35500
4674999;-0.35000
4677776;-0.34500
4680554;-0.34000
4683332;-0.33000
4686110;-0.34000
4688888;-0.33500
4691665;-0.33500
4694443;-0.34500
4697221;-0.34000
4699999;-0.33000
4702776;-0.34000
4705554;-0.34500
4708332;-0.35000
4711110;-0.33500
4713888;-0.33000
4716665;-0.32000
4719443;-0.32500
4722221;-0.34500
4724999;-0.35000
4727776;-0.35000
4730554;-0.35000
4733332;-0.35000
4736110;-0.35000
4738888;-0.36000
4741665;-0.38000
4744443;-0.37500
4747221;-0.36000
4749999;-0.35000
4752776;-0.36000
4755554;-0.36500
4758332;-0.37500
4761110;-0.38000
4763888;-0.37500
4766665;-0.37500
4769443;-0.37000
4772221;-0.37000
4774999;-0.38000
4777776;-0.38500
4780554;-0.36500
4783332;-0.36000
4786110;-0.36500
4788888;-0.37000
4791665;-0.38500
4794443;-0.37500
4797221;-0.39000
4799999;-0.37000
4802776;-0.38000
4805554;-0.37500
4808332;-0.39000
4811110;-0.39500
4813888;-0.37000
4816665;-0.36500
4819443;-0.38000
4822221;-0.38000
4824999;-0.39500
4827776;-0.38500
4830554;-0.37500
4833332;-0.38500
4836110;-0.37500
4838888;-0.36500
4841665;-0.38500
4844443;-0.39000
4847221;-0.37500
4849999;-0.36500
4852776;-0.37000
4855554;-0.37000
4858332;-0.37000
4861110;-0.37500
4863888;-0.37500
4866665;-0.35500
4869443;-0.36000
4872221;-0.36000
4874999;-0.37000
4877776;-0.36000
4880554;-0.35500
4883332;-0.35000
4886110;-0.35000
4888888;-0.35500
4891665;-0.35000
4894443;-0.34000
4897221;-0.31500
4899999;-0.29500
4902776;-0.29500
4905554;-0.31000
4908332;-0.32000
4911110;-0.31500
4913888;-0.29500
4916665;-0.28000
4919443;-0.28000
4922221;-0.28000
4924999;-0.27000
4927776;-0.27000
4930554;-0.25000
4933332;-0.22500
4936110;-0.23000
4938888;-0.24500
4941665;-0.25500
4944443;-0.26500
4947221;-0.27000
4949999;-0.25000
4952776;-0.26000
4955554;-0.26500
4958332;-0.29500
4961110;-0.29500
4963887;-0.27500
4966665;-0.24000
4969443;-0.23500
4972221;-0.27000
4974999;-0.30000
4977776;-0.31500
4980554;-0.33000
4983332;-0.33000
4986110;-0.35000
4988887;-0.36500
4991665;-0.38500
4994443;-0.38500
4997221;-0.38000
4999999;-0.36500
5002776;-0.37000
5005554;-0.36500
5008332;-0.37500
5011110;-0.37500
5013887;-0.37000
5016665;-0.36000
5019443;-0.35500
5022221;-0.36500
5024999;-0.38500
5027776;-0.38000
5030554;-0.37000
5033332;-0.36500
5036110;-0.37000
5038887;-0.38000
5041665;-0.38500
5044443;-0.40000
5047221;-0.38000
5049999;-0.38000
5052776;-0.38500
5055554;-0.40000
5058332;-0.45500
5061110;-0.49000
5063887;-0.51000
5066665;-0.52500
5069443;-0.57000
5072221;-0.58000
5074999;-0.52500
5077776;-0.37500
5080554;-0.20500
5083332;0.00000
5086110;0.26500
5088887;0.57500
5091665;0.85000
5094443;1.00500
5097221;1.04000
5099999;0.88500
5102776;0.50500
5105554;0.05500
5108332;-0.31000
5111110;-0.50000
5113887;-0.52500
5116665;-0.48500
5119443;-0.43500
5122221;-0.40500
5124999;-0.40500
5127776;-0.41000
5130554;-0.41000
5133332;-0.40500
5136110;-0.40000
5138887;-0.39500
5141665;-0.40500
5144443;-0.42000
5147221;-0.41000
5149999;-0.41000
5152776;-0.42000
5155554;-0.42500
5158332;-0.43500
5161110;-0.43500
5163887;-0.42500
5166665;-0.40500
5169443;-0.41000
5172221;-0.42000
5174999;-0.43000
5177776;-0.44000
5180554;-0.42000
5183332;-0.42000
5186110;-0.41500
5188887;-0.43000
5191665;-0.45000
5194443;-0.44000
5197221;-0.42500
5199999;-0.42000
5202776;-0.42000
5205554;-0.42500
5208332;-0.43000
5211110;-0.43000
5213887;-0.43000
5216665;-0.42000
5219443;-0.42500
5222221;-0.42000
5224999;-0.43500
5227776;-0.43000
5230554;-0.42000
5233332;-0.40500
5236110;-0.41500
5238887;-0.41500
5241665;-0.42500
5244443;-0.43000
5247221;-0.41500
5249999;-0.40500
5252776;-0.42500
5255554;-0.43500
5258332;-0.45000
5261110;-0.44000
5263887;-0.43500
5266665;-0.41500
5269443;-0.42000
5272221;-0.42000
5274999;-0.44000
5277776;-0.43000
5280554;-0.42000
5283332;-0.41000
5286110;-0.43000
5288887;-0.42000
5291665;-0.42000
5294443;-0.42000
5297221;-0.41500
5299999;-0.41500
5302776;-0.42500
5305554;-0.41500
5308332;-0.42500
5311110;-0.43000
5313887;-0.42500
5316665;-0.41500
5319443;-0.42000
5322221;-0.43000
5324999;-0.44500
5327776;-0.44500
5330554;-0.45000
5333332;-0.44500
5336110;-0.44000
5338887;-0.46000
5341665;-0.47000
5344443;-0.46000
5347221;-0.45000
5349999;-0.45000
5352776;-0.44000
5355554;-0.44000
5358332;-0.45000
5361110;-0.43500
5363887;-0.42500
5366665;-0.40000
5369443;-0.41000
5372221;-0.40000
5374998;-0.39000
5377776;-0.37500
5380554;-0.35000
5383332;-0.33500
5386110;-0.32500
5388887;-0.33500
5391665;-0.32500
5394443;-0.33500
5397221;-0.31500
5399998;-0.31000
5402776;-0.30500
5405554;-0.32000
5408332;-0.31500
5411110;-0.32000
5413887;-0.30500
5416665;-0.29500
5419443;-0.30000
5422221;-0.30500
5424998;-0.30500
5427776;-0.30000
5430554;-0.28000
5433332;-0.27500
5436110;-0.28000
5438887;-0.29500
5441665;-0.29500
5444443;-0.30000
5447221;-0.30500
5449998;-0.29500
5452776;-0.29500
5455554;-0.30500
5458332;-0.31000
5461110;-0.32500
5463887;-0.31000
5466665;-0.30500
5469443;-0.31000
5472221;-0.32000
5474998;-0.32000
5477776;-0.32500
5480554;-0.30500
5483332;-0.30500
5486110;-0.31000
5488887;-0.30000
5491665;-0.31500
5494443;-0.30500
5497221;-0.29500
5499998;-0.29500
5502776;-0.30500
5505554;-0.32000
5508332;-0.32500
5511110;-0.32500
5513887;-0.31500
5516665;-0.32500
5519443;-0.32000
5522221;-0.32500
5524998;-0.34000
5527776;-0.35000
5530554;-0.34500
5533332;-0.33500
5536110;-0.35000
5538887;-0.34500
5541665;-0.35000
5544443;-0.35500
5547221;-0.34000
5549998;-0.34000
5552776;-0.34500
5555554;-0.36500
5558332;-0.36000
5561110;-0.36500
5563887;-0.35500
5566665;-0.33000
5569443;-0.35000
5572221;-0.35000
5574998;-0.35500
5577776;-0.35000
5580554;-0.33000
5583332;-0.33500
5586110;-0.33000
5588887;-0.34000
5591665;-0.34500
5594443;-0.35000
5597221;-0.34500
5599998;-0.34000
5602776;-0.35000
5605554;-0.35000
5608332;-0.35500
5611110;-0.36000
5613887;-0.35000
5616665;-0.34000
5619443;-0.34500
5622221;-0.34000
5624998;-0.35000
5627776;-0.35500
5630554;-0.34000
5633332;-0.33000
5636110;-0.32500
5638887;-0.33500
5641665;-0.34000
5644443;-0.33500
5647221;-0.33000
5649998;-0.33500
5652776;-0.33000
5655554;-0.32500
5658332;-0.33500
5661110;-0.33500
5663887;-0.31500
5666665;-0.29500
5669443;-0.27000
5672221;-0.26500
5674998;-0.25500
5677776;-0.26500
5680554;-0.24500
5683332;-0.23500
5686110;-0.22500
5688887;-0.22500
5691665;-0.23000
5694443;-0.22500
5697221;-0.21500
5699998;-0.21000
5702776;-0.21500
5705554;-0.22000
5708332;-0.23000
5711110;-0.24500
5713887;-0.23000
5716665;-0.22000
5719443;-0.22000
5722221;-0.23500
5724998;-0.25000
5727776;-0.24500
5730554;-0.21500
5733332;-0.18000
5736110;-0.18500
5738887;-0.22500
5741665;-0.26000
5744443;-0.27500
5747221;-0.29000
5749998;-0.29500
5752776;-0.32000
5755554;-0.34000
5758332;-0.34500
5761109;-0.36000
5763887;-0.34000
5766665;-0.33000
5769443;-0.33000
5772221;-0.34000
5774998;-0.34000
5777776;-0.34500
5780554;-0.33500
5783332;-0.32500
5786109;-0.32000
5788887;-0.33500
5791665;-0.34500
5794443;-0.34500
5797221;-0.33500
5799998;-0.33000
5802776;-0.34000
5805554;-0.36000
5808332;-0.35500
5811109;-0.36000
5813887;-0.36000
5816665;-0.34500
5819443;-0.36000
5822221;-0.38000
5824998;-0.44000
5827776;-0.48000
5830554;-0.49500
5833332;-0.51500
5836109;-0.54500
5838887;-0.53500
5841665;-0.45500
5844443;-0.28000
5847221;-0.08000
5849998;0.14000
5852776;0.41000
5855554;0.73000
5858332;1.00000
5861109;1.19000
5863887;1.25500
5866665;1.14500
5869443;0.78500
5872221;0.28000
5874998;-0.17000
5877776;-0.43500
5880554;-0.50500
5883332;-0.49500
5886109;-0.46000
5888887;-0.43500
5891665;-0.41000
5894443;-0.39500
5897221;-0.37000
5899998;-0.38000
5902776;-0.37500
5905554;-0.38000
5908332;-0.39500
5911109;-0.39000
5913887;-0.37500
5916665;-0.37500
5919443;-0.37000
5922221;-0.38000
5924998;-0.38000
5927776;-0.39500
5930554;-0.39000
5933332;-0.37000
5936109;-0.38500
5938887;-0.39500
5941665;-0.39500
5944443;-0.39000
5947221;-0.39000
5949998;-0.38000
5952776;-0.37500
5955554;-0.38500
5958332;-0.40000
5961109;-0.39500
5963887;-0.38000
5966665;-0.37000
5969443;-0.37000
5972221;-0.38000
5974998;-0.38000
5977776;-0.37500
5980554;-0.37000
5983332;-0.35500
5986109;-0.35000
5988887;-0.35500
5991665;-0.37000
5994443;-0.38000
5997221;-0.37000
5999998;-0.36000
6002776;-0.37000
6005554;-0.36500
6008332;-0.37000
6011109;-0.39000
6013887;-0.37500
6016665;-0.36000
6019443;-0.36500
6022221;-0.36500
6024998;-0.38500
6027776;-0.38500
6030554;-0.36500
6033332;-0.36000
6036109;-0.36500
6038887;-0.36000
6041665;-0.37000
6044443;-0.37500
6047221;-0.36500
6049998;-0.34500
6052776;-0.35000
6055554;-0.35000
6058332;-0.36000
6061109;-0.35000
6063887;-0.34500
6066665;-0.34500
6069443;-0.34500
6072221;-0.34500
6074998;-0.35000
6077776;-0.36500
6080554;-0.36000
6083332;-0.35000
6086109;-0.35500
6088887;-0.36000
6091665;-0.37000
6094443;-0.36500
6097221;-0.35500
6099998;-0.34500
6102776;-0.34000
6105554;-0.34500
6108332;-0.35500
6111109;-0.35000
6113887;-0.34000
6116665;-0.33500
6119443;-0.34000
6122221;-0.34000
6124998;-0.34500
6127776;-0.34000
6130554;-0.34000
6133332;-0.32500
6136109;-0.32000
6138887;-0.31500
6141665;-0.31500
6144443;-0.30500
6147221;-0.29500
6149998;-0.27500
6152776;-0.28500
6155554;-0.28000
6158332;-0.28000
6161109;-0.27500
6163887;-0.26000
6166665;-0.25000
6169443;-0.24500
6172220;-0.25500
6174998;-0.26000
6177776;-0.25000
6180554;-0.23500
6183332;-0.24000
6186109;-0.23500
6188887;-0.24000
6191665;-0.25000
6194443;-0.24000
6197220;-0.24000
6199998;-0.22500
6202776;-0.22500
6205554;-0.22500
6208332;-0.23500
6211109;-0.23500
6213887;-0.23000
6216665;-0.22500
6219443;-0.22500
6222220;-0.23500
6224998;-0.24000
6227776;-0.25500
6230554;-0.24500
6233332;-0.25000
6236109;-0.25000
6238887;-0.25500
6241665;-0.26500
6244443;-0.26500
6247220;-0.26000
6249998;-0.25500
6252776;-0.25000
6255554;-0.26500
6258332;-0.27500
6261109;-0.27000
6263887;-0.25500
6266665;-0.26000
6269443;-0.25000
6272220;-0.27000
6274998;-0.27000
6277776;-0.28500
6280554;-0.26500
6283332;-0.26000
6286109;-0.26000
6288887;-0.27500
6291665;-0.28500
6294443;-0.28500
6297220;-0.28500
6299998;-0.28000
6302776;-0.28500
6305554;-0.29000
6308332;-0.29000
6311109;-0.30500
6313887;-0.31500
6316665;-0.29000
6319443;-0.30000
6322220;-0.30500
6324998;-0.30500
6327776;-0.30500
6330554;-0.30000
6333332;-0.29000
6336109;-0.29000
6338887;-0.30500
6341665;-0.30000
6344443;-0.31000
6347220;-0.29500
6349998;-0.28500
6352776;-0.29000
6355554;-0.30000
6358332;-0.30500
6361109;-0.30500
6363887;-0.29000
6366665;-0.27500
6369443;-0.27000
6372220;-0.28000
6374998;-0.28000
6377776;-0.28000
6380554;-0.27500
6383332;-0.26500
6386109;-0.26500
6388887;-0.27000
6391665;-0.29500
6394443;-0.29500
6397220;-0.28500
6399998;-0.28000
6402776;-0.28500
6405554;-0.28000
6408332;-0.28000
6411109;-0.29000
6413887;-0.27500
6416665;-0.26500
6419443;-0.27000
6422220;-0.28000
6424998;-0.27500
6427776;-0.26500
6430554;-0.24500
6433332;-0.21500
6436109;-0.21000
6438887;-0.19500
6441665;-0.20000
6444443;-0.20500
6447220;-0.18000
6449998;-0.18000
6452776;-0.16500
6455554;-0.16500
6458332;-0.16500
6461109;-0.16000
6463887;-0.14500
6466665;-0.15000
6469443;-0.16000
6472220;-0.16000
6474998;-0.18000
6477776;-0.18500
6480554;-0.19000
6483332;-0.18000
6486109;-0.17000
6488887;-0.19000
6491665;-0.19500
6494443;-0.20000
6497220;-0.16500
6499998;-0.13500
6502776;-0.14500
6505554;-0.18000
6508332;-0.21500
6511109;-0.24500
6513887;-0.24000
6516665;-0.24000
6519443;-0.25500
6522220;-0.27000
6524998;-0.27500
6527776;-0.29500
6530554;-0.29000
6533332;-0.28500
6536109;-0.29000
6538887;-0.29500
6541665;-0.31000
6544443;-0.31500
6547220;-0.30500
6549998;-0.28500
6552776;-0.29000
6555554;-0.29500
6558331;-0.30500
6561109;-0.30500
6563887;-0.29500
6566665;-0.28500
6569443;-0.28000
6572220;-0.29000
6574998;-0.31000
6577776;-0.30000
6580554;-0.29500
6583331;-0.28500
6586109;-0.28500
6588887;-0.29000
6591665;-0.29500
6594443;-0.32000
6597220;-0.32000
6599998;-0.33500
6602776;-0.39000
6605554;-0.43500
6608331;-0.46500
6611109;-0.50500
6613887;-0.52000
6616665;-0.50500
6619443;-0.41500
6622220;-0.27500
6624998;-0.11500
6627776;0.08000
6630554;0.33500
6633331;0.65000
6636109;0.94500
6638887;1.12500
6641665;1.15000
6644443;0.95500
6647220;0.58000
6649998;0.14000
6652776;-0.21000
6655554;-0.39500
6658331;-0.41000
6661109;-0.36500
6663887;-0.31000
6666665;-0.29500
6669443;-0.31500
6672220;-0.32500
6674998;-0.33500
6677776;-0.33000
6680554;-0.32500
6683331;-0.32500
6686109;-0.33000
6688887;-0.34000
6691665;-0.34500
6694443;-0.35000
6697220;-0.34000
6699998;-0.33000
6702776;-0.32500
6705554;-0.34000
6708331;-0.35000
6711109;-0.35000
6713887;-0.33000
6716665;-0.32500
6719443;-0.33000
6722220;-0.33500
6724998;-0.34500
6727776;-0.34000
6730554;-0.33000
6733331;-0.31000
6736109;-0.31500
6738887;-0.32000
6741665;-0.33500
6744443;-0.34000
6747220;-0.33500
6749998;-0.31500
6752776;-0.32000
6755554;-0.33000
6758331;-0.34500
6761109;-0.35500
6763887;-0.34500
6766665;-0.33000
6769443;-0.34000
6772220;-0.34500
6774998;-0.35000
6777776;-0.34500
6780554;-0.32500
6783331;-0.31500
6786109;-0.32000
6788887;-0.33000
6791665;-0.34000
6794443;-0.34500
6797220;-0.32000
6799998;-0.31500
6802776;-0.30500
6805554;-0.31500
6808331;-0.32000
6811109;-0.32500
6813887;-0.32500
6816665;-0.31000
6819443;-0.30000
6822220;-0.31000
6824998;-0.32000
6827776;-0.32500
6830554;-0.33000
6833331;-0.31500
6836109;-0.31000
6838887;-0.31000
6841665;-0.32500
6844443;-0.32500
6847220;-0.32000
6849998;-0.30000
6852776;-0.31000
6855554;-0.32000
6858331;-0.32000
6861109;-0.33000
6863887;-0.33000
6866665;-0.31500
6869443;-0.31500
6872220;-0.32500
6874998;-0.33500
6877776;-0.32500
6880554;-0.32500
6883331;-0.31000
6886109;-0.31500
6888887;-0.31000
6891665;-0.31500
6894443;-0.33000
6897220;-0.32000
6899998;-0.30500
6902776;-0.30500
6905554;-0.31000
6908331;-0.32000
6911109;-0.31500
6913887;-0.31000
6916665;-0.29500
6919443;-0.29500
6922220;-0.29500
6924998;-0.30500
6927776;-0.29500
6930554;-0.27000
6933331;-0.25000
6936109;-0.25500
6938887;-0.25000
6941665;-0.26000
6944442;-0.25000
6947220;-0.23500
6949998;-0.22500
6952776;-0.21000
6955554;-0.21000
6958331;-0.22500
6961109;-0.22000
6963887;-0.20500
6966665;-0.20000
6969442;-0.20000
6972220;-0.21000
6974998;-0.22500
6977776;-0.22000
6980554;-0.22000
6983331;-0.21500
6986109;-0.22500
6988887;-0.23000
6991665;-0.22500
6994442;-0.22500
6997220;-0.22000
6999998;-0.21500
7002776;-0.21500
7005554;-0.22500
7008331;-0.23500
7011109;-0.23500
7013887;-0.22000
7016665;-0.21500
7019442;-0.22500
7022220;-0.22000
7024998;-0.23500
7027776;-0.23500
7030554;-0.23000
7033331;-0.22500
7036109;-0.22000
7038887;-0.23000
7041665;-0.24500
7044442;-0.26000
7047220;-0.24500
7049998;-0.23500
7052776;-0.22500
7055554;-0.24500
7058331;-0.25500
7061109;-0.26500
7063887;-0.25000
7066665;-0.24500
7069442;-0.25500
7072220;-0.26000
7074998;-0.26000
7077776;-0.26000
7080554;-0.26000
7083331;-0.25500
7086109;-0.25500
7088887;-0.25500
7091665;-0.27000
7094442;-0.28500
7097220;-0.27000
7099998;-0.25000
7102776;-0.25000
7105554;-0.26000
7108331;-0.27000
7111109;-0.27500
7113887;-0.25500
7116665;-0.25000
7119442;-0.25500
7122220;-0.27500
7124998;-0.28000
7127776;-0.30000
7130554;-0.28500
7133331;-0.28500
7136109;-0.28000
7138887;-0.28000
7141665;-0.30000
7144442;-0.29500
7147220;-0.29500
7149998;-0.27000
7152776;-0.27500
7155554;-0.27500
7158331;-0.28500
7161109;-0.29500
7163887;-0.28500
7166665;-0.28000
7169442;-0.27500
7172220;-0.29000
7174998;-0.29500
7177776;-0.29000
7180554;-0.29000
7183331;-0.28500
7186109;-0.29500
7188887;-0.29500
7191665;-0.28500
7194442;-0.27500
7197220;-0.27500
7199998;-0.26500
7202776;-0.26500
7205554;-0.27000
7208331;-0.29500
7211109;-0.30000
7213887;-0.28000
7216665;-0.27000
7219442;-0.26000
7222220;-0.25000
7224998;-0.24500
7227776;-0.23500
7230554;-0.22000
7233331;-0.20000
7236109;-0.19500
7238887;-0.18500
7241665;-0.18000
7244442;-0.16500
7247220;-0.16000
7249998;-0.16500
7252776;-0.16000
7255554;-0.16500
7258331;-0.16500
7261109;-0.16000
7263887;-0.17500
7266665;-0.16500
7269442;-0.16500
7272220;-0.18500
7274998;-0.21500
7277776;-0.21000
7280554;-0.19500
7283331;-0.17000
7286109;-0.17000
7288887;-0.18500
7291665;-0.18000
7294442;-0.16500
7297220;-0.14500
7299998;-0.13500
7302776;-0.14500
7305554;-0.19500
7308331;-0.21500
7311109;-0.23500
7313887;-0.23000
7316665;-0.23500
7319442;-0.26000
7322220;-0.28000
7324998;-0.28000
7327776;-0.29000
7330554;-0.29000
7333331;-0.29000
7336109;-0.28500
7338887;-0.29000
7341665;-0.30000
7344442;-0.30500
7347220;-0.29500
7349998;-0.29500
7352776;-0.30000
7355553;-0.31500
7358331;-0.31000
7361109;-0.32500
7363887;-0.30500
7366665;-0.29000
7369442;-0.29500
7372220;-0.31500
7374998;-0.31500
7377776;-0.30500
7380553;-0.30000
7383331;-0.29500
7386109;-0.28500
7388887;-0.30000
7391665;-0.30500
7394442;-0.32000
7397220;-0.33500
7399998;-0.38500
7402776;-0.41000
7405553;-0.44500
7408331;-0.47500
7411109;-0.51500
7413887;-0.53500
7416665;-0.51000
7419442;-0.41500
7422220;-0.30000
7424998;-0.16000
7427776;0.00500
7430553;0.25500
7433331;0.54500
7436109;0.81500
7438887;1.01000
7441665;1.10500
7444442;1.07000
7447220;0.87500
7449998;0.52000
7452776;0.10500
7455553;-0.20000
7458331;-0.37000
7461109;-0.43500
7463887;-0.41500
7466665;-0.36500
7469442;-0.34500
7472220;-0.34000
7474998;-0.35500
7477776;-0.34500
7480553;-0.32500
7483331;-0.30000
7486109;-0.30500
7488887;-0.30500
7491665;-0.32000
7494442;-0.33500
7497220;-0.33500
7499998;-0.33500
7502776;-0.33000
7505553;-0.35000
7508331;-0.35500
7511109;-0.35500
7513887;-0.35500
7516665;-0.34000
7519442;-0.35000
7522220;-0.34000
7524998;-0.35000
7527776;-0.35500
7530553;-0.34500
7533331;-0.33500
7536109;-0.34000
7538887;-0.35000
7541665;-0.34500
7544442;-0.35000
7547220;-0.34500
7549998;-0.33500
7552776;-0.34000
7555553;-0.33500
7558331;-0.36000
7561109;-0.36000
7563887;-0.34000
7566665;-0.34500
7569442;-0.35000
7572220;-0.36500
7574998;-0.36500
7577776;-0.35000
7580553;-0.33500
7583331;-0.34000
7586109;-0.34500
7588887;-0.34500
7591665;-0.35000
7594442;-0.35000
7597220;-0.35000
7599998;-0.35000
7602776;-0.35000
7605553;-0.34500
7608331;-0.34500
7611109;-0.36000
7613887;-0.34000
7616665;-0.34000
7619442;-0.33000
7622220;-0.34500
7624998;-0.36000
7627776;-0.35500
7630553;-0.35000
7633331;-0.33500
7636109;-0.34500
7638887;-0.35500
7641665;-0.36000
7644442;-0.36500
7647220;-0.36000
7649998;-0.34500
7652776;-0.35000
7655553;-0.35000
7658331;-0.36000
7661109;-0.34000
7663887;-0.33500
7666665;-0.34500
7669442;-0.34000
7672220;-0.35500
7674998;-0.35500
7677776;-0.36000
7680553;-0.36000
7683331;-0.36000
7686109;-0.37000
7688887;-0.37500
7691665;-0.39500
7694442;-0.41500
7697220;-0.39500
7699998;-0.39500
7702776;-0.39000
7705553;-0.40000
7708331;-0.41000
7711109;-0.43000
7713887;-0.40500
7716665;-0.39500
7719442;-0.39000
7722220;-0.38500
7724998;-0.38000
7727776;-0.39000
7730553;-0.36500
7733331;-0.33500
7736109;-0.32000
7738887;-0.31500
7741664;-0.31500
7744442;-0.32000
7747220;-0.30000
7749998;-0.27000
7752776;-0.25500
7755553;-0.25000
7758331;-0.25000
7761109;-0.25000
7763887;-0.25000
7766664;-0.24500
7769442;-0.25500
7772220;-0.25500
7774998;-0.25000
7777776;-0.25500
7780553;-0.23500
7783331;-0.22500
7786109;-0.22000
7788887;-0.22000
7791664;-0.23500
7794442;-0.24500
7797220;-0.24500
7799998;-0.23500
7802776;-0.24000
7805553;-0.24500
7808331;-0.25500
7811109;-0.26000
7813887;-0.25000
7816664;-0.25000
7819442;-0.24500
7822220;-0.25500
7824998;-0.26000
7827776;-0.26000
7830553;-0.24500
7833331;-0.24500
7836109;-0.24500
7838887;-0.24500
7841664;-0.24000
7844442;-0.26000
7847220;-0.26000
7849998;-0.24000
7852776;-0.24000
7855553;-0.26500
7858331;-0.27500
7861109;-0.27500
7863887;-0.27500
7866664;-0.26500
7869442;-0.27000
7872220;-0.27000
7874998;-0.29000
7877776;-0.29500
7880553;-0.29000
7883331;-0.27500
7886109;-0.27500
7888887;-0.29000
7891664;-0.30000
7894442;-0.30500
7897220;-0.30500
7899998;-0.30000
7902776;-0.28000
7905553;-0.27500
7908331;-0.29000
7911109;-0.29000
7913887;-0.29500
7916664;-0.29000
7919442;-0.29500
7922220;-0.30000
7924998;-0.30500
7927776;-0.31500
7930553;-0.30000
7933331;-0.29000
7936109;-0.28500
7938887;-0.28500
7941664;-0.28500
7944442;-0.29000
7947220;-0.28500
7949998;-0.28000
7952776;-0.28000
7955553;-0.29000
7958331;-0.30500
7961109;-0.31500
7963887;-0.29500
7966664;-0.29000
7969442;-0.28500
7972220;-0.29000
7974998;-0.29500
7977776;-0.29000
7980553;-0.28000
7983331;-0.27000
7986109;-0.27000
7988887;-0.27500
7991664;-0.29000
7994442;-0.29000
7997220;-0.27500
7999998;-0.26500
8002776;-0.26000
8005553;-0.28500
8008331;-0.29500
8011109;-0.29500
8013887;-0.28500
8016664;-0.28000
8019442;-0.27000
8022220;-0.27500
8024998;-0.27000
8027776;-0.26000
8030553;-0.24000
8033331;-0.22000
8036109;-0.22000
8038887;-0.22500
8041664;-0.22000
8044442;-0.21000
8047220;-0.20000
8049998;-0.17500
8052776;-0.16000
8055553;-0.17000
8058331;-0.16500
8061109;-0.16000
8063887;-0.16000
8066664;-0.15000
8069442;-0.15500
8072220;-0.17500
8074998;-0.18000
8077776;-0.19500
8080553;-0.19000
8083331;-0.18500
8086109;-0.18000
8088887;-0.18000
8091664;-0.19000
8094442;-0.20000
8097220;-0.20500
8099998;-0.20000
8102776;-0.19000
8105553;-0.18000
8108331;-0.17500
