time_ms;ecg_value
0;0.90000
2778;0.96500
5556;0.83000
8333;0.52000
11111;0.09500
13889;-0.23500
16667;-0.40000
19444;-0.42000
22222;-0.36500
25000;-0.33500
27778;-0.32000
30556;-0.30500
33333;-0.31500
36111;-0.32000
38889;-0.31000
41667;-0.33000
44444;-0.33000
47222;-0.32000
50000;-0.34000
52778;-0.35000
55556;-0.34500
58333;-0.34000
61111;-0.34500
63889;-0.33500
66667;-0.33500
69444;-0.34000
72222;-0.35000
75000;-0.35000
77778;-0.34500
80556;-0.33000
83333;-0.32500
86111;-0.33500
88889;-0.35000
91667;-0.34000
94444;-0.34500
97222;-0.32500
100000;-0.33000
102778;-0.33500
105556;-0.34000
108333;-0.35000
111111;-0.33000
113889;-0.32000
116667;-0.32000
119444;-0.33000
122222;-0.33000
125000;-0.34000
127778;-0.34000
130556;-0.31500
133333;-0.33000
136111;-0.33000
138889;-0.33000
141667;-0.33000
144444;-0.32000
147222;-0.31000
150000;-0.31500
152778;-0.31500
155556;-0.33000
158333;-0.32500
161111;-0.31500
163889;-0.31000
166667;-0.32500
169444;-0.33000
172222;-0.33500
175000;-0.34500
177778;-0.33000
180556;-0.31500
183333;-0.32500
186111;-0.32000
188889;-0.33000
191667;-0.33500
194444;-0.32500
197222;-0.30500
200000;-0.33500
202778;-0.32000
205555;-0.34500
208333;-0.33000
211111;-0.32000
213889;-0.32000
216667;-0.33000
219444;-0.33000
222222;-0.34000
225000;-0.34000
227778;-0.33000
230555;-0.32000
233333;-0.33000
236111;-0.33500
238889;-0.33500
241667;-0.33500
244444;-0.32500
247222;-0.32000
250000;-0.34500
252778;-0.33500
255555;-0.33500
258333;-0.34500
261111;-0.33000
263889;-0.32000
266667;-0.32500
269444;-0.33000
272222;-0.33000
275000;-0.34000
277778;-0.32000
280555;-0.30500
283333;-0.30500
286111;-0.29500
288889;-0.30000
291667;-0.30500
294444;-0.28500
297222;-0.26500
300000;-0.27000
302778;-0.26500
305555;-0.27500
308333;-0.27500
311111;-0.26000
313889;-0.22500
316667;-0.23000
319444;-0.23500
322222;-0.24000
325000;-0.23500
327778;-0.23000
330555;-0.21500
333333;-0.21000
336111;-0.23000
338889;-0.23000
341667;-0.24000
344444;-0.22500
347222;-0.23000
350000;-0.22000
352778;-0.23000
355555;-0.24000
358333;-0.23500
361111;-0.23500
363889;-0.24000
366667;-0.23500
369444;-0.24000
372222;-0.24000
375000;-0.24500
377778;-0.24000
380555;-0.23000
383333;-0.24000
386111;-0.24500
388889;-0.25000
391667;-0.25500
394444;-0.24000
397222;-0.23000
400000;-0.24500
402778;-0.24500
405555;-0.25000
408333;-0.25000
411111;-0.26000
413889;-0.24000
416667;-0.25000
419444;-0.26000
422222;-0.27000
425000;-0.27000
427778;-0.26500
430555;-0.26000
433333;-0.26000
436111;-0.26500
438889;-0.27000
441667;-0.27500
444444;-0.27000
447222;-0.27500
450000;-0.28000
452778;-0.28500
455555;-0.28000
458333;-0.30000
461111;-0.28500
463889;-0.27500
466667;-0.29500
469444;-0.29500
472222;-0.29500
475000;-0.29000
477778;-0.29000
480555;-0.26500
483333;-0.28500
486111;-0.29000
488889;-0.30500
491667;-0.30500
494444;-0.29000
497222;-0.28000
500000;-0.29000
502778;-0.29500
505555;-0.30500
508333;-0.31500
511111;-0.29500
513889;-0.29500
516667;-0.28500
519444;-0.29500
522222;-0.31000
525000;-0.30000
527778;-0.29000
530555;-0.28000
533333;-0.28500
536111;-0.30000
538889;-0.30500
541667;-0.29500
544444;-0.30500
547222;-0.28500
550000;-0.28500
552778;-0.29000
555555;-0.29000
558333;-0.30000
561111;-0.29000
563889;-0.28000
566667;-0.28000
569444;-0.27500
572222;-0.28500
575000;-0.28500
577778;-0.28000
580555;-0.27000
583333;-0.28000
586111;-0.28000
588889;-0.28000
591667;-0.27000
594444;-0.25500
597222;-0.23000
600000;-0.23000
602778;-0.23000
605555;-0.24000
608333;-0.25000
611111;-0.24000
613889;-0.21500
616666;-0.21500
619444;-0.20500
622222;-0.20500
625000;-0.19500
627778;-0.18500
630555;-0.17500
633333;-0.18000
636111;-0.20000
638889;-0.21000
641666;-0.21000
644444;-0.20000
647222;-0.18500
650000;-0.20000
652778;-0.18500
655555;-0.21000
658333;-0.23000
661111;-0.21500
663889;-0.18500
666666;-0.17000
669444;-0.18000
672222;-0.22000
675000;-0.25000
677778;-0.25000
680555;-0.26500
683333;-0.27500
686111;-0.29500
688889;-0.30500
691666;-0.31500
694444;-0.31500
697222;-0.30500
700000;-0.30500
702778;-0.31000
705555;-0.32500
708333;-0.33500
711111;-0.32000
713889;-0.31500
716666;-0.32000
719444;-0.32000
722222;-0.34000
725000;-0.32500
727778;-0.32500
730555;-0.31000
733333;-0.32000
736111;-0.32000
738889;-0.32500
741666;-0.33500
744444;-0.33500
747222;-0.32500
750000;-0.34500
752778;-0.37000
755555;-0.41000
758333;-0.43000
761111;-0.44500
763889;-0.43000
766666;-0.46500
769444;-0.51000
772222;-0.56000
775000;-0.55500
777778;-0.49000
780555;-0.38500
783333;-0.29000
786111;-0.20500
788889;-0.09500
791666;0.09500
794444;0.35500
797222;0.60000
800000;0.75500
802778;0.81000
805555;0.70500
808333;0.41500
811111;0.05500
813889;-0.25000
816666;-0.43000
819444;-0.46500
822222;-0.43500
825000;-0.39500
827778;-0.37000
830555;-0.35000
833333;-0.35500
836111;-0.36500
838889;-0.35500
841666;-0.37000
844444;-0.36000
847222;-0.35000
850000;-0.35000
852778;-0.36000
855555;-0.37000
858333;-0.37000
861111;-0.36500
863889;-0.34000
866666;-0.35000
869444;-0.35500
872222;-0.36500
875000;-0.37000
877778;-0.36000
880555;-0.35000
883333;-0.34500
886111;-0.34500
888889;-0.35500
891666;-0.37500
894444;-0.35500
897222;-0.34500
900000;-0.35500
902778;-0.36000
905555;-0.36500
908333;-0.36000
911111;-0.35500
913889;-0.34000
916666;-0.34500
919444;-0.35500
922222;-0.36500
925000;-0.37000
927778;-0.36000
930555;-0.35000
933333;-0.35000
936111;-0.36000
938889;-0.36000
941666;-0.35500
944444;-0.35500
947222;-0.34500
950000;-0.34500
952778;-0.35000
955555;-0.36000
958333;-0.35500
961111;-0.34500
963889;-0.33500
966666;-0.34500
969444;-0.34500
972222;-0.35500
975000;-0.36500
977778;-0.36000
980555;-0.35000
983333;-0.35000
986111;-0.35500
988889;-0.36500
991666;-0.37500
994444;-0.35500
997222;-0.35500
1000000;-0.35500
1002777;-0.36000
1005555;-0.35500
1008333;-0.35500
1011111;-0.35000
1013889;-0.35000
1016666;-0.35500
1019444;-0.36500
1022222;-0.37500
1025000;-0.37500
1027777;-0.35500
1030555;-0.34000
1033333;-0.34500
1036111;-0.35500
1038889;-0.36500
1041666;-0.36500
1044444;-0.36000
1047222;-0.35500
1050000;-0.36500
1052777;-0.37000
1055555;-0.37500
1058333;-0.37500
1061111;-0.37500
1063889;-0.35500
1066666;-0.35000
1069444;-0.36500
1072222;-0.37000
1075000;-0.37500
1077777;-0.36000
1080555;-0.35000
1083333;-0.35500
1086111;-0.35500
1088889;-0.36500
1091666;-0.35500
1094444;-0.34500
1097222;-0.33000
1100000;-0.31000
1102777;-0.32000
1105555;-0.32000
1108333;-0.32000
1111111;-0.30000
1113889;-0.29000
1116666;-0.29000
1119444;-0.29500
1122222;-0.30500
1125000;-0.30000
1127777;-0.28500
1130555;-0.27500
1133333;-0.27500
1136111;-0.27500
1138889;-0.28500
1141666;-0.29000
1144444;-0.27500
1147222;-0.26000
1150000;-0.28000
1152777;-0.28500
1155555;-0.29500
1158333;-0.30500
1161111;-0.29000
1163889;-0.28500
1166666;-0.29500
1169444;-0.30500
1172222;-0.32000
1175000;-0.30500
1177777;-0.29500
1180555;-0.28500
1183333;-0.28500
1186111;-0.29000
1188889;-0.29500
1191666;-0.30500
1194444;-0.29500
1197222;-0.29500
1200000;-0.29500
1202777;-0.30000
1205555;-0.31000
1208333;-0.32000
1211111;-0.30000
1213889;-0.29000
1216666;-0.30500
1219444;-0.32000
1222222;-0.33000
1225000;-0.33000
1227777;-0.32500
1230555;-0.31500
1233333;-0.32000
1236111;-0.34500
1238889;-0.33500
1241666;-0.34500
1244444;-0.34000
1247222;-0.33000
1250000;-0.32000
1252777;-0.33500
1255555;-0.34000
1258333;-0.35000
1261111;-0.34000
1263889;-0.34000
1266666;-0.33500
1269444;-0.34500
1272222;-0.35000
1275000;-0.34500
1277777;-0.33000
1280555;-0.32500
1283333;-0.33500
1286111;-0.35000
1288889;-0.35000
1291666;-0.35000
1294444;-0.34000
1297222;-0.33500
1300000;-0.33500
1302777;-0.34000
1305555;-0.34500
1308333;-0.35500
1311111;-0.35000
1313889;-0.33000
1316666;-0.34500
1319444;-0.35000
1322222;-0.35500
1325000;-0.37000
1327777;-0.37500
1330555;-0.37000
1333333;-0.36500
1336111;-0.36000
1338889;-0.37000
1341666;-0.37500
1344444;-0.36000
1347222;-0.35000
1350000;-0.34500
1352777;-0.35500
1355555;-0.37000
1358333;-0.38500
1361111;-0.37500
1363889;-0.35000
1366666;-0.36000
1369444;-0.35000
1372222;-0.36000
1375000;-0.37000
1377777;-0.36500
1380555;-0.35000
1383333;-0.35000
1386111;-0.35000
1388888;-0.35000
1391666;-0.34000
1394444;-0.33500
1397222;-0.30500
1400000;-0.32000
1402777;-0.29500
1405555;-0.31000
1408333;-0.31500
1411111;-0.30500
1413888;-0.28500
1416666;-0.29000
1419444;-0.29000
1422222;-0.29000
1425000;-0.29000
1427777;-0.26500
1430555;-0.25500
1433333;-0.26500
1436111;-0.26500
1438888;-0.27500
1441666;-0.28500
1444444;-0.27000
1447222;-0.26500
1450000;-0.27500
1452777;-0.27500
1455555;-0.28000
1458333;-0.27500
1461111;-0.25500
1463888;-0.25500
1466666;-0.26500
1469444;-0.28500
1472222;-0.27500
1475000;-0.26500
1477777;-0.25000
1480555;-0.25000
1483333;-0.29500
1486111;-0.31500
1488888;-0.32500
1491666;-0.34500
1494444;-0.36000
1497222;-0.37000
1500000;-0.37000
1502777;-0.39500
1505555;-0.40500
1508333;-0.40000
1511111;-0.39500
1513888;-0.38000
1516666;-0.38000
1519444;-0.39000
1522222;-0.39000
1525000;-0.39000
1527777;-0.38500
1530555;-0.38000
1533333;-0.38500
1536111;-0.40000
1538888;-0.40000
1541666;-0.39500
1544444;-0.39000
1547222;-0.38000
1550000;-0.37500
1552777;-0.38500
1555555;-0.41000
1558333;-0.40500
1561111;-0.40500
1563888;-0.39000
1566666;-0.40000
1569444;-0.41000
1572222;-0.43500
1575000;-0.47500
1577777;-0.48500
1580555;-0.50000
1583333;-0.51500
1586111;-0.55500
1588888;-0.59500
1591666;-0.58500
1594444;-0.49500
1597222;-0.38500
1600000;-0.27500
1602777;-0.13000
1605555;0.06500
1608333;0.28500
1611111;0.50000
1613888;0.66500
1616666;0.77000
1619444;0.82500
1622222;0.81500
1625000;0.67500
1627777;0.43000
1630555;0.15500
1633333;-0.13000
1636111;-0.34000
1638888;-0.47000
1641666;-0.56500
1644444;-0.56500
1647222;-0.51500
1650000;-0.47000
1652777;-0.45500
1655555;-0.45000
1658333;-0.45000
1661111;-0.44500
1663888;-0.42500
1666666;-0.44500
1669444;-0.44000
1672222;-0.44500
1675000;-0.44000
1677777;-0.43000
1680555;-0.43000
1683333;-0.44000
1686111;-0.44500
1688888;-0.45000
1691666;-0.45500
1694444;-0.44500
1697222;-0.43500
1700000;-0.44000
1702777;-0.45000
1705555;-0.46000
1708333;-0.45000
1711111;-0.44500
1713888;-0.43500
1716666;-0.44000
1719444;-0.44000
1722222;-0.46000
1725000;-0.45500
1727777;-0.45500
1730555;-0.44500
1733333;-0.44000
1736111;-0.45500
1738888;-0.45500
1741666;-0.45000
1744444;-0.44000
1747222;-0.43000
1750000;-0.44500
1752777;-0.44000
1755555;-0.45500
1758333;-0.46000
1761111;-0.44000
1763888;-0.43000
1766666;-0.44000
1769444;-0.45000
1772222;-0.45500
1775000;-0.46000
1777777;-0.44500
1780555;-0.42000
1783333;-0.43500
1786111;-0.44000
1788888;-0.45500
1791666;-0.46000
1794444;-0.45000
1797222;-0.44500
1799999;-0.44500
1802777;-0.44000
1805555;-0.44500
1808333;-0.44000
1811111;-0.42500
1813888;-0.43000
1816666;-0.42500
1819444;-0.43500
1822222;-0.45500
1824999;-0.45500
1827777;-0.44500
1830555;-0.43500
1833333;-0.44500
1836111;-0.44000
1838888;-0.44500
1841666;-0.45500
1844444;-0.44500
1847222;-0.44500
1849999;-0.44500
1852777;-0.46000
1855555;-0.46500
1858333;-0.47500
1861111;-0.46000
1863888;-0.45000
1866666;-0.44000
1869444;-0.46500
1872222;-0.47000
1874999;-0.47000
1877777;-0.47500
1880555;-0.46500
1883333;-0.47000
1886111;-0.46500
1888888;-0.48500
1891666;-0.49000
1894444;-0.49000
1897222;-0.48000
1899999;-0.48000
1902777;-0.48000
1905555;-0.49000
1908333;-0.49000
1911111;-0.47000
1913888;-0.46000
1916666;-0.46000
1919444;-0.46500
1922222;-0.44500
1924999;-0.44500
1927777;-0.42000
1930555;-0.41000
1933333;-0.39500
1936111;-0.38500
1938888;-0.39500
1941666;-0.39500
1944444;-0.37500
1947222;-0.37500
1949999;-0.36500
1952777;-0.36500
1955555;-0.37500
1958333;-0.37000
1961111;-0.36000
1963888;-0.34500
1966666;-0.35000
1969444;-0.34000
1972222;-0.35500
1974999;-0.35000
1977777;-0.34500
1980555;-0.33500
1983333;-0.33500
1986111;-0.33500
1988888;-0.34000
1991666;-0.35500
1994444;-0.35500
1997222;-0.35000
1999999;-0.35500
2002777;-0.35500
2005555;-0.36000
2008333;-0.36500
2011111;-0.35500
2013888;-0.35000
2016666;-0.35000
2019444;-0.36000
2022222;-0.36500
2024999;-0.35500
2027777;-0.35000
2030555;-0.34500
2033333;-0.34000
2036111;-0.36000
2038888;-0.37500
2041666;-0.38000
2044444;-0.37500
2047222;-0.35500
2049999;-0.35000
2052777;-0.36000
2055555;-0.36500
2058333;-0.37500
2061111;-0.37500
2063888;-0.35000
2066666;-0.36000
2069444;-0.36000
2072222;-0.36500
2074999;-0.38000
2077777;-0.37500
2080555;-0.37000
2083333;-0.37500
2086111;-0.39000
2088888;-0.39500
2091666;-0.40500
2094444;-0.39500
2097222;-0.37500
2099999;-0.38500
2102777;-0.39500
2105555;-0.39500
2108333;-0.39500
2111111;-0.39000
2113888;-0.38000
2116666;-0.39500
2119444;-0.40000
2122222;-0.39500
2124999;-0.40500
2127777;-0.39500
2130555;-0.37500
2133333;-0.39000
2136111;-0.38500
2138888;-0.39000
2141666;-0.39000
2144444;-0.38500
2147222;-0.37500
2149999;-0.38500
2152777;-0.39000
2155555;-0.40000
2158333;-0.40000
2161111;-0.39500
2163888;-0.37000
2166666;-0.37000
2169444;-0.39000
2172222;-0.39500
2174999;-0.39500
2177777;-0.39000
2180555;-0.38000
2183333;-0.37500
2186110;-0.38000
2188888;-0.39000
2191666;-0.38500
2194444;-0.38500
2197222;-0.37000
2199999;-0.37500
2202777;-0.38000
2205555;-0.38000
2208333;-0.38500
2211110;-0.38000
2213888;-0.36000
2216666;-0.36500
2219444;-0.35500
2222222;-0.37000
2224999;-0.37000
2227777;-0.36000
2230555;-0.35500
2233333;-0.35000
2236110;-0.35000
2238888;-0.34500
2241666;-0.35000
2244444;-0.32000
2247222;-0.32000
2249999;-0.31500
2252777;-0.32500
2255555;-0.32500
2258333;-0.31500
2261110;-0.30000
2263888;-0.27500
2266666;-0.28500
2269444;-0.28500
2272222;-0.28500
2274999;-0.27500
2277777;-0.27000
2280555;-0.26500
2283333;-0.26500
2286110;-0.27500
2288888;-0.29500
2291666;-0.29000
2294444;-0.28500
2297222;-0.27500
2299999;-0.28500
2302777;-0.31500
2305555;-0.30000
2308333;-0.30000
2311110;-0.28000
2313888;-0.25000
2316666;-0.26000
2319444;-0.28500
2322222;-0.30500
2324999;-0.34000
2327777;-0.33500
2330555;-0.33500
2333333;-0.36500
2336110;-0.38000
2338888;-0.37500
2341666;-0.38500
2344444;-0.37500
2347222;-0.37000
2349999;-0.38000
2352777;-0.38000
2355555;-0.38500
2358333;-0.39000
2361110;-0.37500
2363888;-0.36500
2366666;-0.37000
2369444;-0.38000
2372222;-0.39000
2374999;-0.38500
2377777;-0.37500
2380555;-0.36500
2383333;-0.37000
2386110;-0.38500
2388888;-0.38500
2391666;-0.38500
2394444;-0.38000
2397222;-0.38000
2399999;-0.37500
2402777;-0.39500
2405555;-0.40000
2408333;-0.43500
2411110;-0.46500
2413888;-0.48500
2416666;-0.49500
2419444;-0.53500
2422222;-0.56500
2424999;-0.58500
2427777;-0.52000
2430555;-0.42000
2433333;-0.32000
2436110;-0.21500
2438888;-0.10500
2441666;0.05500
2444444;0.25000
2447222;0.46500
2449999;0.62500
2452777;0.74000
2455555;0.83500
2458333;0.91500
2461110;0.90500
2463888;0.82500
2466666;0.57500
2469444;0.24000
2472222;-0.07500
2474999;-0.31000
2477777;-0.44000
2480555;-0.48500
2483333;-0.49500
2486110;-0.48000
2488888;-0.44500
2491666;-0.43000
2494444;-0.42000
2497222;-0.40500
2499999;-0.40000
2502777;-0.39500
2505555;-0.40500
2508333;-0.41500
2511110;-0.40500
2513888;-0.39000
2516666;-0.40000
2519444;-0.40000
2522222;-0.41000
2524999;-0.40500
2527777;-0.40000
2530555;-0.38500
2533333;-0.39500
2536110;-0.40000
2538888;-0.41500
2541666;-0.41000
2544444;-0.40500
2547222;-0.39500
2549999;-0.39500
2552777;-0.39500
2555555;-0.41000
2558333;-0.42500
2561110;-0.40500
2563888;-0.39500
2566666;-0.39500
2569444;-0.40000
2572222;-0.40000
2574999;-0.41000
2577777;-0.40000
2580555;-0.38500
2583333;-0.38500
2586110;-0.40000
2588888;-0.40500
2591666;-0.41000
2594444;-0.39000
2597221;-0.39500
2599999;-0.39000
2602777;-0.39500
2605555;-0.40500
2608333;-0.40500
2611110;-0.39000
2613888;-0.38500
2616666;-0.39000
2619444;-0.40000
2622221;-0.40500
2624999;-0.40000
2627777;-0.39500
2630555;-0.39000
2633333;-0.38500
2636110;-0.38000
2638888;-0.39000
2641666;-0.38500
2644444;-0.39000
2647221;-0.38500
2649999;-0.39000
2652777;-0.39000
2655555;-0.39500
2658333;-0.40000
2661110;-0.39000
2663888;-0.38000
2666666;-0.38500
2669444;-0.38500
2672221;-0.39000
2674999;-0.39000
2677777;-0.38500
2680555;-0.38500
2683333;-0.38000
2686110;-0.38500
2688888;-0.39500
2691666;-0.39500
2694444;-0.39000
2697221;-0.39000
2699999;-0.38000
2702777;-0.40000
2705555;-0.41500
2708333;-0.42000
2711110;-0.40500
2713888;-0.41000
2716666;-0.41000
2719444;-0.42000
2722221;-0.42500
2724999;-0.43500
2727777;-0.42000
2730555;-0.40000
2733333;-0.40000
2736110;-0.40500
2738888;-0.41500
2741666;-0.42000
2744444;-0.39500
2747221;-0.39000
2749999;-0.37500
2752777;-0.37000
2755555;-0.36500
2758333;-0.36000
2761110;-0.34000
2763888;-0.32500
2766666;-0.31500
2769444;-0.33000
2772221;-0.32500
2774999;-0.31000
2777777;-0.30500
2780555;-0.29000
2783333;-0.29000
2786110;-0.29500
2788888;-0.30000
2791666;-0.30000
2794444;-0.29000
2797221;-0.27500
2799999;-0.28000
2802777;-0.29000
2805555;-0.28000
2808333;-0.29500
2811110;-0.28500
2813888;-0.28000
2816666;-0.27000
2819444;-0.28500
2822221;-0.29000
2824999;-0.29500
2827777;-0.28500
2830555;-0.27500
2833333;-0.28500
2836110;-0.28500
2838888;-0.28500
2841666;-0.29000
2844444;-0.28500
2847221;-0.28500
2849999;-0.28000
2852777;-0.28500
2855555;-0.29500
2858333;-0.29500
2861110;-0.29500
2863888;-0.27500
2866666;-0.29000
2869444;-0.29500
2872221;-0.31000
2874999;-0.31000
2877777;-0.30500
2880555;-0.29500
2883333;-0.29500
2886110;-0.30000
2888888;-0.30000
2891666;-0.32000
2894444;-0.30000
2897221;-0.29000
2899999;-0.29000
2902777;-0.31000
2905555;-0.31500
2908333;-0.31500
2911110;-0.30500
2913888;-0.30000
2916666;-0.29500
2919444;-0.31000
2922221;-0.31500
2924999;-0.32500
2927777;-0.31500
2930555;-0.30500
2933333;-0.32000
2936110;-0.32000
2938888;-0.33500
2941666;-0.32500
2944444;-0.32000
2947221;-0.31500
2949999;-0.31000
2952777;-0.32000
2955555;-0.34000
2958333;-0.34500
2961110;-0.32500
2963888;-0.31500
2966666;-0.31500
2969444;-0.32500
2972221;-0.32500
2974999;-0.33000
2977777;-0.32000
2980555;-0.30000
2983332;-0.31000
2986110;-0.32000
2988888;-0.32500
2991666;-0.32500
2994444;-0.32000
2997221;-0.30500
2999999;-0.30000
3002777;-0.31000
3005555;-0.32000
3008332;-0.32500
3011110;-0.29500
3013888;-0.29500
3016666;-0.29500
3019444;-0.31000
3022221;-0.31500
3024999;-0.31500
3027777;-0.31000
3030555;-0.31000
3033332;-0.30500
3036110;-0.31000
3038888;-0.32000
3041666;-0.32500
3044444;-0.32500
3047221;-0.30500
3049999;-0.30500
3052777;-0.32500
3055555;-0.32000
3058332;-0.31500
3061110;-0.30500
3063888;-0.29500
3066666;-0.28500
3069444;-0.29000
3072221;-0.28500
3074999;-0.27500
3077777;-0.26500
3080555;-0.24000
3083332;-0.23000
3086110;-0.24000
3088888;-0.23000
3091666;-0.23500
3094444;-0.21500
3097221;-0.21000
3099999;-0.20000
3102777;-0.20000
3105555;-0.20500
3108332;-0.20000
3111110;-0.21000
3113888;-0.19000
3116666;-0.20500
3119444;-0.20500
3122221;-0.22000
3124999;-0.23000
3127777;-0.21500
3130555;-0.20500
3133332;-0.19500
3136110;-0.20500
3138888;-0.22000
3141666;-0.23000
3144444;-0.21500
3147221;-0.18000
3149999;-0.17500
3152777;-0.19000
3155555;-0.22000
3158332;-0.26000
3161110;-0.24500
3163888;-0.26000
3166666;-0.27000
3169444;-0.29500
3172221;-0.30500
3174999;-0.30500
3177777;-0.31000
3180555;-0.30500
3183332;-0.30000
3186110;-0.29000
3188888;-0.30500
3191666;-0.31000
3194444;-0.30500
3197221;-0.29500
3199999;-0.29500
3202777;-0.30500
3205555;-0.31000
3208332;-0.31500
3211110;-0.30500
3213888;-0.30000
3216666;-0.31000
3219444;-0.31500
3222221;-0.33500
3224999;-0.33000
3227777;-0.32500
3230555;-0.32000
3233332;-0.32000
3236110;-0.32500
3238888;-0.34000
3241666;-0.33000
3244444;-0.32500
3247221;-0.32000
3249999;-0.32000
3252777;-0.34000
3255555;-0.37000
3258332;-0.43000
3261110;-0.44500
3263888;-0.44500
3266666;-0.47500
3269444;-0.51500
3272221;-0.50000
3274999;-0.41500
3277777;-0.27000
3280555;-0.14000
3283332;0.00500
3286110;0.22000
3288888;0.47500
3291666;0.70000
3294444;0.85000
3297221;0.90000
3299999;0.82500
3302777;0.53000
3305555;0.14500
3308332;-0.21500
3311110;-0.40500
3313888;-0.44000
3316666;-0.41500
3319444;-0.38000
3322221;-0.35500
3324999;-0.35500
3327777;-0.35000
3330555;-0.33500
3333332;-0.33500
3336110;-0.35000
3338888;-0.35500
3341666;-0.36000
3344444;-0.36000
3347221;-0.34000
3349999;-0.35000
3352777;-0.35500
3355555;-0.37000
3358332;-0.38500
3361110;-0.35000
3363888;-0.35000
3366666;-0.35500
3369444;-0.35500
3372221;-0.36500
3374999;-0.37000
3377777;-0.36500
3380555;-0.35500
3383332;-0.35000
3386110;-0.35500
3388888;-0.35500
3391666;-0.36500
3394443;-0.34500
3397221;-0.35000
3399999;-0.35000
3402777;-0.35500
3405555;-0.35500
3408332;-0.35000
3411110;-0.35000
3413888;-0.33500
3416666;-0.33500
3419443;-0.33500
3422221;-0.35000
3424999;-0.35000
3427777;-0.35000
3430555;-0.34500
3433332;-0.35000
3436110;-0.36000
3438888;-0.35500
3441666;-0.36000
3444443;-0.35500
3447221;-0.33000
3449999;-0.34500
3452777;-0.35000
3455555;-0.35000
3458332;-0.36500
3461110;-0.35000
3463888;-0.35000
3466666;-0.34500
3469443;-0.35000
3472221;-0.35500
3474999;-0.34500
3477777;-0.35000
3480555;-0.33500
3483332;-0.34000
3486110;-0.34000
3488888;-0.35000
3491666;-0.35000
3494443;-0.34000
3497221;-0.33500
3499999;-0.34500
3502777;-0.35000
3505555;-0.35000
3508332;-0.36500
3511110;-0.34500
3513888;-0.33000
3516666;-0.34000
3519443;-0.33500
3522221;-0.35500
3524999;-0.35500
3527777;-0.35000
3530555;-0.34500
3533332;-0.33500
3536110;-0.34500
3538888;-0.34500
3541666;-0.35500
3544443;-0.34000
3547221;-0.34000
3549999;-0.35000
3552777;-0.33500
3555555;-0.35000
3558332;-0.35000
3561110;-0.35000
3563888;-0.33500
3566666;-0.34000
3569443;-0.34500
3572221;-0.36500
3574999;-0.35000
3577777;-0.34000
3580555;-0.33000
3583332;-0.33500
3586110;-0.34000
3588888;-0.34000
3591666;-0.34000
3594443;-0.33000
3597221;-0.30500
3599999;-0.30500
3602777;-0.31500
3605555;-0.31500
3608332;-0.30500
3611110;-0.28500
3613888;-0.27000
3616666;-0.26500
3619443;-0.26000
3622221;-0.26500
3624999;-0.26000
3627777;-0.25500
3630555;-0.24500
3633332;-0.24000
3636110;-0.25500
3638888;-0.25500
3641666;-0.26500
3644443;-0.25000
3647221;-0.24000
3649999;-0.24000
3652777;-0.25000
3655555;-0.25500
3658332;-0.26000
3661110;-0.25500
3663888;-0.24000
3666666;-0.25500
3669443;-0.25000
3672221;-0.27000
3674999;-0.26500
3677777;-0.26000
3680555;-0.25500
3683332;-0.25500
3686110;-0.25500
3688888;-0.26500
3691666;-0.26000
3694443;-0.25500
3697221;-0.25500
3699999;-0.25500
3702777;-0.26000
3705555;-0.27000
3708332;-0.27000
3711110;-0.26500
3713888;-0.26000
3716666;-0.27500
3719443;-0.27500
3722221;-0.28500
3724999;-0.29500
3727777;-0.27500
3730555;-0.27000
3733332;-0.27000
3736110;-0.28500
3738888;-0.28500
3741666;-0.29500
3744443;-0.28000
3747221;-0.27000
3749999;-0.28000
3752777;-0.28500
3755555;-0.30000
3758332;-0.29000
3761110;-0.30500
3763888;-0.28500
3766666;-0.28500
3769443;-0.29500
3772221;-0.30500
3774999;-0.30500
3777777;-0.30500
3780554;-0.29000
3783332;-0.29000
3786110;-0.31000
3788888;-0.30500
3791666;-0.31000
3794443;-0.30500
3797221;-0.29500
3799999;-0.29500
3802777;-0.30500
3805554;-0.32000
3808332;-0.31500
3811110;-0.31000
3813888;-0.30000
3816666;-0.29500
3819443;-0.30500
3822221;-0.31000
3824999;-0.30000
3827777;-0.30500
3830554;-0.29500
3833332;-0.30000
3836110;-0.30500
3838888;-0.30500
3841666;-0.31500
3844443;-0.30500
3847221;-0.29500
3849999;-0.29500
3852777;-0.29000
3855554;-0.31000
3858332;-0.31000
3861110;-0.31000
3863888;-0.29500
3866666;-0.29000
3869443;-0.31500
3872221;-0.31000
3874999;-0.30500
3877777;-0.29500
3880554;-0.27500
3883332;-0.26500
3886110;-0.26500
3888888;-0.25500
3891666;-0.24500
3894443;-0.23500
3897221;-0.22500
3899999;-0.22500
3902777;-0.24500
3905554;-0.24000
3908332;-0.24500
3911110;-0.23000
3913888;-0.20000
3916666;-0.20000
3919443;-0.20500
3922221;-0.20000
3924999;-0.19500
3927777;-0.19000
3930554;-0.19000
3933332;-0.19500
3936110;-0.21500
3938888;-0.22000
3941666;-0.21500
3944443;-0.22000
3947221;-0.21000
3949999;-0.21000
3952777;-0.22000
3955554;-0.22500
3958332;-0.20000
3961110;-0.17500
3963888;-0.17500
3966666;-0.20000
3969443;-0.24000
3972221;-0.25500
3974999;-0.26500
3977777;-0.27500
3980554;-0.27500
3983332;-0.29500
3986110;-0.30000
3988888;-0.30500
3991666;-0.32500
3994443;-0.32500
3997221;-0.32500
3999999;-0.30500
4002777;-0.32500
4005554;-0.33500
4008332;-0.33000
4011110;-0.32500
4013888;-0.32500
4016666;-0.31500
4019443;-0.33500
4022221;-0.33500
4024999;-0.34000
4027777;-0.33000
4030554;-0.32000
4033332;-0.32000
4036110;-0.32500
4038888;-0.34000
4041666;-0.34000
4044443;-0.34000
4047221;-0.32000
4049999;-0.34000
4052777;-0.35500
4055554;-0.38500
4058332;-0.42500
4061110;-0.44500
4063888;-0.45000
4066666;-0.46500
4069443;-0.52000
4072221;-0.53000
4074999;-0.47500
4077777;-0.36000
4080554;-0.22000
4083332;-0.08000
4086110;0.13000
4088888;0.38000
4091666;0.61000
4094443;0.75000
4097221;0.80500
4099999;0.69500
4102777;0.39000
4105554;0.01000
4108332;-0.30500
4111110;-0.45500
4113888;-0.48000
4116666;-0.44000
4119443;-0.39000
4122221;-0.37000
4124999;-0.37500
4127777;-0.39000
4130554;-0.36000
4133332;-0.35500
4136110;-0.36500
4138888;-0.38000
4141666;-0.37500
4144443;-0.37000
4147221;-0.35500
4149999;-0.36500
4152777;-0.37000
4155554;-0.37000
4158332;-0.37500
4161110;-0.38000
4163888;-0.36500
4166666;-0.35500
4169443;-0.36500
4172221;-0.37500
4174999;-0.37500
4177777;-0.38000
4180554;-0.36000
4183332;-0.37000
4186110;-0.37500
4188888;-0.37500
4191665;-0.39000
4194443;-0.38000
4197221;-0.37000
4199999;-0.37500
4202777;-0.37500
4205554;-0.38000
4208332;-0.38000
4211110;-0.37500
4213888;-0.37000
4216665;-0.37500
4219443;-0.36500
4222221;-0.38000
4224999;-0.36000
4227777;-0.36000
4230554;-0.36500
4233332;-0.36500
4236110;-0.37000
4238888;-0.38000
4241665;-0.37500
4244443;-0.37000
4247221;-0.36000
4249999;-0.37000
4252777;-0.38000
4255554;-0.38000
4258332;-0.38500
4261110;-0.38500
4263888;-0.37000
4266665;-0.37500
4269443;-0.37500
4272221;-0.38500
4274999;-0.39500
4277777;-0.38000
4280554;-0.38000
4283332;-0.37000
4286110;-0.38000
4288888;-0.38500
4291665;-0.39000
4294443;-0.36500
4297221;-0.35000
4299999;-0.34500
4302777;-0.36000
4305554;-0.36500
4308332;-0.37000
4311110;-0.37500
4313888;-0.36000
4316665;-0.35500
4319443;-0.36000
4322221;-0.37000
4324999;-0.37500
4327777;-0.36000
4330554;-0.37500
4333332;-0.36000
4336110;-0.36500
4338888;-0.38000
4341665;-0.38000
4344443;-0.37000
4347221;-0.36500
4349999;-0.36000
4352777;-0.37000
4355554;-0.38000
4358332;-0.39000
4361110;-0.38500
4363888;-0.39000
4366665;-0.39000
4369443;-0.39000
4372221;-0.40000
4374999;-0.39500
4377777;-0.40000
4380554;-0.39000
4383332;-0.38000
4386110;-0.37500
4388888;-0.39000
4391665;-0.37500
4394443;-0.36000
4397221;-0.35000
4399999;-0.34500
4402777;-0.34000
4405554;-0.33500
4408332;-0.33000
4411110;-0.31500
4413888;-0.31000
4416665;-0.30500
4419443;-0.31500
4422221;-0.33000
4424999;-0.32500
4427777;-0.31500
4430554;-0.30000
4433332;-0.28500
4436110;-0.30000
4438888;-0.30500
4441665;-0.31500
4444443;-0.30500
4447221;-0.29500
4449999;-0.30500
4452777;-0.32000
4455554;-0.31500
4458332;-0.33500
4461110;-0.31000
4463888;-0.30500
4466665;-0.30000
4469443;-0.30500
4472221;-0.31000
4474999;-0.30500
4477777;-0.30500
4480554;-0.30000
4483332;-0.30000
4486110;-0.31000
4488888;-0.32000
4491665;-0.34000
4494443;-0.33000
4497221;-0.31500
4499999;-0.31000
4502777;-0.32000
4505554;-0.33000
4508332;-0.33500
4511110;-0.33000
4513888;-0.32500
4516665;-0.32000
4519443;-0.33500
4522221;-0.34500
4524999;-0.35500
4527777;-0.34500
4530554;-0.34500
4533332;-0.34000
4536110;-0.33500
4538888;-0.33500
4541665;-0.33000
4544443;-0.31500
4547221;-0.31000
4549999;-0.31000
4552777;-0.32500
4555554;-0.33500
4558332;-0.34000
4561110;-0.34500
4563888;-0.33000
4566665;-0.33500
4569443;-0.33000
4572221;-0.34500
4574999;-0.36500
4577776;-0.34500
4580554;-0.35500
4583332;-0.36000
4586110;-0.37500
4588888;-0.38500
4591665;-0.39000
4594443;-0.37000
4597221;-0.35000
4599999;-0.35500
4602776;-0.36000
4605554;-0.37000
4608332;-0.36500
4611110;-0.36500
4613888;-0.36500
4616665;-0.36500
4619443;-0.37000
4622221;-0.36500
4624999;-0.36000
4627776;-0.37000
4630554;-0.36500
4633332;-0.35500
4636110;-0.36500
4638888;-0.37000
4641665;-0.36000
4644443;-0.37000
4647221;-0.36500
4649999;-0.35500
4652776;-0.36000
4655554;-0.37000
4658332;-0.36000
4661110;-0.36000
4663888;-0.34500
4666665;-0.34500
4669443;-0.35000
4672221;-0.35500
4674999;-0.35000
4677776;-0.32000
4680554;-0.31500
4683332;-0.31000
4686110;-0.31000
4688888;-0.30500
4691665;-0.30500
4694443;-0.30000
4697221;-0.28500
4699999;-0.28000
4702776;-0.27500
4705554;-0.27000
4708332;-0.26500
4711110;-0.24500
4713888;-0.25000
4716665;-0.24500
4719443;-0.24500
4722221;-0.26500
4724999;-0.29500
4727776;-0.29500
4730554;-0.28500
4733332;-0.27000
4736110;-0.27000
4738888;-0.28500
4741665;-0.29500
4744443;-0.28000
4747221;-0.26000
4749999;-0.24000
4752776;-0.26000
4755554;-0.28500
4758332;-0.30000
4761110;-0.30000
4763888;-0.30500
4766665;-0.31000
4769443;-0.32000
4772221;-0.36000
4774999;-0.39000
4777776;-0.37500
4780554;-0.36000
4783332;-0.36000
4786110;-0.37500
4788888;-0.37500
4791665;-0.37000
4794443;-0.35500
4797221;-0.36000
4799999;-0.37000
4802776;-0.38000
4805554;-0.39000
4808332;-0.40000
4811110;-0.39500
4813888;-0.39500
4816665;-0.39000
4819443;-0.40000
4822221;-0.40500
4824999;-0.40000
4827776;-0.39500
4830554;-0.38000
4833332;-0.38500
4836110;-0.39500
4838888;-0.40500
4841665;-0.40000
4844443;-0.38500
4847221;-0.40000
4849999;-0.42500
4852776;-0.47000
4855554;-0.50500
4858332;-0.52500
4861110;-0.54500
4863888;-0.57000
4866665;-0.55000
4869443;-0.47500
4872221;-0.39000
4874999;-0.26000
4877776;-0.09000
4880554;0.13500
4883332;0.40000
4886110;0.62000
4888888;0.74500
4891665;0.74000
4894443;0.58000
4897221;0.28000
4899999;-0.08500
4902776;-0.35000
4905554;-0.47500
4908332;-0.51500
4911110;-0.50500
4913888;-0.47000
4916665;-0.44500
4919443;-0.44000
4922221;-0.44000
4924999;-0.44500
4927776;-0.42500
4930554;-0.42500
4933332;-0.41000
4936110;-0.43000
4938888;-0.43000
4941665;-0.43000
4944443;-0.43500
4947221;-0.44000
4949999;-0.44000
4952776;-0.43500
4955554;-0.43500
4958332;-0.43500
4961110;-0.43000
4963887;-0.43000
4966665;-0.42500
4969443;-0.42500
4972221;-0.42500
4974999;-0.44000
4977776;-0.44500
4980554;-0.43500
4983332;-0.44000
4986110;-0.43500
4988887;-0.45000
4991665;-0.44500
4994443;-0.44000
4997221;-0.43000
4999999;-0.43000
5002776;-0.44000
5005554;-0.45000
5008332;-0.45000
5011110;-0.44000
5013887;-0.43000
5016665;-0.44000
5019443;-0.43500
5022221;-0.45000
5024999;-0.45500
5027776;-0.44000
5030554;-0.44500
5033332;-0.43500
5036110;-0.44000
5038887;-0.44000
5041665;-0.46000
5044443;-0.46000
5047221;-0.44500
5049999;-0.44500
5052776;-0.45500
5055554;-0.46000
5058332;-0.46500
5061110;-0.46000
5063887;-0.45000
5066665;-0.45000
5069443;-0.44500
5072221;-0.44000
5074999;-0.45000
5077776;-0.44500
5080554;-0.43000
5083332;-0.43500
5086110;-0.44500
5088887;-0.45500
5091665;-0.45000
5094443;-0.43500
5097221;-0.42000
5099999;-0.42500
5102776;-0.44000
5105554;-0.44500
5108332;-0.44500
5111110;-0.43500
5113887;-0.43500
5116665;-0.43500
5119443;-0.44500
5122221;-0.45500
5124999;-0.45500
5127776;-0.45500
5130554;-0.44000
5133332;-0.43500
5136110;-0.44500
5138887;-0.45500
5141665;-0.47000
5144443;-0.48000
5147221;-0.47500
5149999;-0.47500
5152776;-0.48000
5155554;-0.48500
5158332;-0.48500
5161110;-0.47500
5163887;-0.47500
5166665;-0.47500
5169443;-0.48500
5172221;-0.49000
5174999;-0.50000
5177776;-0.49000
5180554;-0.48000
5183332;-0.47500
5186110;-0.47000
5188887;-0.49000
5191665;-0.48500
5194443;-0.46500
5197221;-0.44000
5199999;-0.43500
5202776;-0.43500
5205554;-0.42000
5208332;-0.42000
5211110;-0.40000
5213887;-0.38500
5216665;-0.38000
5219443;-0.37500
5222221;-0.37500
5224999;-0.38000
5227776;-0.36500
5230554;-0.34500
5233332;-0.35000
5236110;-0.35000
5238887;-0.35500
5241665;-0.34000
5244443;-0.34000
5247221;-0.33500
5249999;-0.33500
5252776;-0.34000
5255554;-0.34500
5258332;-0.35000
5261110;-0.34500
5263887;-0.34000
5266665;-0.34500
5269443;-0.34500
5272221;-0.35000
5274999;-0.36000
5277776;-0.35500
5280554;-0.35500
5283332;-0.34500
5286110;-0.35000
5288887;-0.36000
5291665;-0.36000
5294443;-0.35000
5297221;-0.34000
5299999;-0.34500
5302776;-0.35500
5305554;-0.37000
5308332;-0.37000
5311110;-0.37000
5313887;-0.34500
5316665;-0.34500
5319443;-0.35000
5322221;-0.36500
5324999;-0.37500
5327776;-0.36500
5330554;-0.36000
5333332;-0.35500
5336110;-0.35500
5338887;-0.35500
5341665;-0.37500
5344443;-0.36500
5347221;-0.36500
5349999;-0.36500
5352776;-0.37000
5355554;-0.37000
5358332;-0.38500
5361110;-0.38000
5363887;-0.36500
5366665;-0.37000
5369443;-0.37000
5372221;-0.37500
5374998;-0.38500
5377776;-0.37000
5380554;-0.37000
5383332;-0.36500
5386110;-0.37000
5388887;-0.36500
5391665;-0.37500
5394443;-0.36500
5397221;-0.35000
5399998;-0.35000
5402776;-0.36000
5405554;-0.37000
5408332;-0.39000
5411110;-0.37000
5413887;-0.35000
5416665;-0.34500
5419443;-0.36000
5422221;-0.36500
5424998;-0.36000
5427776;-0.35500
5430554;-0.35500
5433332;-0.34000
5436110;-0.35000
5438887;-0.36500
5441665;-0.36500
5444443;-0.35500
5447221;-0.34500
5449998;-0.34000
5452776;-0.35000
5455554;-0.34500
5458332;-0.35500
5461110;-0.34500
5463887;-0.33500
5466665;-0.34000
5469443;-0.34000
5472221;-0.34000
5474998;-0.35000
5477776;-0.34500
5480554;-0.33000
5483332;-0.32500
5486110;-0.32000
5488887;-0.31500
5491665;-0.31500
5494443;-0.30500
5497221;-0.29000
5499998;-0.27000
5502776;-0.27000
5505554;-0.28500
5508332;-0.27000
5511110;-0.26000
5513887;-0.24500
5516665;-0.25000
5519443;-0.24500
5522221;-0.25000
5524998;-0.25500
5527776;-0.24500
5530554;-0.25000
5533332;-0.25500
5536110;-0.25500
5538887;-0.26000
5541665;-0.26000
5544443;-0.25500
5547221;-0.26000
5549998;-0.27000
5552776;-0.24000
5555554;-0.23500
5558332;-0.24000
5561110;-0.25500
5563887;-0.28500
5566665;-0.29500
5569443;-0.31500
5572221;-0.33500
5574998;-0.35000
5577776;-0.36000
5580554;-0.34500
5583332;-0.35500
5586110;-0.36000
5588887;-0.36500
5591665;-0.37000
5594443;-0.36500
5597221;-0.35500
5599998;-0.36000
5602776;-0.36000
5605554;-0.37500
5608332;-0.37500
5611110;-0.37000
5613887;-0.36000
5616665;-0.36500
5619443;-0.35500
5622221;-0.36500
5624998;-0.37000
5627776;-0.36500
5630554;-0.35000
5633332;-0.35500
5636110;-0.35000
5638887;-0.36500
5641665;-0.37500
5644443;-0.37500
5647221;-0.37500
5649998;-0.40000
5652776;-0.44500
5655554;-0.47500
5658332;-0.50000
5661110;-0.50500
5663887;-0.55500
5666665;-0.55500
5669443;-0.50000
5672221;-0.41000
5674998;-0.26500
5677776;-0.09000
5680554;0.10500
5683332;0.37500
5686110;0.63000
5688887;0.78500
5691665;0.83500
5694443;0.76500
5697221;0.51500
5699998;0.12500
5702776;-0.25500
5705554;-0.46500
5708332;-0.51500
5711110;-0.46000
5713887;-0.41500
5716665;-0.38500
5719443;-0.39500
5722221;-0.40000
5724998;-0.41000
5727776;-0.40000
5730554;-0.39000
5733332;-0.39500
5736110;-0.39500
5738887;-0.41000
5741665;-0.40000
5744443;-0.40000
5747221;-0.38500
5749998;-0.38500
5752776;-0.38500
5755554;-0.39000
5758332;-0.40500
5761109;-0.39000
5763887;-0.38500
5766665;-0.38000
5769443;-0.39000
5772221;-0.40000
5774998;-0.41000
5777776;-0.39500
5780554;-0.38500
5783332;-0.38000
5786109;-0.39000
5788887;-0.38500
5791665;-0.39000
5794443;-0.39500
5797221;-0.37000
5799998;-0.38000
5802776;-0.37500
5805554;-0.39000
5808332;-0.39500
5811109;-0.37500
5813887;-0.36000
5816665;-0.35500
5819443;-0.36000
5822221;-0.38500
5824998;-0.38000
5827776;-0.37500
5830554;-0.36500
5833332;-0.37500
5836109;-0.37500
5838887;-0.38500
5841665;-0.39000
5844443;-0.38500
5847221;-0.38500
5849998;-0.38000
5852776;-0.38500
5855554;-0.38500
5858332;-0.39500
5861109;-0.38500
5863887;-0.37500
5866665;-0.37500
5869443;-0.37000
5872221;-0.38500
5874998;-0.38500
5877776;-0.38000
5880554;-0.37000
5883332;-0.36500
5886109;-0.36500
5888887;-0.36500
5891665;-0.38500
5894443;-0.37000
5897221;-0.37000
5899998;-0.36000
5902776;-0.37500
5905554;-0.38500
5908332;-0.37500
5911109;-0.38500
5913887;-0.37500
5916665;-0.37500
5919443;-0.38500
5922221;-0.39500
5924998;-0.39500
5927776;-0.40000
5930554;-0.39000
5933332;-0.38500
5936109;-0.40000
5938887;-0.40500
5941665;-0.41000
5944443;-0.40000
5947221;-0.39500
5949998;-0.39500
5952776;-0.39000
5955554;-0.39500
5958332;-0.39500
5961109;-0.39000
5963887;-0.37500
5966665;-0.36500
5969443;-0.36000
5972221;-0.37000
5974998;-0.35000
5977776;-0.34000
5980554;-0.34000
5983332;-0.33000
5986109;-0.31500
5988887;-0.32000
5991665;-0.31500
5994443;-0.30000
5997221;-0.28000
5999998;-0.27500
6002776;-0.28000
6005554;-0.28500
6008332;-0.28500
6011109;-0.28000
6013887;-0.27000
6016665;-0.26500
6019443;-0.28000
6022221;-0.28000
6024998;-0.28000
6027776;-0.27500
6030554;-0.26500
6033332;-0.26000
6036109;-0.26500
6038887;-0.28000
6041665;-0.28500
6044443;-0.27500
6047221;-0.27000
6049998;-0.26500
6052776;-0.28000
6055554;-0.28000
6058332;-0.28000
6061109;-0.26500
6063887;-0.27000
6066665;-0.26500
6069443;-0.27000
6072221;-0.28000
6074998;-0.28500
6077776;-0.29000
6080554;-0.28000
6083332;-0.28500
6086109;-0.28500
6088887;-0.30000
6091665;-0.29500
6094443;-0.28000
6097221;-0.28500
6099998;-0.28500
6102776;-0.28500
6105554;-0.30000
6108332;-0.30000
6111109;-0.29500
6113887;-0.28500
6116665;-0.29000
6119443;-0.28500
6122221;-0.29500
6124998;-0.29500
6127776;-0.30000
6130554;-0.29000
6133332;-0.29000
6136109;-0.29000
6138887;-0.30500
6141665;-0.30500
6144443;-0.30500
6147221;-0.30000
6149998;-0.30000
6152776;-0.30500
6155554;-0.30500
6158332;-0.30500
6161109;-0.31500
6163887;-0.28500
6166665;-0.29500
6169443;-0.30500
6172220;-0.31000
6174998;-0.32000
6177776;-0.32500
6180554;-0.31000
6183332;-0.30000
6186109;-0.30000
6188887;-0.31500
6191665;-0.32000
6194443;-0.31000
6197220;-0.31500
6199998;-0.31500
6202776;-0.31000
6205554;-0.32000
6208332;-0.31000
6211109;-0.30500
6213887;-0.29000
6216665;-0.29500
6219443;-0.28500
6222220;-0.30000
6224998;-0.32000
6227776;-0.30500
6230554;-0.29000
6233332;-0.29000
6236109;-0.30000
6238887;-0.31000
6241665;-0.31000
6244443;-0.29500
6247220;-0.28000
6249998;-0.29500
6252776;-0.29000
6255554;-0.29500
6258332;-0.31000
6261109;-0.29500
6263887;-0.27500
6266665;-0.27500
6269443;-0.26500
6272220;-0.26000
6274998;-0.25500
6277776;-0.22000
6280554;-0.22000
6283332;-0.21000
6286109;-0.22000
6288887;-0.23500
6291665;-0.21500
6294443;-0.20500
6297220;-0.19000
6299998;-0.18500
6302776;-0.18000
6305554;-0.19500
6308332;-0.18500
6311109;-0.18500
6313887;-0.17500
6316665;-0.17500
6319443;-0.18000
6322220;-0.19000
6324998;-0.20500
6327776;-0.21000
6330554;-0.19500
6333332;-0.19500
6336109;-0.19500
6338887;-0.20500
6341665;-0.21500
6344443;-0.20000
6347220;-0.17000
6349998;-0.15500
6352776;-0.18000
6355554;-0.21500
6358332;-0.24000
6361109;-0.24500
6363887;-0.26000
6366665;-0.26500
6369443;-0.28000
6372220;-0.29500
6374998;-0.31500
6377776;-0.31000
6380554;-0.30000
6383332;-0.29000
6386109;-0.30000
6388887;-0.30000
6391665;-0.32000
6394443;-0.30000
6397220;-0.30500
6399998;-0.30500
6402776;-0.30000
6405554;-0.31000
6408332;-0.31000
6411109;-0.30500
6413887;-0.30500
6416665;-0.29500
6419443;-0.30500
6422220;-0.31500
6424998;-0.32000
6427776;-0.32000
6430554;-0.33000
6433332;-0.35000
6436109;-0.41000
6438887;-0.44000
6441665;-0.46000
6444443;-0.49000
6447220;-0.51500
6449998;-0.50000
6452776;-0.45500
6455554;-0.36000
6458332;-0.28500
6461109;-0.19500
6463887;-0.09500
6466665;0.04500
6469443;0.26000
6472220;0.51500
6474998;0.74500
6477776;0.91000
6480554;0.97000
6483332;0.88500
6486109;0.61500
6488887;0.22000
6491665;-0.15500
6494443;-0.38000
6497220;-0.44000
6499998;-0.40500
6502776;-0.35500
6505554;-0.35500
6508332;-0.35500
6511109;-0.35000
6513887;-0.33000
6516665;-0.32500
6519443;-0.32500
6522220;-0.33500
6524998;-0.35500
6527776;-0.33500
6530554;-0.34000
6533332;-0.34500
6536109;-0.34500
6538887;-0.34500
6541665;-0.36000
6544443;-0.34000
6547220;-0.34500
6549998;-0.33000
6552776;-0.34500
6555554;-0.35500
6558331;-0.35500
6561109;-0.34000
6563887;-0.33500
6566665;-0.32500
6569443;-0.33000
6572220;-0.34000
6574998;-0.35000
6577776;-0.32500
6580554;-0.32500
6583331;-0.33000
6586109;-0.34000
6588887;-0.34500
6591665;-0.35000
6594443;-0.35000
6597220;-0.33500
6599998;-0.33000
6602776;-0.34500
6605554;-0.35000
6608331;-0.35000
6611109;-0.34000
6613887;-0.33500
6616665;-0.33000
6619443;-0.33000
6622220;-0.33000
6624998;-0.34000
6627776;-0.32000
6630554;-0.33500
6633331;-0.34000
6636109;-0.33000
6638887;-0.34000
6641665;-0.34500
6644443;-0.35000
6647220;-0.34000
6649998;-0.33500
6652776;-0.33500
6655554;-0.35000
6658331;-0.35500
6661109;-0.34500
6663887;-0.33500
6666665;-0.34000
6669443;-0.33500
6672220;-0.35500
6674998;-0.36500
6677776;-0.35000
6680554;-0.32000
6683331;-0.32000
6686109;-0.33500
6688887;-0.33500
6691665;-0.34000
6694443;-0.32500
6697220;-0.32500
6699998;-0.33000
6702776;-0.32500
6705554;-0.33000
6708331;-0.34500
6711109;-0.33000
6713887;-0.33500
6716665;-0.33000
6719443;-0.33500
6722220;-0.34000
6724998;-0.35000
6727776;-0.33500
6730554;-0.34500
6733331;-0.34000
6736109;-0.34000
6738887;-0.35000
6741665;-0.34000
6744443;-0.33500
6747220;-0.33500
6749998;-0.32000
6752776;-0.30500
6755554;-0.32500
6758331;-0.32000
6761109;-0.29500
6763887;-0.28500
6766665;-0.27500
6769443;-0.27000
6772220;-0.26500
6774998;-0.25500
6777776;-0.25500
6780554;-0.23500
6783331;-0.23500
6786109;-0.23500
6788887;-0.24500
6791665;-0.25500
6794443;-0.23500
6797220;-0.22500
6799998;-0.23000
6802776;-0.23500
6805554;-0.24000
6808331;-0.25500
6811109;-0.25000
6813887;-0.23000
6816665;-0.22500
6819443;-0.22500
6822220;-0.24500
6824998;-0.25000
6827776;-0.24500
6830554;-0.23500
6833331;-0.23500
6836109;-0.23000
6838887;-0.25000
6841665;-0.25500
6844443;-0.25000
6847220;-0.24000
6849998;-0.24000
6852776;-0.24500
6855554;-0.25000
6858331;-0.26500
6861109;-0.26000
6863887;-0.25000
6866665;-0.26000
6869443;-0.25500
6872220;-0.27000
6874998;-0.26500
6877776;-0.25500
6880554;-0.24000
6883331;-0.26000
6886109;-0.26000
6888887;-0.27000
6891665;-0.28000
6894443;-0.25500
6897220;-0.26000
6899998;-0.25500
6902776;-0.26500
6905554;-0.26500
6908331;-0.27000
6911109;-0.27000
6913887;-0.26000
6916665;-0.26000
6919443;-0.26500
6922220;-0.26500
6924998;-0.28000
6927776;-0.26500
6930554;-0.25500
6933331;-0.25500
6936109;-0.26500
6938887;-0.27500
6941665;-0.28500
6944442;-0.28000
6947220;-0.29000
6949998;-0.27000
6952776;-0.27500
6955554;-0.29000
6958331;-0.29000
6961109;-0.29000
6963887;-0.27000
6966665;-0.26500
6969442;-0.28500
6972220;-0.29500
6974998;-0.30000
6977776;-0.27500
6980554;-0.27000
6983331;-0.26000
6986109;-0.26500
6988887;-0.27500
6991665;-0.28500
6994442;-0.27000
6997220;-0.27500
6999998;-0.27000
7002776;-0.27500
7005554;-0.28000
7008331;-0.29500
7011109;-0.28500
7013887;-0.28000
7016665;-0.26000
7019442;-0.27500
7022220;-0.28500
7024998;-0.29000
7027776;-0.28500
7030554;-0.27000
7033331;-0.26000
7036109;-0.26000
7038887;-0.27500
7041665;-0.28000
7044442;-0.27000
7047220;-0.26500
7049998;-0.27000
7052776;-0.26500
7055554;-0.27500
7058331;-0.28500
7061109;-0.26500
7063887;-0.25500
7066665;-0.25500
7069442;-0.25000
7072220;-0.22500
7074998;-0.23500
7077776;-0.22500
7080554;-0.20000
7083331;-0.20000
7086109;-0.19500
7088887;-0.19500
7091665;-0.20000
7094442;-0.17500
7097220;-0.16000
7099998;-0.15500
7102776;-0.17000
7105554;-0.17000
7108331;-0.18500
7111109;-0.19000
7113887;-0.18500
7116665;-0.17500
7119442;-0.19000
7122220;-0.18500
7124998;-0.19500
7127776;-0.19500
7130554;-0.18500
7133331;-0.18500
7136109;-0.16500
7138887;-0.16500
7141665;-0.17500
7144442;-0.20000
7147220;-0.22000
7149998;-0.21500
7152776;-0.23000
7155554;-0.25000
7158331;-0.26000
7161109;-0.27000
7163887;-0.26000
7166665;-0.27500
7169442;-0.28500
7172220;-0.28500
7174998;-0.28500
7177776;-0.28500
7180554;-0.28000
7183331;-0.28000
7186109;-0.28000
7188887;-0.30500
7191665;-0.31500
7194442;-0.30500
7197220;-0.29500
7199998;-0.29000
7202776;-0.29500
7205554;-0.31000
7208331;-0.31500
7211109;-0.30500
7213887;-0.30000
7216665;-0.29000
7219442;-0.30500
7222220;-0.32500
7224998;-0.34500
7227776;-0.37500
7230554;-0.39000
7233331;-0.40500
7236109;-0.43000
7238887;-0.47500
7241665;-0.51500
7244442;-0.46500
7247220;-0.37000
7249998;-0.25500
7252776;-0.12500
7255554;0.05500
7258331;0.30500
7261109;0.57000
7263887;0.76000
7266665;0.86000
7269442;0.87500
7272220;0.75500
7274998;0.49500
7277776;0.20500
7280554;-0.05000
7283331;-0.24000
7286109;-0.37500
7288887;-0.45500
7291665;-0.49000
7294442;-0.48500
7297220;-0.44500
7299998;-0.40500
7302776;-0.36000
7305554;-0.35500
7308331;-0.36500
7311109;-0.36000
7313887;-0.34000
7316665;-0.33500
7319442;-0.34000
7322220;-0.35000
7324998;-0.37000
7327776;-0.35000
7330554;-0.35000
7333331;-0.34000
7336109;-0.34500
7338887;-0.34500
7341665;-0.35500
7344442;-0.35500
7347220;-0.34500
7349998;-0.35000
7352776;-0.35000
7355553;-0.36000
7358331;-0.37000
7361109;-0.36500
7363887;-0.35000
7366665;-0.35500
7369442;-0.35500
7372220;-0.35500
7374998;-0.36500
7377776;-0.34500
7380553;-0.35000
7383331;-0.34000
7386109;-0.34500
7388887;-0.36500
7391665;-0.37000
7394442;-0.35000
7397220;-0.34500
7399998;-0.36000
7402776;-0.35000
7405553;-0.36500
7408331;-0.37000
7411109;-0.37000
7413887;-0.36000
7416665;-0.36000
7419442;-0.36500
7422220;-0.36000
7424998;-0.36500
7427776;-0.36500
7430553;-0.34000
7433331;-0.33500
7436109;-0.35500
7438887;-0.36000
7441665;-0.36500
7444442;-0.36000
7447220;-0.34500
7449998;-0.34500
7452776;-0.34000
7455553;-0.35500
7458331;-0.35500
7461109;-0.35500
7463887;-0.35500
7466665;-0.35000
7469442;-0.35000
7472220;-0.36000
7474998;-0.36000
7477776;-0.35000
7480553;-0.36000
7483331;-0.35500
7486109;-0.35500
7488887;-0.35000
7491665;-0.35500
7494442;-0.34000
7497220;-0.34500
7499998;-0.36500
7502776;-0.37000
7505553;-0.37000
7508331;-0.37000
7511109;-0.35500
7513887;-0.34000
7516665;-0.34000
7519442;-0.34500
7522220;-0.34500
7524998;-0.36000
7527776;-0.35500
7530553;-0.35500
7533331;-0.35500
7536109;-0.37000
7538887;-0.38000
7541665;-0.39000
7544442;-0.37000
7547220;-0.37000
7549998;-0.36500
7552776;-0.37000
7555553;-0.36500
7558331;-0.37000
7561109;-0.38000
7563887;-0.36500
7566665;-0.35000
7569442;-0.34500
7572220;-0.36000
7574998;-0.37000
7577776;-0.35000
7580553;-0.34000
7583331;-0.32500
7586109;-0.32000
7588887;-0.31500
7591665;-0.32000
7594442;-0.30500
7597220;-0.29000
7599998;-0.28500
7602776;-0.29000
7605553;-0.29500
7608331;-0.28500
7611109;-0.28000
7613887;-0.26500
7616665;-0.28000
7619442;-0.26500
7622220;-0.28000
7624998;-0.28500
7627776;-0.28500
7630553;-0.25000
7633331;-0.26500
7636109;-0.26500
7638887;-0.28000
7641665;-0.28500
7644442;-0.28500
7647220;-0.27000
7649998;-0.27500
7652776;-0.27500
7655553;-0.29000
7658331;-0.29500
7661109;-0.28500
7663887;-0.26500
7666665;-0.26000
7669442;-0.27000
7672220;-0.29000
7674998;-0.29500
7677776;-0.28500
7680553;-0.29000
7683331;-0.28500
7686109;-0.30000
7688887;-0.30000
7691665;-0.30000
7694442;-0.29500
7697220;-0.28500
7699998;-0.28500
7702776;-0.27500
7705553;-0.29000
7708331;-0.30500
7711109;-0.31000
7713887;-0.30000
7716665;-0.29000
7719442;-0.30500
7722220;-0.31500
7724998;-0.30500
7727776;-0.29000
7730553;-0.29000
7733331;-0.29500
7736109;-0.30500
7738887;-0.31000
7741664;-0.31500
7744442;-0.32000
7747220;-0.31500
7749998;-0.30500
7752776;-0.31000
7755553;-0.32000
7758331;-0.31500
7761109;-0.31500
7763887;-0.30500
7766664;-0.29000
7769442;-0.31000
7772220;-0.32000
7774998;-0.32000
7777776;-0.31000
7780553;-0.30500
7783331;-0.30000
7786109;-0.30500
7788887;-0.32000
7791664;-0.32000
7794442;-0.32500
7797220;-0.31000
7799998;-0.32000
7802776;-0.33500
7805553;-0.33000
7808331;-0.33000
7811109;-0.32500
7813887;-0.32500
7816664;-0.31500
7819442;-0.31500
7822220;-0.31500
7824998;-0.33000
7827776;-0.33500
7830553;-0.31500
7833331;-0.30500
7836109;-0.32000
7838887;-0.32000
7841664;-0.32500
7844442;-0.31500
7847220;-0.30000
7849998;-0.31000
7852776;-0.31500
7855553;-0.32000
7858331;-0.33000
7861109;-0.32000
7863887;-0.30500
7866664;-0.31000
7869442;-0.31000
7872220;-0.32000
7874998;-0.32000
7877776;-0.31500
7880553;-0.28500
7883331;-0.28000
7886109;-0.26500
7888887;-0.27000
7891664;-0.28000
7894442;-0.26000
7897220;-0.26500
7899998;-0.25500
7902776;-0.25500
7905553;-0.26000
7908331;-0.27000
7911109;-0.25500
7913887;-0.23500
7916664;-0.23500
7919442;-0.22500
7922220;-0.23500
7924998;-0.25000
7927776;-0.25000
7930553;-0.24000
7933331;-0.22000
7936109;-0.22000
7938887;-0.24000
7941664;-0.24500
7944442;-0.23000
7947220;-0.22500
7949998;-0.23500
7952776;-0.24000
7955553;-0.24500
7958331;-0.25500
7961109;-0.24000
7963887;-0.21500
7966664;-0.21000
7969442;-0.24000
7972220;-0.27000
7974998;-0.29500
7977776;-0.31500
7980553;-0.31000
7983331;-0.31500
7986109;-0.34000
7988887;-0.34500
7991664;-0.35500
7994442;-0.34500
7997220;-0.33500
7999998;-0.33000
8002776;-0.33500
8005553;-0.34000
8008331;-0.34500
8011109;-0.34000
8013887;-0.34000
8016664;-0.34000
8019442;-0.34500
8022220;-0.35000
8024998;-0.34500
8027776;-0.34500
8030553;-0.35000
8033331;-0.34500
8036109;-0.35500
8038887;-0.36000
8041664;-0.35500
8044442;-0.36500
8047220;-0.36000
8049998;-0.34500
8052776;-0.37000
8055553;-0.39000
8058331;-0.42000
8061109;-0.44000
8063887;-0.46000
8066664;-0.46500
8069442;-0.51500
8072220;-0.56000
8074998;-0.52000
8077776;-0.41500
8080553;-0.30500
8083331;-0.16000
8086109;0.01500
8088887;0.24500
8091664;0.49500
8094442;0.71000
8097220;0.84500
8099998;0.88500
8102776;0.79000
8105553;0.58000
8108331;0.30500
8111109;0.03000
8113887;-0.14500
8116664;-0.27000
8119442;-0.37500
8122220;-0.45500
8124998;-0.50500
8127776;-0.53000
8130553;-0.50500
8133331;-0.47500
8136109;-0.44500
8138887;-0.43000
8141664;-0.42000
8144442;-0.43000
8147220;-0.40500
8149998;-0.40000
8152775;-0.39500
8155553;-0.41500
8158331;-0.42500
8161109;-0.42000
8163887;-0.41000
8166664;-0.40500
8169442;-0.41500
8172220;-0.41500
8174998;-0.42500
8177775;-0.40500
8180553;-0.39000
8183331;-0.39000
8186109;-0.39500
8188887;-0.40000
8191664;-0.40500
8194442;-0.40500
8197220;-0.38000
8199998;-0.38500
8202775;-0.40000
8205553;-0.40000
8208331;-0.40500
8211109;-0.40000
8213887;-0.39000
8216664;-0.40500
8219442;-0.40000
8222220;-0.41000
8224998;-0.41500
8227775;-0.42000
8230553;-0.39500
8233331;-0.39000
8236109;-0.41000
8238887;-0.40500
8241664;-0.42500
8244442;-0.41500
8247220;-0.40500
8249998;-0.40000
8252775;-0.40500
8255553;-0.40500
8258331;-0.41500
8261109;-0.41000
8263887;-0.40500
8266664;-0.41000
8269442;-0.40500
8272220;-0.41000
8274998;-0.42000
8277775;-0.40500
8280553;-0.40000
8283331;-0.40000
8286109;-0.40500
8288887;-0.40000
8291664;-0.40500
8294442;-0.40000
8297220;-0.41500
8299998;-0.39500
8302775;-0.39500
8305553;-0.40000
8308331;-0.41500
8311109;-0.40500
8313887;-0.39000
8316664;-0.39000
8319442;-0.39000
8322220;-0.41000
8324998;-0.42000
8327775;-0.42000
8330553;-0.41500
8333331;-0.40500
8336109;-0.40000
8338887;-0.40500
8341664;-0.41000
8344442;-0.41500
8347220;-0.41000
8349998;-0.40500
8352775;-0.41500
8355553;-0.41500
8358331;-0.43500
8361109;-0.43500
8363887;-0.43500
8366664;-0.44500
8369442;-0.44000
8372220;-0.45000
8374998;-0.46000
8377775;-0.44500
8380553;-0.44000
8383331;-0.43500
8386109;-0.44500
8388887;-0.43500
8391664;-0.44500
8394442;-0.43000
8397220;-0.42000
8399998;-0.41000
8402775;-0.40000
8405553;-0.39500
8408331;-0.41000
8411109;-0.38000
8413887;-0.35500
8416664;-0.34000
8419442;-0.33000
8422220;-0.33000
8424998;-0.33000
8427775;-0.31500
8430553;-0.32000
8433331;-0.28500
8436109;-0.29500
8438887;-0.29500
8441664;-0.30000
8444442;-0.29500
8447220;-0.29000
8449998;-0.27500
8452775;-0.28000
8455553;-0.28500
8458331;-0.30000
8461109;-0.29000
8463887;-0.27000
8466664;-0.27500
8469442;-0.27000
8472220;-0.27000
8474998;-0.28500
8477775;-0.28000
8480553;-0.27000
8483331;-0.26500
8486109;-0.26500
8488887;-0.27500
8491664;-0.28500
8494442;-0.28000
8497220;-0.28000
8499998;-0.27000
8502775;-0.28500
8505553;-0.29000
8508331;-0.29500
8511109;-0.28000
8513887;-0.26500
8516664;-0.27000
8519442;-0.28000
8522220;-0.28000
8524998;-0.28000
8527775;-0.27500
8530553;-0.27000
8533331;-0.26500
8536109;-0.28000
8538886;-0.28500
8541664;-0.29000
8544442;-0.28500
8547220;-0.28500
8549998;-0.28000
8552775;-0.27000
8555553;-0.29500
8558331;-0.31000
8561109;-0.29000
8563886;-0.28500
8566664;-0.28500
8569442;-0.28000
8572220;-0.29500
8574998;-0.29500
8577775;-0.29500
8580553;-0.28500
8583331;-0.28500
8586109;-0.28000
8588886;-0.29500
8591664;-0.30000
8594442;-0.30000
8597220;-0.28500
8599998;-0.28500
8602775;-0.27500
8605553;-0.29500
8608331;-0.30000
8611109;-0.29000
8613886;-0.29000
8616664;-0.27500
8619442;-0.29000
8622220;-0.30500
8624998;-0.30000
8627775;-0.29500
8630553;-0.29000
8633331;-0.28000
8636109;-0.28000
8638886;-0.28500
8641664;-0.29500
8644442;-0.29500
8647220;-0.29000
8649998;-0.28500
8652775;-0.28500
8655553;-0.29000
8658331;-0.30000
8661109;-0.30500
8663886;-0.29000
8666664;-0.28000
8669442;-0.28000
8672220;-0.28500
8674998;-0.29500
8677775;-0.28000
8680553;-0.27500
8683331;-0.27000
8686109;-0.27000
8688886;-0.27500
8691664;-0.29500
8694442;-0.29000
8697220;-0.28000
8699998;-0.27000
8702775;-0.27000
8705553;-0.28000
8708331;-0.28500
8711109;-0.28000
8713886;-0.26500
8716664;-0.26500
8719442;-0.27500
8722220;-0.28500
8724998;-0.28500
8727775;-0.27500
8730553;-0.26000
8733331;-0.24000
8736109;-0.23000
8738886;-0.22500
8741664;-0.22000
8744442;-0.22000
8747220;-0.21000
8749998;-0.20000
8752775;-0.20500
8755553;-0.20000
8758331;-0.19500
8761109;-0.18000
8763886;-0.17500
8766664;-0.17500
8769442;-0.18000
8772220;-0.18500
8774998;-0.20500
8777775;-0.19000
8780553;-0.18500
8783331;-0.19000
8786109;-0.18500
8788886;-0.19000
8791664;-0.21000
8794442;-0.21000
8797220;-0.20000
8799998;-0.19500
8802775;-0.16500
8805553;-0.17000
8808331;-0.17500
8811109;-0.19500
8813886;-0.21500
8816664;-0.22500
8819442;-0.24000
8822220;-0.26000
8824998;-0.29000
8827775;-0.29500
8830553;-0.29000
8833331;-0.29000
8836109;-0.29000
8838886;-0.30000
8841664;-0.30000
8844442;-0.29000
8847220;-0.27500
8849998;-0.29000
8852775;-0.29000
8855553;-0.32000
8858331;-0.31000
8861109;-0.31000
8863886;-0.30500
8866664;-0.29500
8869442;-0.29500
8872220;-0.31000
8874998;-0.31000
8877775;-0.30500
8880553;-0.30000
8883331;-0.29000
8886109;-0.30500
8888886;-0.30500
8891664;-0.31500
8894442;-0.33000
8897220;-0.33500
8899998;-0.37500
8902775;-0.39500
8905553;-0.42500
8908331;-0.41500
8911109;-0.42500
8913886;-0.46000
8916664;-0.50500
8919442;-0.51000
8922220;-0.48000
8924998;-0.38000
8927775;-0.25000
8930553;-0.13500
8933331;0.02000
8936109;0.22000
8938886;0.46500
8941664;0.69000
8944442;0.87000
8947220;0.94000
8949997;0.85000
8952775;0.57000
8955553;0.16500
8958331;-0.19000
8961109;-0.38000
8963886;-0.43000
8966664;-0.40500
8969442;-0.36500
8972220;-0.34000
8974997;-0.34000
8977775;-0.34000
8980553;-0.32500
8983331;-0.32500
8986109;-0.32500
8988886;-0.34000
8991664;-0.34500
8994442;-0.34500
8997220;-0.34000
8999997;-0.33000
9002775;-0.32500
9005553;-0.33500
9008331;-0.35000
9011109;-0.33500
9013886;-0.32000
9016664;-0.32500
9019442;-0.33500
9022220;-0.34500
9024997;-0.35000
9027775;-0.34000
9030553;-0.33500
9033331;-0.32500
9036109;-0.33000
9038886;-0.34500
9041664;-0.35500
9044442;-0.35000
9047220;-0.33000
9049997;-0.32500
9052775;-0.32500
9055553;-0.33500
9058331;-0.34500
9061109;-0.34000
9063886;-0.32500
9066664;-0.33000
9069442;-0.32500
9072220;-0.33000
9074997;-0.34000
9077775;-0.33000
9080553;-0.33000
9083331;-0.32000
9086109;-0.32500
9088886;-0.33000
9091664;-0.32000
9094442;-0.34000
9097220;-0.32000
9099997;-0.31500
9102775;-0.32500
9105553;-0.32000
9108331;-0.34000
9111109;-0.33000
9113886;-0.31500
9116664;-0.32500
9119442;-0.32000
9122220;-0.33000
9124997;-0.34000
9127775;-0.32500
9130553;-0.32000
9133331;-0.31000
9136109;-0.32000
9138886;-0.32000
9141664;-0.34000
9144442;-0.32500
9147220;-0.32500
9149997;-0.31000
9152775;-0.32000
9155553;-0.32500
9158331;-0.33000
9161109;-0.33500
9163886;-0.32500
9166664;-0.31500
9169442;-0.32500
9172220;-0.32500
9174997;-0.33000
9177775;-0.32000
9180553;-0.32000
9183331;-0.31500
9186109;-0.32000
9188886;-0.33000
9191664;-0.34000
9194442;-0.34000
9197220;-0.31500
9199997;-0.33500
9202775;-0.33500
9205553;-0.33000
9208331;-0.34000
9211109;-0.34500
9213886;-0.32500
9216664;-0.32000
9219442;-0.32500
9222220;-0.33500
9224997;-0.34500
9227775;-0.34500
9230553;-0.33500
9233331;-0.31500
9236109;-0.32500
9238886;-0.33500
9241664;-0.34000
9244442;-0.32000
9247220;-0.31000
9249997;-0.29000
9252775;-0.28500
9255553;-0.28500
9258331;-0.27500
9261109;-0.27000
9263886;-0.25500
9266664;-0.23500
9269442;-0.23000
9272220;-0.23000
9274997;-0.23000
9277775;-0.22500
9280553;-0.21500
9283331;-0.21000
9286109;-0.21000
9288886;-0.22000
9291664;-0.23000
9294442;-0.22000
9297220;-0.22000
9299997;-0.21000
9302775;-0.21000
9305553;-0.23000
9308331;-0.22000
9311109;-0.22000
9313886;-0.21000
9316664;-0.21000
9319442;-0.22000
9322220;-0.22500
9324997;-0.22500
9327775;-0.22000
9330553;-0.21500
9333331;-0.20500
9336108;-0.21000
9338886;-0.22000
9341664;-0.23000
9344442;-0.22000
9347220;-0.22000
9349997;-0.21500
9352775;-0.21000
9355553;-0.21500
9358331;-0.23000
9361108;-0.23500
9363886;-0.23000
9366664;-0.21500
9369442;-0.21500
9372220;-0.22500
9374997;-0.24500
9377775;-0.23500
9380553;-0.23500
9383331;-0.23500
9386108;-0.23500
9388886;-0.24000
9391664;-0.25000
9394442;-0.25500
9397220;-0.25000
9399997;-0.24000
9402775;-0.25500
9405553;-0.26000
9408331;-0.26000
9411108;-0.25500
9413886;-0.25000
9416664;-0.24000
9419442;-0.25000
9422220;-0.24500
9424997;-0.25500
9427775;-0.26500
9430553;-0.25000
9433331;-0.24500
9436108;-0.24500
9438886;-0.24000
9441664;-0.26000
9444442;-0.26000
9447220;-0.25000
9449997;-0.25500
9452775;-0.24500
9455553;-0.26500
9458331;-0.27500
9461108;-0.28500
9463886;-0.26000
9466664;-0.26500
9469442;-0.26000
9472220;-0.24500
9474997;-0.26500
9477775;-0.25500
9480553;-0.25500
9483331;-0.24500
9486108;-0.24000
9488886;-0.25500
9491664;-0.26000
9494442;-0.26000
9497220;-0.25000
9499997;-0.25000
9502775;-0.24500
9505553;-0.25500
9508331;-0.26500
9511108;-0.25000
9513886;-0.25000
9516664;-0.24500
9519442;-0.24500
9522220;-0.25000
9524997;-0.26000
9527775;-0.25500
9530553;-0.25500
9533331;-0.23500
9536108;-0.24500
9538886;-0.24500
9541664;-0.26500
9544442;-0.25500
9547220;-0.25500
9549997;-0.23500
9552775;-0.23500
9555553;-0.22500
9558331;-0.22500
9561108;-0.21000
9563886;-0.19000
9566664;-0.18000
9569442;-0.17000
9572220;-0.18500
9574997;-0.19000
9577775;-0.19000
9580553;-0.17500
9583331;-0.16000
9586108;-0.16000
9588886;-0.16000
9591664;-0.16500
9594442;-0.15000
9597220;-0.13000
9599997;-0.12000
9602775;-0.12000
9605553;-0.15000
9608331;-0.14500
9611108;-0.15500
9613886;-0.14500
9616664;-0.15000
9619442;-0.15000
9622220;-0.16000
9624997;-0.18000
9627775;-0.17000
9630553;-0.16500
9633331;-0.16500
9636108;-0.16500
9638886;-0.16500
9641664;-0.15000
9644442;-0.13500
9647220;-0.14500
9649997;-0.16000
9652775;-0.19000
9655553;-0.21500
9658331;-0.22500
9661108;-0.24500
9663886;-0.24000
9666664;-0.24500
9669442;-0.24000
9672220;-0.26000
9674997;-0.28000
9677775;-0.26500
9680553;-0.25000
9683331;-0.23500
9686108;-0.25500
9688886;-0.26000
9691664;-0.27000
9694442;-0.26500
9697220;-0.25500
9699997;-0.26000
9702775;-0.25500
9705553;-0.27500
9708331;-0.27500
9711108;-0.26500
9713886;-0.27500
9716664;-0.27000
9719442;-0.27500
9722220;-0.28000
9724997;-0.28500
9727775;-0.28500
9730553;-0.28000
9733331;-0.27000
9736108;-0.29500
9738886;-0.33000
9741664;-0.38500
9744442;-0.40000
9747219;-0.41000
9749997;-0.42500
9752775;-0.47000
9755553;-0.47000
9758331;-0.39500
9761108;-0.28000
9763886;-0.15500
9766664;-0.01500
9769442;0.13500
9772219;0.33500
9774997;0.54000
9777775;0.70000
9780553;0.82000
9783331;0.88500
9786108;0.96000
9788886;1.01500
9791664;1.01000
9794442;0.90000
9797219;0.65500
9799997;0.30500
9802775;-0.04000
9805553;-0.27500
9808331;-0.40500
9811108;-0.42500
9813886;-0.39000
9816664;-0.33500
9819442;-0.30500
9822219;-0.30500
9824997;-0.31500
9827775;-0.31000
9830553;-0.29500
9833331;-0.29500
9836108;-0.30500
9838886;-0.31500
9841664;-0.32500
9844442;-0.31500
9847219;-0.31500
9849997;-0.31500
9852775;-0.30500
9855553;-0.31000
9858331;-0.32000
9861108;-0.31000
9863886;-0.31000
9866664;-0.30000
9869442;-0.31000
9872219;-0.31500
9874997;-0.32500
9877775;-0.32500
9880553;-0.30500
9883331;-0.30000
9886108;-0.30500
9888886;-0.31500
9891664;-0.33000
9894442;-0.32000
9897219;-0.30500
9899997;-0.30000
9902775;-0.31000
9905553;-0.31000
9908331;-0.32500
9911108;-0.31500
9913886;-0.30500
9916664;-0.30000
9919442;-0.30000
9922219;-0.30000
9924997;-0.31500
9927775;-0.30500
9930553;-0.29500
9933331;-0.29000
9936108;-0.28000
9938886;-0.30000
9941664;-0.30500
9944442;-0.30500
9947219;-0.30000
9949997;-0.29500
9952775;-0.30500
9955553;-0.30000
9958331;-0.31500
9961108;-0.31500
9963886;-0.30500
9966664;-0.30000
9969442;-0.29000
9972219;-0.30000
9974997;-0.31000
9977775;-0.31000
9980553;-0.30000
9983331;-0.30500
9986108;-0.30000
9988886;-0.30000
9991664;-0.31500
9994442;-0.30500
9997219;-0.31500
9999997;-0.31000
10002775;-0.30000
10005553;-0.31000
10008331;-0.31500
10011108;-0.32000
10013886;-0.31000
10016664;-0.29500
10019442;-0.29500
10022219;-0.31000
10024997;-0.31500
10027775;-0.30500
10030553;-0.30500
10033331;-0.30000
10036108;-0.30000
10038886;-0.31000
10041664;-0.32000
10044442;-0.31500
10047219;-0.30500
10049997;-0.31000
10052775;-0.31500
10055553;-0.31000
10058331;-0.32500
10061108;-0.30500
10063886;-0.31500
10066664;-0.29000
10069442;-0.28500
10072219;-0.28500
10074997;-0.29500
10077775;-0.26500
10080553;-0.26500
10083331;-0.24000
10086108;-0.24000
10088886;-0.24000
10091664;-0.23500
10094442;-0.23500
10097219;-0.22000
10099997;-0.20500
10102775;-0.21000
10105553;-0.21500
10108331;-0.22500
10111108;-0.21500
10113886;-0.21500
10116664;-0.21000
10119442;-0.21000
10122219;-0.23000
10124997;-0.24000
10127775;-0.24000
10130553;-0.22500
10133330;-0.21000
10136108;-0.22500
10138886;-0.22000
10141664;-0.24000
10144442;-0.23500
10147219;-0.22500
10149997;-0.21500
10152775;-0.22500
10155553;-0.22500
10158330;-0.24500
10161108;-0.23500
10163886;-0.22000
10166664;-0.22500
10169442;-0.23000
10172219;-0.23000
10174997;-0.24500
10177775;-0.25000
10180553;-0.24500
10183330;-0.23000
10186108;-0.23500
10188886;-0.22500
10191664;-0.25000
10194442;-0.24000
10197219;-0.24500
10199997;-0.24500
10202775;-0.24500
10205553;-0.25500
10208330;-0.27000
10211108;-0.26000
10213886;-0.26000
10216664;-0.26000
10219442;-0.26500
10222219;-0.27000
10224997;-0.27500
10227775;-0.28000
10230553;-0.27000
10233330;-0.26500
10236108;-0.27000
10238886;-0.28000
10241664;-0.29000
10244442;-0.28500
10247219;-0.27500
10249997;-0.27500
10252775;-0.28500
10255553;-0.29000
10258330;-0.28000
10261108;-0.29000
10263886;-0.28500
10266664;-0.28000
10269442;-0.28000
10272219;-0.30000
10274997;-0.30000
10277775;-0.30000
10280553;-0.30000
10283330;-0.28000
10286108;-0.30000
10288886;-0.30000
10291664;-0.30500
10294442;-0.29500
10297219;-0.29000
10299997;-0.28000
10302775;-0.28500
10305553;-0.30000
10308330;-0.31500
10311108;-0.31000
10313886;-0.29000
10316664;-0.28000
10319442;-0.29000
10322219;-0.30000
10324997;-0.30000
10327775;-0.29500
10330553;-0.28500
10333330;-0.27500
10336108;-0.27500
10338886;-0.29500
10341664;-0.29500
10344442;-0.29000
10347219;-0.28500
10349997;-0.28000
10352775;-0.29000
10355553;-0.30000
10358330;-0.29000
10361108;-0.28500
10363886;-0.27000
10366664;-0.24000
10369442;-0.24500
10372219;-0.24000
10374997;-0.23500
10377775;-0.24500
10380553;-0.24000
10383330;-0.23000
10386108;-0.22500
10388886;-0.22000
10391664;-0.21500
10394442;-0.21500
10397219;-0.20500
10399997;-0.18500
10402775;-0.19500
10405553;-0.21000
10408330;-0.22000
10411108;-0.22500
10413886;-0.21500
10416664;-0.20500
10419442;-0.22000
10422219;-0.22000
10424997;-0.25000
10427775;-0.25000
10430553;-0.24000
10433330;-0.21500
10436108;-0.20000
10438886;-0.20500
10441664;-0.24000
10444442;-0.25500
10447219;-0.28000
10449997;-0.27500
10452775;-0.28500
10455553;-0.31000
10458330;-0.32500
10461108;-0.35000
10463886;-0.34500
10466664;-0.33000
10469442;-0.32000
10472219;-0.32000
10474997;-0.33000
10477775;-0.33000
10480553;-0.33000
10483330;-0.32500
10486108;-0.33500
10488886;-0.34000
10491664;-0.35000
10494442;-0.36000
10497219;-0.35000
10499997;-0.34500
10502775;-0.34000
10505553;-0.34000
10508330;-0.35000
10511108;-0.34500
10513886;-0.35000
10516664;-0.35000
10519441;-0.33000
10522219;-0.35000
10524997;-0.36500
10527775;-0.36000
10530553;-0.35000
10533330;-0.34500
10536108;-0.38000
10538886;-0.42500
10541664;-0.46500
10544441;-0.47000
10547219;-0.48500
10549997;-0.52500
10552775;-0.55000
10555553;-0.51000
10558330;-0.42000
10561108;-0.27500
10563886;-0.11500
10566664;0.08500
10569441;0.34500
10572219;0.58500
10574997;0.75000
10577775;0.78500
10580553;0.64500
10583330;0.33000
10586108;-0.03500
10588886;-0.32000
10591664;-0.46500
10594441;-0.50000
10597219;-0.45000
10599997;-0.41000
10602775;-0.38500
10605553;-0.40000
10608330;-0.40000
10611108;-0.40500
10613886;-0.38500
10616664;-0.38000
10619441;-0.37500
10622219;-0.39500
10624997;-0.40000
10627775;-0.39000
10630553;-0.38500
10633330;-0.37000
10636108;-0.38000
10638886;-0.39500
10641664;-0.39500
10644441;-0.40000
10647219;-0.39500
10649997;-0.40000
10652775;-0.38000
10655553;-0.39000
10658330;-0.40000
10661108;-0.39500
10663886;-0.39000
10666664;-0.38500
10669441;-0.39000
10672219;-0.40500
10674997;-0.40500
10677775;-0.39500
10680553;-0.39000
10683330;-0.39500
10686108;-0.39000
10688886;-0.39000
10691664;-0.40000
10694441;-0.39500
10697219;-0.39500
10699997;-0.39500
10702775;-0.39000
10705553;-0.40500
10708330;-0.41000
10711108;-0.40500
10713886;-0.39000
10716664;-0.38000
10719441;-0.40000
10722219;-0.40000
10724997;-0.41000
10727775;-0.40500
10730553;-0.39500
10733330;-0.38000
10736108;-0.37000
10738886;-0.39500
10741664;-0.40000
10744441;-0.39000
10747219;-0.39000
10749997;-0.37000
10752775;-0.38000
10755553;-0.40000
10758330;-0.40000
10761108;-0.41000
10763886;-0.39500
10766664;-0.38000
10769441;-0.39000
10772219;-0.39000
10774997;-0.40500
10777775;-0.40000
10780553;-0.40000
10783330;-0.40000
10786108;-0.38500
10788886;-0.40500
10791664;-0.41500
10794441;-0.41000
10797219;-0.39500
10799997;-0.39000
10802775;-0.39500
10805553;-0.40500
10808330;-0.42000
10811108;-0.41000
10813886;-0.41500
10816664;-0.41500
10819441;-0.41500
10822219;-0.42500
10824997;-0.43000
10827775;-0.43500
10830553;-0.42500
10833330;-0.41500
10836108;-0.42500
10838886;-0.43500
10841664;-0.43500
10844441;-0.42500
10847219;-0.43000
10849997;-0.41500
10852775;-0.41500
10855553;-0.40500
10858330;-0.39500
10861108;-0.38000
10863886;-0.36500
10866664;-0.34500
10869441;-0.33500
10872219;-0.33000
10874997;-0.33500
10877775;-0.32500
10880553;-0.32000
10883330;-0.31000
10886108;-0.29000
10888886;-0.29000
10891664;-0.30000
10894441;-0.30000
10897219;-0.29500
10899997;-0.29000
10902775;-0.29000
10905553;-0.28500
10908330;-0.30000
10911108;-0.29500
10913886;-0.27500
10916664;-0.27500
10919441;-0.28500
10922219;-0.31000
10924997;-0.31500
10927775;-0.32000
10930552;-0.30000
10933330;-0.29500
10936108;-0.30000
10938886;-0.30500
10941664;-0.31500
10944441;-0.30500
10947219;-0.30500
10949997;-0.30500
10952775;-0.30500
10955552;-0.31500
10958330;-0.33000
10961108;-0.33000
10963886;-0.31000
10966664;-0.30000
10969441;-0.31000
10972219;-0.32000
10974997;-0.34000
10977775;-0.32000
10980552;-0.32000
10983330;-0.30500
10986108;-0.31500
10988886;-0.31500
10991664;-0.32000
10994441;-0.32500
10997219;-0.33000
10999997;-0.32000
11002775;-0.32500
11005552;-0.33000
11008330;-0.34000
11011108;-0.33500
11013886;-0.34000
11016664;-0.33000
11019441;-0.33000
11022219;-0.34000
11024997;-0.35500
11027775;-0.35000
11030552;-0.34000
11033330;-0.33500
11036108;-0.33500
11038886;-0.34000
11041664;-0.35000
11044441;-0.34000
11047219;-0.33000
11049997;-0.33500
11052775;-0.33500
11055552;-0.34000
11058330;-0.36000
11061108;-0.35000
11063886;-0.34500
11066664;-0.33500
11069441;-0.34000
11072219;-0.34500
11074997;-0.35500
11077775;-0.34000
11080552;-0.34000
11083330;-0.33500
11086108;-0.33000
11088886;-0.34500
11091664;-0.35000
11094441;-0.34000
11097219;-0.33000
11099997;-0.33000
11102775;-0.32500
11105552;-0.34500
11108330;-0.35500
11111108;-0.34500
11113886;-0.33500
11116664;-0.32500
11119441;-0.33000
11122219;-0.34000
11124997;-0.36500
11127775;-0.34500
11130552;-0.31500
11133330;-0.30000
11136108;-0.29500
11138886;-0.29500
11141664;-0.31000
11144441;-0.30500
11147219;-0.28000
11149997;-0.28000
11152775;-0.25500
11155552;-0.25500
11158330;-0.26000
11161108;-0.24500
11163886;-0.23500
11166664;-0.25000
11169441;-0.24500
11172219;-0.26000
11174997;-0.26500
11177775;-0.26000
11180552;-0.25500
11183330;-0.24500
11186108;-0.24500
11188886;-0.24000
11191664;-0.27000
11194441;-0.27500
11197219;-0.27000
11199997;-0.24500
11202775;-0.22500
11205552;-0.24000
11208330;-0.25500
11211108;-0.29000
11213886;-0.31500
11216664;-0.31500
11219441;-0.34000
11222219;-0.35000
11224997;-0.36500
11227775;-0.36000
11230552;-0.35500
11233330;-0.34000
11236108;-0.35000
11238886;-0.36500
11241664;-0.37500
11244441;-0.36500
11247219;-0.37000
11249997;-0.37000
11252775;-0.36000
11255552;-0.36000
11258330;-0.37500
11261108;-0.36500
11263886;-0.36000
11266664;-0.35000
11269441;-0.35000
11272219;-0.35000
11274997;-0.36000
11277775;-0.36000
11280552;-0.35000
11283330;-0.34500
11286108;-0.35000
11288886;-0.36000
11291664;-0.37000
11294441;-0.39000
11297219;-0.42500
11299997;-0.45000
11302775;-0.47500
11305552;-0.50500
11308330;-0.54500
11311108;-0.56500
11313886;-0.51000
11316663;-0.39500
11319441;-0.24500
11322219;-0.09000
11324997;0.13000
11327775;0.41500
11330552;0.66500
11333330;0.80500
11336108;0.78500
11338886;0.56500
11341663;0.18500
11344441;-0.18500
11347219;-0.41000
11349997;-0.46500
11352775;-0.45500
11355552;-0.43500
11358330;-0.42000
11361108;-0.40500
11363886;-0.39500
11366663;-0.39500
11369441;-0.39000
11372219;-0.39000
11374997;-0.40500
11377775;-0.40000
11380552;-0.40500
11383330;-0.39000
11386108;-0.39500
11388886;-0.39500
11391663;-0.41000
11394441;-0.40500
11397219;-0.39500
11399997;-0.39000
11402775;-0.39500
11405552;-0.39500
11408330;-0.39000
11411108;-0.39500
11413886;-0.39500
11416663;-0.37500
11419441;-0.40000
11422219;-0.38000
11424997;-0.40500
11427775;-0.40000
11430552;-0.39000
11433330;-0.39000
11436108;-0.38500
11438886;-0.39500
11441663;-0.40500
11444441;-0.40500
11447219;-0.39500
11449997;-0.39000
11452775;-0.39000
11455552;-0.40000
11458330;-0.40500
11461108;-0.41000
11463886;-0.39500
11466663;-0.39000
11469441;-0.39000
11472219;-0.40000
11474997;-0.40000
11477775;-0.40500
11480552;-0.39000
11483330;-0.39500
11486108;-0.39500
11488886;-0.40500
11491663;-0.40500
11494441;-0.40500
11497219;-0.39500
11499997;-0.38500
11502775;-0.38000
11505552;-0.40500
11508330;-0.40500
11511108;-0.40500
11513886;-0.39000
11516663;-0.38500
11519441;-0.39000
11522219;-0.40500
11524997;-0.40500
11527775;-0.41000
11530552;-0.39000
11533330;-0.37500
11536108;-0.39500
11538886;-0.40000
11541663;-0.39500
11544441;-0.40500
11547219;-0.39000
11549997;-0.38500
11552775;-0.39500
11555552;-0.40500
11558330;-0.40500
11561108;-0.41500
11563886;-0.40500
11566663;-0.40000
11569441;-0.42000
11572219;-0.43000
11574997;-0.44000
11577775;-0.43500
11580552;-0.43000
11583330;-0.42000
11586108;-0.42500
11588886;-0.43000
11591663;-0.44500
11594441;-0.43000
11597219;-0.41500
11599997;-0.41500
11602775;-0.41500
11605552;-0.42500
11608330;-0.42000
11611108;-0.41500
11613886;-0.39500
11616663;-0.39500
11619441;-0.38500
11622219;-0.37000
11624997;-0.37000
11627775;-0.35500
11630552;-0.34000
11633330;-0.33000
11636108;-0.32500
11638886;-0.30000
11641663;-0.31500
11644441;-0.30000
11647219;-0.30000
11649997;-0.28500
11652775;-0.27500
11655552;-0.27500
11658330;-0.29500
11661108;-0.28500
11663886;-0.29000
11666663;-0.28000
11669441;-0.27000
11672219;-0.28500
11674997;-0.29500
11677775;-0.28500
11680552;-0.27500
11683330;-0.26500
11686108;-0.26500
11688886;-0.27000
11691663;-0.29000
11694441;-0.28500
11697219;-0.27500
11699997;-0.27000
11702775;-0.28000
11705552;-0.28500
11708330;-0.31000
11711108;-0.29500
11713886;-0.28500
11716663;-0.28500
11719441;-0.28000
11722219;-0.29000
11724997;-0.29500
11727774;-0.29500
11730552;-0.29000
11733330;-0.27500
11736108;-0.28500
11738886;-0.30000
11741663;-0.31000
11744441;-0.30000
11747219;-0.29500
11749997;-0.28500
11752774;-0.29000
11755552;-0.30000
11758330;-0.31000
11761108;-0.30500
11763886;-0.29500
11766663;-0.29500
11769441;-0.29000
11772219;-0.30500
11774997;-0.32000
11777774;-0.31000
11780552;-0.30000
11783330;-0.30500
11786108;-0.30500
11788886;-0.31500
11791663;-0.32000
11794441;-0.33000
11797219;-0.31000
11799997;-0.31500
11802774;-0.30500
11805552;-0.31500
11808330;-0.32000
11811108;-0.33000
11813886;-0.31500
11816663;-0.31000
11819441;-0.31500
11822219;-0.32000
11824997;-0.34500
11827774;-0.33000
11830552;-0.31500
11833330;-0.31500
11836108;-0.31500
11838886;-0.31500
11841663;-0.32500
11844441;-0.32000
11847219;-0.31000
11849997;-0.31000
11852774;-0.30500
11855552;-0.32000
11858330;-0.32500
11861108;-0.31000
11863886;-0.31000
11866663;-0.31000
11869441;-0.32000
11872219;-0.32000
11874997;-0.33500
11877774;-0.34500
11880552;-0.32500
11883330;-0.32000
11886108;-0.31500
11888886;-0.31500
11891663;-0.34000
11894441;-0.32500
11897219;-0.32000
11899997;-0.30500
11902774;-0.30500
11905552;-0.32500
11908330;-0.33000
11911108;-0.31500
11913886;-0.29500
11916663;-0.29000
11919441;-0.26500
11922219;-0.26500
11924997;-0.27000
11927774;-0.26000
11930552;-0.24500
11933330;-0.23500
11936108;-0.24500
11938886;-0.24500
11941663;-0.25500
11944441;-0.24500
11947219;-0.23000
11949997;-0.20500
11952774;-0.20500
11955552;-0.21500
11958330;-0.22000
11961108;-0.22500
11963886;-0.22500
11966663;-0.22000
11969441;-0.22500
11972219;-0.24500
11974997;-0.25000
11977774;-0.24000
11980552;-0.24000
11983330;-0.23000
11986108;-0.23000
11988886;-0.20500
11991663;-0.21500
11994441;-0.20000
11997219;-0.22500
11999997;-0.23000
12002774;-0.26500
12005552;-0.26000
12008330;-0.29500
12011108;-0.30500
12013886;-0.31500
12016663;-0.30500
12019441;-0.32000
12022219;-0.33000
12024997;-0.35000
12027774;-0.34500
12030552;-0.33500
12033330;-0.33000
12036108;-0.33000
12038886;-0.34500
12041663;-0.35500
12044441;-0.34500
12047219;-0.34000
12049997;-0.34000
12052774;-0.34500
12055552;-0.35500
12058330;-0.36500
12061108;-0.35500
12063886;-0.34500
12066663;-0.34500
12069441;-0.35000
12072219;-0.35500
12074997;-0.35500
12077774;-0.35500
12080552;-0.34500
12083330;-0.33500
12086108;-0.34500
12088886;-0.37000
12091663;-0.41500
12094441;-0.46000
12097219;-0.47500
12099997;-0.48500
12102774;-0.52000
12105552;-0.55000
12108330;-0.54500
12111108;-0.45000
12113885;-0.30500
12116663;-0.15000
12119441;0.02500
12122219;0.25000
12124997;0.51500
12127774;0.75000
12130552;0.88500
12133330;0.89000
12136108;0.71500
12138885;0.39500
12141663;0.00000
12144441;-0.30500
12147219;-0.46500
12149997;-0.48500
12152774;-0.48000
12155552;-0.44500
12158330;-0.41000
12161108;-0.37500
12163885;-0.37500
12166663;-0.38000
12169441;-0.38500
12172219;-0.38500
12174997;-0.39000
12177774;-0.39500
12180552;-0.38500
12183330;-0.38500
12186108;-0.39000
12188885;-0.40500
12191663;-0.40000
12194441;-0.41000
12197219;-0.39500
12199997;-0.39000
12202774;-0.40000
12205552;-0.40000
12208330;-0.40000
12211108;-0.39500
12213885;-0.39500
12216663;-0.38500
12219441;-0.39500
12222219;-0.39500
12224997;-0.40500
12227774;-0.40500
12230552;-0.39500
12233330;-0.38000
12236108;-0.38000
12238885;-0.39000
12241663;-0.40000
12244441;-0.39500
12247219;-0.39000
12249997;-0.37500
12252774;-0.37500
12255552;-0.39000
12258330;-0.40000
12261108;-0.40000
12263885;-0.39000
12266663;-0.37500
12269441;-0.39000
12272219;-0.39500
12274997;-0.39000
12277774;-0.40000
12280552;-0.40000
12283330;-0.38500
12286108;-0.37500
12288885;-0.39000
12291663;-0.41000
12294441;-0.40500
12297219;-0.38500
12299997;-0.38500
12302774;-0.38500
12305552;-0.39500
12308330;-0.40500
12311108;-0.39000
12313885;-0.38000
12316663;-0.39000
12319441;-0.39000
12322219;-0.39500
12324997;-0.40500
12327774;-0.40500
12330552;-0.40000
12333330;-0.38500
12336108;-0.38500
12338885;-0.39000
12341663;-0.40000
12344441;-0.40000
12347219;-0.39000
12349997;-0.36500
12352774;-0.38000
12355552;-0.39000
12358330;-0.40000
12361108;-0.40000
12363885;-0.40000
12366663;-0.39500
12369441;-0.39000
12372219;-0.40000
12374997;-0.40500
12377774;-0.40500
12380552;-0.40500
12383330;-0.39500
12386108;-0.39500
12388885;-0.40000
12391663;-0.41500
12394441;-0.40000
12397219;-0.39500
12399997;-0.39500
12402774;-0.39000
12405552;-0.39000
12408330;-0.39500
12411108;-0.39500
12413885;-0.40000
12416663;-0.38000
12419441;-0.38000
12422219;-0.37000
12424997;-0.38500
12427774;-0.37500
12430552;-0.36000
12433330;-0.35500
12436108;-0.35000
12438885;-0.34000
12441663;-0.34500
12444441;-0.33500
12447219;-0.31500
12449997;-0.31000
12452774;-0.31000
12455552;-0.31000
12458330;-0.32500
12461108;-0.31500
12463885;-0.30500
12466663;-0.29500
12469441;-0.29000
12472219;-0.29500
12474997;-0.30000
12477774;-0.31000
12480552;-0.29500
12483330;-0.28500
12486108;-0.29000
12488885;-0.29500
12491663;-0.30000
12494441;-0.29000
12497219;-0.28500
12499996;-0.28500
12502774;-0.27000
12505552;-0.29000
12508330;-0.29500
12511108;-0.30500
12513885;-0.30500
12516663;-0.29000
12519441;-0.28000
12522219;-0.30000
12524996;-0.32000
12527774;-0.31500
12530552;-0.30000
12533330;-0.30000
12536108;-0.30000
12538885;-0.31000
12541663;-0.31500
12544441;-0.31500
12547219;-0.32000
12549996;-0.31000
12552774;-0.32500
12555552;-0.32500
12558330;-0.33500
12561108;-0.33000
12563885;-0.32000
12566663;-0.31500
12569441;-0.32000
12572219;-0.32000
12574996;-0.33000
12577774;-0.33500
12580552;-0.32500
12583330;-0.32500
12586108;-0.32000
12588885;-0.33500
12591663;-0.35000
12594441;-0.35000
12597219;-0.33500
12599996;-0.34000
12602774;-0.34000
12605552;-0.34500
12608330;-0.35000
12611108;-0.36000
12613885;-0.35000
12616663;-0.35000
12619441;-0.33000
12622219;-0.34000
12624996;-0.35500
12627774;-0.34500
12630552;-0.33500
12633330;-0.33500
12636108;-0.33000
12638885;-0.33500
12641663;-0.35000
12644441;-0.35000
12647219;-0.34000
12649996;-0.34500
12652774;-0.33000
12655552;-0.33500
12658330;-0.34500
12661108;-0.34500
12663885;-0.34000
12666663;-0.33000
12669441;-0.33000
12672219;-0.35000
12674996;-0.35500
12677774;-0.35000
12680552;-0.35500
12683330;-0.34000
12686108;-0.34500
12688885;-0.35000
12691663;-0.36500
12694441;-0.36500
12697219;-0.34500
12699996;-0.34500
12702774;-0.33000
12705552;-0.34500
12708330;-0.35000
12711108;-0.34500
12713885;-0.33000
12716663;-0.32500
12719441;-0.32500
12722219;-0.34000
12724996;-0.33000
12727774;-0.31500
12730552;-0.30000
12733330;-0.27500
12736108;-0.27500
12738885;-0.27500
12741663;-0.29000
12744441;-0.28500
12747219;-0.26500
12749996;-0.25500
12752774;-0.25000
12755552;-0.25000
12758330;-0.25500
12761108;-0.24000
12763885;-0.24000
12766663;-0.24000
12769441;-0.23500
12772219;-0.25000
12774996;-0.26500
12777774;-0.27000
12780552;-0.26000
12783330;-0.25000
12786108;-0.25500
12788885;-0.27500
12791663;-0.28500
12794441;-0.28000
12797219;-0.25000
12799996;-0.22500
12802774;-0.21000
12805552;-0.20000
12808330;-0.23500
12811108;-0.26500
12813885;-0.29000
12816663;-0.29000
12819441;-0.29000
12822219;-0.33000
12824996;-0.36000
12827774;-0.37000
12830552;-0.37000
12833330;-0.36000
12836108;-0.36500
12838885;-0.37500
12841663;-0.37500
12844441;-0.37000
12847219;-0.37000
12849996;-0.36500
12852774;-0.36000
12855552;-0.38500
12858330;-0.39500
12861108;-0.38500
12863885;-0.37500
12866663;-0.36500
12869441;-0.36000
12872219;-0.37500
12874996;-0.39000
12877774;-0.38500
12880552;-0.38000
12883330;-0.37500
12886108;-0.37500
12888885;-0.39000
12891663;-0.41500
12894441;-0.43000
12897219;-0.46500
12899996;-0.48500
12902774;-0.50500
12905552;-0.54000
12908330;-0.58000
12911107;-0.60000
12913885;-0.56500
12916663;-0.46000
12919441;-0.32500
12922219;-0.18500
12924996;0.00000
12927774;0.28000
12930552;0.54000
12933330;0.71500
12936107;0.77000
12938885;0.66500
12941663;0.39500
12944441;0.02500
12947219;-0.29000
12949996;-0.46500
12952774;-0.53000
12955552;-0.52500
12958330;-0.50500
12961107;-0.45500
12963885;-0.42500
12966663;-0.41500
12969441;-0.42500
12972219;-0.42500
12974996;-0.42500
12977774;-0.42500
12980552;-0.41000
12983330;-0.41000
12986107;-0.41500
12988885;-0.42500
12991663;-0.43500
12994441;-0.45000
12997219;-0.43500
12999996;-0.43500
13002774;-0.42500
13005552;-0.43500
13008330;-0.44000
13011107;-0.43000
13013885;-0.42500
13016663;-0.41500
13019441;-0.42000
13022219;-0.43000
13024996;-0.43500
13027774;-0.43500
13030552;-0.42000
13033330;-0.41000
13036107;-0.42500
13038885;-0.42500
13041663;-0.44500
13044441;-0.43500
13047219;-0.43500
13049996;-0.42000
13052774;-0.43000
13055552;-0.43000
13058330;-0.44500
13061107;-0.45500
13063885;-0.43500
13066663;-0.42500
13069441;-0.42500
13072219;-0.43000
13074996;-0.44000
13077774;-0.43000
13080552;-0.42500
13083330;-0.42500
13086107;-0.43000
13088885;-0.42500
13091663;-0.43000
13094441;-0.43500
13097219;-0.43000
13099996;-0.43000
13102774;-0.42500
13105552;-0.43000
13108330;-0.42500
13111107;-0.43500
13113885;-0.44000
13116663;-0.44000
13119441;-0.44000
13122219;-0.45000
13124996;-0.46500
13127774;-0.46000
13130552;-0.44500
13133330;-0.43000
13136107;-0.42500
13138885;-0.42500
13141663;-0.43500
13144441;-0.42500
13147219;-0.42500
13149996;-0.42000
13152774;-0.42000
13155552;-0.42500
13158330;-0.43500
13161107;-0.43000
13163885;-0.41500
13166663;-0.41500
13169441;-0.42000
13172219;-0.42000
13174996;-0.44000
13177774;-0.43000
13180552;-0.42500
13183330;-0.41500
13186107;-0.41500
13188885;-0.43000
13191663;-0.43500
13194441;-0.44500
13197219;-0.43500
13199996;-0.44000
13202774;-0.44500
13205552;-0.45000
13208330;-0.46000
13211107;-0.45000
13213885;-0.45500
13216663;-0.44000
13219441;-0.45000
13222219;-0.45500
13224996;-0.47500
13227774;-0.45000
13230552;-0.44500
13233330;-0.44000
13236107;-0.42000
13238885;-0.42500
13241663;-0.43000
13244441;-0.41500
13247219;-0.40000
13249996;-0.40000
13252774;-0.38000
13255552;-0.39500
13258330;-0.40500
13261107;-0.39500
13263885;-0.36500
13266663;-0.35500
13269441;-0.35500
13272219;-0.35000
13274996;-0.36000
13277774;-0.35000
13280552;-0.34000
13283330;-0.34000
13286107;-0.34000
13288885;-0.34000
13291663;-0.36500
13294441;-0.37000
13297218;-0.36000
13299996;-0.34000
13302774;-0.35000
13305552;-0.35500
13308330;-0.34500
13311107;-0.35000
13313885;-0.34500
13316663;-0.34500
13319441;-0.35500
13322218;-0.37000
13324996;-0.37500
13327774;-0.37500
13330552;-0.35500
13333330;-0.35000
13336107;-0.35500
13338885;-0.36000
13341663;-0.37000
13344441;-0.36000
13347218;-0.35500
13349996;-0.34000
13352774;-0.34500
13355552;-0.35500
13358330;-0.37000
13361107;-0.37000
13363885;-0.36000
13366663;-0.35500
13369441;-0.35500
13372218;-0.37500
13374996;-0.38000
13377774;-0.37500
13380552;-0.36500
13383330;-0.37000
13386107;-0.36500
13388885;-0.37000
13391663;-0.39000
13394441;-0.38500
13397218;-0.38000
13399996;-0.36500
13402774;-0.35500
13405552;-0.37500
13408330;-0.39500
13411107;-0.39000
13413885;-0.39000
13416663;-0.38500
13419441;-0.38500
13422218;-0.39000
13424996;-0.40000
13427774;-0.39500
13430552;-0.39000
13433330;-0.38000
13436107;-0.38000
13438885;-0.38000
13441663;-0.38500
13444441;-0.40000
13447218;-0.39000
13449996;-0.38000
13452774;-0.38500
13455552;-0.38000
13458330;-0.40500
13461107;-0.39000
13463885;-0.39000
13466663;-0.38500
13469441;-0.39000
13472218;-0.40000
13474996;-0.41000
13477774;-0.41000
13480552;-0.38000
13483330;-0.39000
13486107;-0.36500
13488885;-0.39500
13491663;-0.40000
13494441;-0.39000
13497218;-0.38000
13499996;-0.38000
13502774;-0.37500
13505552;-0.40000
13508330;-0.39500
13511107;-0.39000
13513885;-0.39500
13516663;-0.37500
13519441;-0.37000
13522218;-0.37500
13524996;-0.38500
13527774;-0.36500
13530552;-0.34500
13533330;-0.32000
13536107;-0.30500
13538885;-0.32500
13541663;-0.32500
13544441;-0.33000
13547218;-0.31500
13549996;-0.30500
13552774;-0.30000
13555552;-0.30000
13558330;-0.29500
13561107;-0.29500
13563885;-0.28500
13566663;-0.28000
13569441;-0.29000
13572218;-0.29000
13574996;-0.30500
13577774;-0.30000
13580552;-0.30000
13583330;-0.29500
13586107;-0.30000
13588885;-0.31000
13591663;-0.32500
13594441;-0.32000
13597218;-0.31000
13599996;-0.31000
13602774;-0.31000
13605552;-0.31500
13608330;-0.30500
13611107;-0.29500
13613885;-0.30500
13616663;-0.30000
13619441;-0.32500
13622218;-0.34000
13624996;-0.37500
13627774;-0.37500
13630552;-0.38500
13633330;-0.39000
13636107;-0.40000
13638885;-0.41000
13641663;-0.41500
13644441;-0.41500
13647218;-0.41500
13649996;-0.41500
13652774;-0.42000
13655552;-0.43500
13658330;-0.43500
13661107;-0.43000
13663885;-0.42500
13666663;-0.40500
13669441;-0.41500
13672218;-0.42000
13674996;-0.44000
13677774;-0.42500
13680552;-0.43000
13683330;-0.41500
13686107;-0.42000
13688885;-0.42500
13691663;-0.43000
13694441;-0.42500
13697218;-0.43000
13699996;-0.44000
13702774;-0.48000
13705552;-0.50500
13708329;-0.53500
13711107;-0.56000
13713885;-0.60000
13716663;-0.63000
13719441;-0.65500
13722218;-0.63500
13724996;-0.60500
13727774;-0.51000
13730552;-0.40000
13733329;-0.30500
13736107;-0.19000
13738885;-0.04000
13741663;0.16500
13744441;0.41000
13747218;0.62000
13749996;0.76000
13752774;0.80000
13755552;0.72000
13758329;0.42500
13761107;0.05000
13763885;-0.28500
13766663;-0.45000
13769441;-0.52500
13772218;-0.52500
13774996;-0.50000
13777774;-0.47000
13780552;-0.46500
13783329;-0.45000
13786107;-0.45500
13788885;-0.46000
13791663;-0.48000
13794441;-0.47000
13797218;-0.46500
13799996;-0.46000
13802774;-0.45000
13805552;-0.46000
13808329;-0.48000
13811107;-0.47000
13813885;-0.46000
13816663;-0.44500
13819441;-0.44500
13822218;-0.45500
13824996;-0.46000
13827774;-0.46500
13830552;-0.46000
13833329;-0.45500
13836107;-0.45500
13838885;-0.46500
13841663;-0.47500
13844441;-0.46500
13847218;-0.45000
13849996;-0.45500
13852774;-0.45000
13855552;-0.45000
13858329;-0.46000
13861107;-0.46000
13863885;-0.46000
13866663;-0.45000
13869441;-0.45500
13872218;-0.45500
13874996;-0.47500
13877774;-0.47500
13880552;-0.46000
13883329;-0.46000
13886107;-0.45000
13888885;-0.46000
13891663;-0.46000
13894441;-0.45500
13897218;-0.45000
13899996;-0.44500
13902774;-0.44500
13905552;-0.44500
13908329;-0.46500
13911107;-0.44500
13913885;-0.44500
13916663;-0.44500
13919441;-0.44000
13922218;-0.45000
13924996;-0.47000
13927774;-0.46000
13930552;-0.45000
13933329;-0.44500
13936107;-0.44500
13938885;-0.46000
13941663;-0.47500
13944441;-0.47000
13947218;-0.46000
13949996;-0.45000
13952774;-0.45000
13955552;-0.45500
13958329;-0.45500
13961107;-0.46000
13963885;-0.45000
13966663;-0.45000
13969441;-0.45500
13972218;-0.46500
13974996;-0.47500
13977774;-0.47500
13980552;-0.47000
13983329;-0.46000
13986107;-0.46500
13988885;-0.47500
13991663;-0.48500
13994441;-0.49000
13997218;-0.49000
13999996;-0.47500
14002774;-0.49000
14005552;-0.49500
14008329;-0.50500
14011107;-0.49500
14013885;-0.48000
14016663;-0.48000
14019441;-0.48000
14022218;-0.50000
14024996;-0.50500
14027774;-0.50500
14030552;-0.49500
14033329;-0.48000
14036107;-0.46500
14038885;-0.47500
14041663;-0.46500
14044441;-0.44500
14047218;-0.42500
14049996;-0.41500
14052774;-0.40000
14055552;-0.40000
14058329;-0.41500
14061107;-0.38000
14063885;-0.37000
14066663;-0.36000
14069441;-0.35000
14072218;-0.35000
14074996;-0.35500
14077774;-0.35000
14080552;-0.34000
14083329;-0.33000
14086107;-0.33500
14088885;-0.32500
14091663;-0.33000
14094440;-0.33000
14097218;-0.31500
14099996;-0.31000
14102774;-0.30500
14105552;-0.32000
14108329;-0.32500
14111107;-0.34000
14113885;-0.33000
14116663;-0.31000
14119440;-0.32000
14122218;-0.33000
14124996;-0.34000
14127774;-0.33500
14130552;-0.33000
14133329;-0.32500
14136107;-0.32500
14138885;-0.33000
14141663;-0.35500
14144440;-0.34500
14147218;-0.33500
14149996;-0.32000
14152774;-0.33000
14155552;-0.33500
14158329;-0.34500
14161107;-0.33500
14163885;-0.33000
14166663;-0.32000
14169440;-0.33000
14172218;-0.33000
14174996;-0.35000
14177774;-0.35000
14180552;-0.34000
14183329;-0.34000
14186107;-0.33500
14188885;-0.34500
14191663;-0.35000
14194440;-0.37500
14197218;-0.35500
14199996;-0.35000
14202774;-0.35000
14205552;-0.35500
14208329;-0.37500
14211107;-0.36500
14213885;-0.36000
14216663;-0.35000
14219440;-0.35000
14222218;-0.36000
14224996;-0.37000
14227774;-0.36500
14230552;-0.35000
14233329;-0.35500
14236107;-0.34500
14238885;-0.37000
14241663;-0.36500
14244440;-0.36000
14247218;-0.35500
14249996;-0.34000
14252774;-0.35000
14255552;-0.34500
14258329;-0.35500
14261107;-0.35500
14263885;-0.35500
14266663;-0.34500
14269440;-0.32500
14272218;-0.34000
14274996;-0.35000
14277774;-0.35000
14280552;-0.34000
14283329;-0.33000
14286107;-0.33000
14288885;-0.35000
14291663;-0.36000
14294440;-0.35500
14297218;-0.35000
14299996;-0.33500
14302774;-0.34000
14305552;-0.35000
14308329;-0.35000
14311107;-0.34500
14313885;-0.35000
14316663;-0.33500
14319440;-0.33000
14322218;-0.34500
14324996;-0.34500
14327774;-0.35000
14330552;-0.33500
14333329;-0.32000
14336107;-0.33500
14338885;-0.35000
14341663;-0.34500
14344440;-0.34000
14347218;-0.32500
14349996;-0.31000
14352774;-0.30500
14355552;-0.31500
14358329;-0.30000
14361107;-0.28500
14363885;-0.28500
14366663;-0.28000
14369440;-0.25500
14372218;-0.26500
14374996;-0.28000
14377774;-0.26000
14380552;-0.24000
14383329;-0.23500
14386107;-0.22000
14388885;-0.22500
14391663;-0.24500
14394440;-0.23500
14397218;-0.23500
14399996;-0.23000
14402774;-0.24000
14405552;-0.25500
14408329;-0.25500
14411107;-0.26000
14413885;-0.25000
14416663;-0.25500
14419440;-0.26500
14422218;-0.25000
14424996;-0.24500
14427774;-0.23500
14430552;-0.25000
14433329;-0.26500
14436107;-0.28000
14438885;-0.30000
14441663;-0.32000
14444440;-0.33500
14447218;-0.34000
14449996;-0.33500
14452774;-0.33500
14455552;-0.35500
14458329;-0.37000
14461107;-0.36000
14463885;-0.35000
14466663;-0.33000
14469440;-0.34000
14472218;-0.35000
14474996;-0.36000
14477774;-0.35000
14480552;-0.34500
14483329;-0.34500
14486107;-0.33500
14488885;-0.35500
14491663;-0.36000
14494440;-0.36500
14497218;-0.35500
14499996;-0.35000
14502774;-0.35500
14505551;-0.36500
14508329;-0.37000
14511107;-0.36000
14513885;-0.35500
14516663;-0.35500
14519440;-0.35500
14522218;-0.37500
14524996;-0.39000
14527774;-0.41000
14530551;-0.43500
14533329;-0.46000
14536107;-0.47500
14538885;-0.51000
14541663;-0.55500
14544440;-0.56000
14547218;-0.50000
14549996;-0.37500
14552774;-0.23500
14555551;-0.08500
14558329;0.10500
14561107;0.39000
14563885;0.66000
14566663;0.86500
14569440;0.92000
14572218;0.82000
14574996;0.50500
14577774;0.10000
14580551;-0.25500
14583329;-0.43000
14586107;-0.48500
14588885;-0.46500
14591663;-0.42500
14594440;-0.39000
14597218;-0.36500
14599996;-0.37000
14602774;-0.37500
14605551;-0.37000
14608329;-0.39000
14611107;-0.38000
14613885;-0.38000
14616663;-0.36500
14619440;-0.37500
14622218;-0.38000
14624996;-0.39500
14627774;-0.39500
14630551;-0.38500
14633329;-0.37500
14636107;-0.38000
14638885;-0.39000
14641663;-0.39500
14644440;-0.40000
14647218;-0.39000
14649996;-0.38500
14652774;-0.38500
14655551;-0.39500
14658329;-0.40500
14661107;-0.40000
14663885;-0.38500
14666663;-0.38000
14669440;-0.38500
14672218;-0.39500
14674996;-0.41000
14677774;-0.41000
14680551;-0.39000
14683329;-0.39500
14686107;-0.38500
14688885;-0.39500
14691663;-0.39000
14694440;-0.38500
14697218;-0.37500
14699996;-0.37000
14702774;-0.37500
14705551;-0.38000
14708329;-0.39000
14711107;-0.39000
14713885;-0.38500
14716663;-0.38500
14719440;-0.38500
14722218;-0.38000
14724996;-0.38000
14727774;-0.39000
14730551;-0.38500
14733329;-0.37500
14736107;-0.37000
14738885;-0.38500
14741663;-0.39500
14744440;-0.39500
14747218;-0.38000
14749996;-0.36000
14752774;-0.36500
14755551;-0.37500
14758329;-0.38000
14761107;-0.37000
14763885;-0.37500
14766663;-0.37000
14769440;-0.36000
14772218;-0.38000
14774996;-0.38500
14777774;-0.38500
14780551;-0.37500
14783329;-0.37000
14786107;-0.37000
14788885;-0.38000
14791663;-0.39500
14794440;-0.38500
14797218;-0.39000
14799996;-0.37500
14802774;-0.38000
14805551;-0.38500
14808329;-0.39500
14811107;-0.40000
14813885;-0.38500
14816663;-0.38000
14819440;-0.38000
14822218;-0.39000
14824996;-0.40500
14827774;-0.40000
14830551;-0.40000
14833329;-0.37500
14836107;-0.39500
14838885;-0.39000
14841663;-0.40000
14844440;-0.39000
14847218;-0.39500
14849996;-0.38500
14852774;-0.39000
14855551;-0.40000
14858329;-0.40500
14861107;-0.39500
14863885;-0.38500
14866663;-0.37000
14869440;-0.36000
14872218;-0.36500
14874996;-0.36000
14877774;-0.35500
14880551;-0.32500
14883329;-0.30500
14886107;-0.30000
14888885;-0.30000
14891662;-0.28500
14894440;-0.28500
14897218;-0.26500
14899996;-0.25000
14902774;-0.25500
14905551;-0.25500
14908329;-0.25000
14911107;-0.25500
14913885;-0.24000
14916662;-0.23500
14919440;-0.25000
14922218;-0.24500
14924996;-0.26000
14927774;-0.24500
14930551;-0.25000
14933329;-0.23500
14936107;-0.23500
14938885;-0.23500
14941662;-0.25500
14944440;-0.27000
14947218;-0.24500
14949996;-0.23500
14952774;-0.23500
14955551;-0.25000
14958329;-0.26000
14961107;-0.25000
14963885;-0.25000
14966662;-0.24000
14969440;-0.24500
14972218;-0.25000
14974996;-0.25000
14977774;-0.25500
14980551;-0.25000
14983329;-0.24500
14986107;-0.24500
14988885;-0.26000
14991662;-0.27000
14994440;-0.27000
14997218;-0.26500
14999996;-0.25500
15002774;-0.25000
15005551;-0.26500
15008329;-0.28500
15011107;-0.27500
15013885;-0.27500
15016662;-0.26000
15019440;-0.27000
15022218;-0.27500
15024996;-0.29500
15027774;-0.28500
15030551;-0.28500
15033329;-0.28000
15036107;-0.26500
15038885;-0.27500
15041662;-0.29500
15044440;-0.28000
15047218;-0.28000
15049996;-0.26500
15052774;-0.27500
15055551;-0.27500
15058329;-0.29000
15061107;-0.29500
15063885;-0.29000
15066662;-0.29000
15069440;-0.28500
15072218;-0.29000
15074996;-0.30500
15077774;-0.30000
15080551;-0.28500
15083329;-0.27500
15086107;-0.29000
15088885;-0.29000
15091662;-0.29500
15094440;-0.29500
15097218;-0.29000
15099996;-0.27000
15102774;-0.27000
15105551;-0.29000
15108329;-0.29500
15111107;-0.29000
15113885;-0.28500
15116662;-0.28500
15119440;-0.29000
15122218;-0.28500
15124996;-0.29000
15127774;-0.29000
15130551;-0.27500
15133329;-0.28000
15136107;-0.27500
15138885;-0.28500
15141662;-0.29000
15144440;-0.28500
15147218;-0.28000
15149996;-0.26500
15152774;-0.28000
15155551;-0.28000
15158329;-0.28000
15161107;-0.28500
15163885;-0.28500
15166662;-0.28500
15169440;-0.27000
15172218;-0.28500
15174996;-0.29000
15177774;-0.28000
15180551;-0.27500
15183329;-0.25500
15186107;-0.23500
15188885;-0.23000
15191662;-0.23500
15194440;-0.24000
15197218;-0.20500
15199996;-0.20500
15202774;-0.20000
15205551;-0.20000
15208329;-0.20000
15211107;-0.19000
15213885;-0.17500
15216662;-0.16000
15219440;-0.16500
15222218;-0.16500
15224996;-0.18500
15227774;-0.18000
15230551;-0.17500
15233329;-0.18000
15236107;-0.19000
15238885;-0.20000
15241662;-0.21000
15244440;-0.20000
15247218;-0.20000
15249996;-0.20000
15252774;-0.19000
15255551;-0.17500
15258329;-0.16500
15261107;-0.17500
15263885;-0.19500
15266662;-0.20500
15269440;-0.23500
15272218;-0.25500
15274996;-0.28500
15277774;-0.29500
15280551;-0.27500
15283329;-0.27000
15286107;-0.28500
15288885;-0.28500
15291662;-0.29500
15294440;-0.29000
15297218;-0.28500
15299996;-0.27000
15302773;-0.27000
15305551;-0.29500
15308329;-0.29000
15311107;-0.29500
15313885;-0.29500
15316662;-0.29000
15319440;-0.28500
15322218;-0.29500
15324996;-0.30500
15327773;-0.30500
15330551;-0.30500
15333329;-0.30500
15336107;-0.30500
15338885;-0.31500
15341662;-0.32000
15344440;-0.32500
15347218;-0.32000
15349996;-0.30500
15352773;-0.31000
15355551;-0.33000
15358329;-0.35000
15361107;-0.38500
15363885;-0.41000
15366662;-0.43500
15369440;-0.45500
15372218;-0.50000
15374996;-0.51000
15377773;-0.45500
15380551;-0.31500
15383329;-0.16000
15386107;0.02000
15388885;0.24500
15391662;0.51000
15394440;0.76500
15397218;0.91000
15399996;0.89500
15402773;0.66000
15405551;0.27500
15408329;-0.13500
15411107;-0.38500
15413885;-0.44500
15416662;-0.39500
15419440;-0.34000
15422218;-0.32500
15424996;-0.35000
15427773;-0.34000
15430551;-0.34000
15433329;-0.31500
15436107;-0.31500
15438885;-0.32000
15441662;-0.34000
15444440;-0.33000
15447218;-0.32000
15449996;-0.32000
15452773;-0.32000
15455551;-0.33500
15458329;-0.33500
15461107;-0.34000
15463885;-0.33000
15466662;-0.33000
15469440;-0.33500
15472218;-0.33500
15474996;-0.34000
15477773;-0.34000
15480551;-0.34000
15483329;-0.34500
15486107;-0.34000
15488885;-0.34500
15491662;-0.34000
15494440;-0.33500
15497218;-0.34000
15499996;-0.33000
15502773;-0.33500
15505551;-0.34500
15508329;-0.35000
15511107;-0.35000
15513885;-0.33000
15516662;-0.32500
15519440;-0.33000
15522218;-0.34500
15524996;-0.33000
15527773;-0.33500
15530551;-0.33000
15533329;-0.32500
15536107;-0.31500
15538885;-0.32500
15541662;-0.33000
15544440;-0.33500
15547218;-0.33500
15549996;-0.32000
15552773;-0.32000
15555551;-0.33000
15558329;-0.34500
15561107;-0.34500
15563885;-0.33000
15566662;-0.32500
15569440;-0.33000
15572218;-0.33500
15574996;-0.34500
15577773;-0.34000
15580551;-0.33000
15583329;-0.32000
15586107;-0.32000
15588885;-0.33000
15591662;-0.34000
15594440;-0.33500
15597218;-0.33500
15599996;-0.32000
15602773;-0.32000
15605551;-0.33000
15608329;-0.34000
15611107;-0.34500
15613885;-0.33500
15616662;-0.33000
15619440;-0.34000
15622218;-0.35000
15624996;-0.35500
15627773;-0.35500
15630551;-0.35500
15633329;-0.35000
15636107;-0.34500
15638885;-0.35000
15641662;-0.36000
15644440;-0.36000
15647218;-0.35000
15649996;-0.34500
15652773;-0.34500
15655551;-0.35500
15658329;-0.36500
15661107;-0.34500
15663885;-0.33500
15666662;-0.33500
15669440;-0.34500
15672218;-0.33500
15674996;-0.35000
15677773;-0.34500
15680551;-0.33500
15683329;-0.33000
15686107;-0.33000
15688884;-0.33500
15691662;-0.33500
15694440;-0.32000
15697218;-0.30500
15699996;-0.29500
15702773;-0.30000
15705551;-0.29000
15708329;-0.27500
15711107;-0.28500
15713884;-0.27500
15716662;-0.25500
15719440;-0.25500
15722218;-0.26000
15724996;-0.26000
15727773;-0.26000
15730551;-0.25500
15733329;-0.25000
15736107;-0.24500
15738884;-0.23500
15741662;-0.24000
15744440;-0.25000
15747218;-0.21500
15749996;-0.21500
15752773;-0.22000
15755551;-0.22500
15758329;-0.23500
15761107;-0.24500
15763884;-0.24500
15766662;-0.23500
15769440;-0.25500
15772218;-0.25500
15774996;-0.25000
15777773;-0.25500
15780551;-0.24500
15783329;-0.23000
15786107;-0.24000
15788884;-0.25000
15791662;-0.26500
15794440;-0.26500
15797218;-0.26500
15799996;-0.24500
15802773;-0.25500
15805551;-0.27000
15808329;-0.26500
15811107;-0.26500
15813884;-0.25500
15816662;-0.25000
15819440;-0.26500
15822218;-0.26000
15824996;-0.26000
15827773;-0.26500
15830551;-0.26000
15833329;-0.26000
15836107;-0.26000
15838884;-0.26500
15841662;-0.29000
15844440;-0.28000
15847218;-0.26500
15849996;-0.25500
15852773;-0.27000
15855551;-0.27000
15858329;-0.28000
15861107;-0.28500
15863884;-0.27500
15866662;-0.26000
15869440;-0.27000
15872218;-0.27500
15874996;-0.29000
15877773;-0.29000
15880551;-0.27500
15883329;-0.27000
15886107;-0.27500
15888884;-0.28000
15891662;-0.29000
15894440;-0.29500
15897218;-0.28500
15899996;-0.27000
15902773;-0.27500
15905551;-0.27500
15908329;-0.28500
15911107;-0.28500
15913884;-0.28500
15916662;-0.26500
15919440;-0.28000
15922218;-0.29000
15924996;-0.30000
15927773;-0.29500
15930551;-0.28500
15933329;-0.27000
15936107;-0.27500
15938884;-0.28000
15941662;-0.28000
15944440;-0.28500
15947218;-0.29000
15949996;-0.27000
15952773;-0.27000
15955551;-0.27500
15958329;-0.27500
15961107;-0.27000
15963884;-0.27000
15966662;-0.26000
15969440;-0.26000
15972218;-0.26500
15974996;-0.26500
15977773;-0.28000
15980551;-0.27500
15983329;-0.24000
15986107;-0.25500
15988884;-0.24500
15991662;-0.23500
15994440;-0.23000
15997218;-0.22500
15999996;-0.21000
16002773;-0.21000
16005551;-0.21000
16008329;-0.21500
16011107;-0.21500
16013884;-0.18500
16016662;-0.17500
16019440;-0.17000
16022218;-0.16500
16024996;-0.16500
16027773;-0.18000
16030551;-0.17500
16033329;-0.17000
16036107;-0.18000
16038884;-0.19000
16041662;-0.20000
16044440;-0.20500
16047218;-0.20000
16049996;-0.18000
16052773;-0.18500
16055551;-0.18000
16058329;-0.20500
16061107;-0.21000
16063884;-0.21000
16066662;-0.19000
16069440;-0.18000
16072218;-0.16000
16074995;-0.18500
16077773;-0.20500
16080551;-0.23000
16083329;-0.23000
16086107;-0.26000
16088884;-0.27000
16091662;-0.30000
16094440;-0.31500
16097218;-0.31000
16099995;-0.30000
16102773;-0.30000
16105551;-0.31000
16108329;-0.31500
16111107;-0.32500
16113884;-0.31000
16116662;-0.30000
16119440;-0.32000
16122218;-0.31500
16124995;-0.34000
16127773;-0.31500
16130551;-0.31500
16133329;-0.30500
16136107;-0.30000
16138884;-0.32000
16141662;-0.32000
16144440;-0.34000
16147218;-0.32500
16149995;-0.32500
16152773;-0.32500
16155551;-0.33500
16158329;-0.34500
16161107;-0.36000
16163884;-0.39500
16166662;-0.42000
16169440;-0.44000
16172218;-0.48000
16174995;-0.52500
16177773;-0.56000
16180551;-0.51000
16183329;-0.41000
16186107;-0.28500
16188884;-0.13000
16191662;0.07000
16194440;0.33500
16197218;0.61500
16199995;0.77500
16202773;0.81500
16205551;0.72500
16208329;0.45000
16211107;0.07500
16213884;-0.24000
16216662;-0.40500
16219440;-0.46500
16222218;-0.46000
16224995;-0.43000
16227773;-0.39500
16230551;-0.36500
16233329;-0.34500
16236107;-0.35500
16238884;-0.37500
16241662;-0.37000
16244440;-0.38000
16247218;-0.36500
16249995;-0.37000
16252773;-0.35000
16255551;-0.36500
16258329;-0.37000
16261107;-0.37500
16263884;-0.38000
16266662;-0.37500
16269440;-0.37000
16272218;-0.37500
16274995;-0.38500
16277773;-0.39000
16280551;-0.37000
16283329;-0.34500
16286107;-0.35500
16288884;-0.37000
16291662;-0.37500
16294440;-0.37500
16297218;-0.37500
16299995;-0.35500
16302773;-0.37000
16305551;-0.37500
16308329;-0.38000
16311107;-0.37000
16313884;-0.37000
16316662;-0.36500
16319440;-0.37000
16322218;-0.37000
16324995;-0.36000
16327773;-0.36500
16330551;-0.36000
16333329;-0.36500
16336107;-0.38000
16338884;-0.37500
16341662;-0.37500
16344440;-0.38000
16347218;-0.37500
16349995;-0.37000
16352773;-0.37000
16355551;-0.36500
16358329;-0.37000
16361107;-0.37500
16363884;-0.36500
16366662;-0.35500
16369440;-0.35500
16372218;-0.36000
16374995;-0.36500
16377773;-0.38500
16380551;-0.36500
16383329;-0.36000
16386107;-0.36000
16388884;-0.36000
16391662;-0.37000
16394440;-0.37500
16397218;-0.35500
16399995;-0.35500
16402773;-0.34500
16405551;-0.35500
16408329;-0.37000
16411107;-0.38000
16413884;-0.36500
16416662;-0.37000
16419440;-0.36500
16422218;-0.36500
16424995;-0.38500
16427773;-0.39000
16430551;-0.38500
16433329;-0.38000
16436107;-0.38000
16438884;-0.38500
16441662;-0.39500
16444440;-0.38000
16447218;-0.38000
16449995;-0.37500
16452773;-0.37500
16455551;-0.39000
16458329;-0.40000
16461107;-0.41000
16463884;-0.40000
16466662;-0.39500
16469440;-0.37500
16472218;-0.40000
16474995;-0.41500
16477773;-0.41500
16480551;-0.41000
16483329;-0.40000
16486106;-0.40000
16488884;-0.40000
16491662;-0.39000
16494440;-0.38500
16497218;-0.36500
16499995;-0.35500
16502773;-0.35000
16505551;-0.35000
16508329;-0.34500
16511106;-0.34000
16513884;-0.34000
16516662;-0.32000
16519440;-0.32500
16522218;-0.32500
16524995;-0.33000
16527773;-0.31500
16530551;-0.30000
16533329;-0.28500
16536106;-0.29500
16538884;-0.29500
16541662;-0.30500
16544440;-0.31500
16547218;-0.31000
16549995;-0.31000
16552773;-0.31000
16555551;-0.31000
16558329;-0.31500
16561106;-0.31500
16563884;-0.31500
16566662;-0.30000
16569440;-0.31500
16572218;-0.30500
16574995;-0.31000
16577773;-0.32500
16580551;-0.31000
16583329;-0.30000
16586106;-0.30500
16588884;-0.31000
16591662;-0.32000
16594440;-0.33000
16597218;-0.31500
16599995;-0.30000
16602773;-0.31000
16605551;-0.32500
16608329;-0.34000
16611106;-0.33500
16613884;-0.32500
16616662;-0.32500
16619440;-0.33500
16622218;-0.33500
16624995;-0.34500
16627773;-0.33500
16630551;-0.33000
16633329;-0.32500
16636106;-0.33000
16638884;-0.34500
16641662;-0.35000
16644440;-0.36500
16647218;-0.34000
16649995;-0.34000
16652773;-0.33500
16655551;-0.35500
16658329;-0.34000
16661106;-0.37000
16663884;-0.36500
16666662;-0.35500
16669440;-0.36000
16672218;-0.37000
16674995;-0.37000
16677773;-0.37500
16680551;-0.35500
16683329;-0.35000
16686106;-0.36000
16688884;-0.36500
16691662;-0.37500
16694440;-0.38000
16697218;-0.37000
16699995;-0.36000
16702773;-0.36000
16705551;-0.36000
16708329;-0.37000
16711106;-0.37000
16713884;-0.35500
16716662;-0.36000
16719440;-0.37000
16722218;-0.37500
16724995;-0.39500
16727773;-0.39500
16730551;-0.37000
16733329;-0.35500
16736106;-0.35500
16738884;-0.36000
16741662;-0.38000
16744440;-0.37500
16747218;-0.37000
16749995;-0.35000
16752773;-0.36500
16755551;-0.37000
16758329;-0.37500
16761106;-0.37500
16763884;-0.37000
16766662;-0.35000
16769440;-0.34500
16772218;-0.34500
16774995;-0.35000
16777773;-0.35500
16780551;-0.34000
16783329;-0.33500
16786106;-0.32000
16788884;-0.31000
16791662;-0.31000
16794440;-0.32500
16797218;-0.30500
16799995;-0.30000
16802773;-0.30000
16805551;-0.29000
16808329;-0.29000
16811106;-0.30000
16813884;-0.29000
16816662;-0.27000
16819440;-0.27000
16822218;-0.26500
16824995;-0.28000
16827773;-0.28000
16830551;-0.27000
16833329;-0.27000
16836106;-0.28000
16838884;-0.26500
16841662;-0.27500
16844440;-0.29500
16847218;-0.30500
16849995;-0.29000
16852773;-0.27000
16855551;-0.26000
16858329;-0.27000
16861106;-0.30000
16863884;-0.32000
16866662;-0.32000
16869440;-0.34000
16872217;-0.36500
16874995;-0.39000
16877773;-0.40000
16880551;-0.39500
16883329;-0.38000
16886106;-0.40500
16888884;-0.40000
16891662;-0.41000
16894440;-0.41000
16897217;-0.39500
16899995;-0.38500
16902773;-0.38000
16905551;-0.39000
16908329;-0.40000
16911106;-0.40500
16913884;-0.39500
16916662;-0.39000
16919440;-0.38500
16922217;-0.40000
16924995;-0.41500
16927773;-0.41500
16930551;-0.40000
16933329;-0.40000
16936106;-0.39500
16938884;-0.39500
16941662;-0.40500
16944440;-0.40500
16947217;-0.40000
16949995;-0.40000
16952773;-0.40500
16955551;-0.43500
16958329;-0.45500
16961106;-0.49000
16963884;-0.50500
16966662;-0.51500
16969440;-0.56000
16972217;-0.58500
16974995;-0.56500
16977773;-0.47500
16980551;-0.34500
16983329;-0.19000
16986106;0.01500
16988884;0.26500
16991662;0.52000
16994440;0.71500
16997217;0.80500
16999995;0.74000
17002773;0.46000
17005551;0.08000
17008329;-0.27000
17011106;-0.46500
17013884;-0.54000
17016662;-0.53000
17019440;-0.50500
17022217;-0.48000
17024995;-0.47000
17027773;-0.47000
17030551;-0.46000
17033329;-0.44500
17036106;-0.43000
17038884;-0.44000
17041662;-0.45500
17044440;-0.45000
17047217;-0.44500
17049995;-0.42500
17052773;-0.43500
17055551;-0.44500
17058329;-0.43500
17061106;-0.45000
17063884;-0.42500
17066662;-0.42000
17069440;-0.43000
17072217;-0.44000
17074995;-0.44500
17077773;-0.45500
17080551;-0.44000
17083329;-0.43000
17086106;-0.42000
17088884;-0.43500
17091662;-0.45500
17094440;-0.46000
17097217;-0.43000
17099995;-0.44000
17102773;-0.43500
17105551;-0.44000
17108329;-0.45000
17111106;-0.44500
17113884;-0.44000
17116662;-0.44500
17119440;-0.44500
17122217;-0.44500
17124995;-0.44500
17127773;-0.46500
17130551;-0.44000
17133329;-0.44500
17136106;-0.43500
17138884;-0.43500
17141662;-0.44000
17144440;-0.44500
17147217;-0.44000
17149995;-0.43500
17152773;-0.44500
17155551;-0.44500
17158329;-0.45500
17161106;-0.45000
17163884;-0.45500
17166662;-0.44000
17169440;-0.45000
17172217;-0.44500
17174995;-0.43500
17177773;-0.45500
17180551;-0.44500
17183329;-0.43000
17186106;-0.42500
17188884;-0.43500
17191662;-0.45000
17194440;-0.45500
17197217;-0.45000
17199995;-0.43000
17202773;-0.43500
17205551;-0.44000
17208329;-0.45500
17211106;-0.47000
17213884;-0.45500
17216662;-0.45000
17219440;-0.45000
17222217;-0.45500
17224995;-0.46500
17227773;-0.48000
17230551;-0.47500
17233329;-0.46500
17236106;-0.48000
17238884;-0.50000
17241662;-0.50500
17244440;-0.50500
17247217;-0.50500
17249995;-0.49000
17252773;-0.49000
17255551;-0.49000
17258329;-0.50000
17261106;-0.50500
17263884;-0.49500
17266662;-0.48500
17269440;-0.47000
17272217;-0.46500
17274995;-0.46500
17277773;-0.46500
17280551;-0.45000
17283328;-0.44000
17286106;-0.42000
17288884;-0.42500
17291662;-0.42500
17294440;-0.41000
17297217;-0.40500
17299995;-0.38500
17302773;-0.37500
17305551;-0.38000
17308328;-0.36500
17311106;-0.36500
17313884;-0.35000
17316662;-0.32500
17319440;-0.34000
17322217;-0.33500
17324995;-0.35000
17327773;-0.34500
17330551;-0.34000
17333328;-0.32500
17336106;-0.32500
17338884;-0.33000
17341662;-0.32500
17344440;-0.33000
17347217;-0.32500
17349995;-0.30500
17352773;-0.32000
17355551;-0.32000
17358328;-0.33500
17361106;-0.34000
17363884;-0.33500
17366662;-0.33000
17369440;-0.33500
17372217;-0.34000
17374995;-0.34000
17377773;-0.34500
17380551;-0.34000
17383328;-0.32000
17386106;-0.33500
17388884;-0.33500
17391662;-0.34000
17394440;-0.34000
17397217;-0.33000
17399995;-0.32500
17402773;-0.34500
17405551;-0.33500
17408328;-0.34000
17411106;-0.34500
17413884;-0.34000
17416662;-0.33000
17419440;-0.33500
17422217;-0.34000
17424995;-0.35000
17427773;-0.36500
17430551;-0.35000
17433328;-0.33500
17436106;-0.35000
17438884;-0.35000
17441662;-0.35500
17444440;-0.35500
17447217;-0.35500
17449995;-0.34000
17452773;-0.34500
17455551;-0.35000
17458328;-0.36000
17461106;-0.34500
17463884;-0.35500
17466662;-0.34000
17469440;-0.35000
17472217;-0.34500
17474995;-0.36000
17477773;-0.36000
17480551;-0.34500
17483328;-0.34000
17486106;-0.34500
17488884;-0.34500
17491662;-0.35500
17494440;-0.36000
17497217;-0.35500
17499995;-0.32000
17502773;-0.34000
17505551;-0.34000
17508328;-0.34500
17511106;-0.35000
17513884;-0.34000
17516662;-0.33500
17519440;-0.32500
17522217;-0.34500
17524995;-0.34000
17527773;-0.35000
17530551;-0.34000
17533328;-0.31500
17536106;-0.33000
17538884;-0.34000
17541662;-0.34000
17544440;-0.34000
17547217;-0.32500
17549995;-0.32000
17552773;-0.32000
17555551;-0.31500
17558328;-0.30500
17561106;-0.28500
17563884;-0.27000
17566662;-0.26000
17569440;-0.26000
17572217;-0.26500
17574995;-0.27500
17577773;-0.26500
17580551;-0.24000
17583328;-0.23000
17586106;-0.22000
17588884;-0.23000
17591662;-0.23000
17594440;-0.23500
17597217;-0.21500
17599995;-0.22000
17602773;-0.23000
17605551;-0.23000
17608328;-0.24500
17611106;-0.25500
17613884;-0.25000
17616662;-0.23500
17619440;-0.23500
17622217;-0.23500
17624995;-0.24500
17627773;-0.26000
17630551;-0.25500
17633328;-0.22500
17636106;-0.22000
17638884;-0.20500
17641662;-0.23000
17644440;-0.26500
17647217;-0.28000
17649995;-0.29000
17652773;-0.29000
17655551;-0.30500
17658328;-0.33000
17661106;-0.33500
17663884;-0.33500
17666662;-0.33000
17669439;-0.32000
17672217;-0.33500
17674995;-0.33000
17677773;-0.34500
17680551;-0.34000
17683328;-0.34000
17686106;-0.33500
17688884;-0.34000
17691662;-0.35500
17694439;-0.35000
17697217;-0.34000
17699995;-0.33000
17702773;-0.35000
17705551;-0.34500
17708328;-0.35000
17711106;-0.36000
17713884;-0.35500
17716662;-0.34000
17719439;-0.33500
17722217;-0.35500
17724995;-0.37500
17727773;-0.41000
17730551;-0.44500
17733328;-0.45000
17736106;-0.47500
17738884;-0.52000
17741662;-0.54500
17744439;-0.55000
17747217;-0.46500
17749995;-0.35000
17752773;-0.23000
17755551;-0.13500
17758328;-0.01000
17761106;0.14500
17763884;0.36000
17766662;0.56500
17769439;0.74000
17772217;0.86500
17774995;0.95000
17777773;1.02000
17780551;1.00500
17783328;0.84500
17786106;0.50000
17788884;0.06500
17791662;-0.28500
17794439;-0.47000
17797217;-0.48000
17799995;-0.42500
17802773;-0.37000
17805551;-0.37000
17808328;-0.38500
17811106;-0.39500
17813884;-0.37500
17816662;-0.36500
17819439;-0.36500
17822217;-0.38000
17824995;-0.39500
17827773;-0.39500
17830551;-0.40000
17833328;-0.37000
17836106;-0.38000
17838884;-0.39000
17841662;-0.39500
17844439;-0.41000
17847217;-0.40000
17849995;-0.38500
17852773;-0.39000
17855551;-0.40000
17858328;-0.40500
17861106;-0.41000
17863884;-0.40000
17866662;-0.39500
17869439;-0.39000
17872217;-0.39500
17874995;-0.39500
17877773;-0.40500
17880551;-0.39500
17883328;-0.38500
17886106;-0.39000
17888884;-0.38500
17891662;-0.40000
17894439;-0.41000
17897217;-0.40000
17899995;-0.37000
17902773;-0.37500
17905551;-0.38000
17908328;-0.38500
17911106;-0.38500
17913884;-0.38000
17916662;-0.38000
17919439;-0.37500
17922217;-0.39500
17924995;-0.39500
17927773;-0.39500
17930551;-0.38000
17933328;-0.37500
17936106;-0.36500
17938884;-0.38000
17941662;-0.39500
17944439;-0.39500
17947217;-0.39000
17949995;-0.38000
17952773;-0.38000
17955551;-0.38500
17958328;-0.39500
17961106;-0.40000
17963884;-0.39000
17966662;-0.38500
17969439;-0.38000
17972217;-0.40000
17974995;-0.39500
17977773;-0.39500
17980551;-0.38000
17983328;-0.38000
17986106;-0.38000
17988884;-0.38500
17991662;-0.40500
17994439;-0.39500
17997217;-0.40000
17999995;-0.38500
18002773;-0.39000
18005551;-0.40000
18008328;-0.41000
18011106;-0.41000
18013884;-0.40500
18016662;-0.41000
18019439;-0.40000
18022217;-0.40500
18024995;-0.42000
18027773;-0.41500
18030551;-0.40000
18033328;-0.39000
18036106;-0.40000
18038884;-0.40000
18041662;-0.40500
18044439;-0.39000
18047217;-0.39000
18049995;-0.37500
18052773;-0.35500
18055550;-0.36000
18058328;-0.36500
18061106;-0.36500
18063884;-0.33500
18066662;-0.32000
18069439;-0.32000
18072217;-0.30500
18074995;-0.31500
18077773;-0.30500
18080550;-0.30000
18083328;-0.29000
18086106;-0.28500
18088884;-0.29000
18091662;-0.30000
18094439;-0.30000
18097217;-0.29500
18099995;-0.28500
18102773;-0.27500
18105550;-0.29000
18108328;-0.28500
18111106;-0.28500
18113884;-0.28000
18116662;-0.27000
18119439;-0.27000
18122217;-0.28500
18124995;-0.29500
18127773;-0.29500
18130550;-0.28000
18133328;-0.28500
18136106;-0.29500
18138884;-0.29000
18141662;-0.29500
18144439;-0.30500
18147217;-0.31000
18149995;-0.29000
18152773;-0.28000
18155550;-0.30500
18158328;-0.30500
18161106;-0.30500
18163884;-0.29500
18166662;-0.30500
18169439;-0.29500
18172217;-0.30000
18174995;-0.30500
18177773;-0.31500
18180550;-0.30500
18183328;-0.29500
18186106;-0.30500
18188884;-0.30000
18191662;-0.31500
18194439;-0.32500
18197217;-0.30000
18199995;-0.31500
18202773;-0.30500
18205550;-0.31000
18208328;-0.32500
18211106;-0.33500
18213884;-0.31500
18216662;-0.31500
18219439;-0.32500
18222217;-0.32500
18224995;-0.33500
18227773;-0.33500
18230550;-0.32000
18233328;-0.32500
18236106;-0.31000
18238884;-0.32500
18241662;-0.34500
18244439;-0.34500
18247217;-0.34000
18249995;-0.32000
18252773;-0.32500
18255550;-0.33500
18258328;-0.35000
18261106;-0.34000
18263884;-0.34000
18266662;-0.33000
18269439;-0.32500
18272217;-0.33000
18274995;-0.34500
18277773;-0.34500
18280550;-0.33500
18283328;-0.32000
18286106;-0.32500
18288884;-0.33000
18291662;-0.34500
18294439;-0.35000
18297217;-0.33500
18299995;-0.32000
18302773;-0.32500
18305550;-0.32500
18308328;-0.33500
18311106;-0.34500
18313884;-0.32000
18316662;-0.32000
18319439;-0.32000
18322217;-0.35000
18324995;-0.34500
18327773;-0.33500
18330550;-0.32000
18333328;-0.31500
18336106;-0.29500
18338884;-0.30000
18341662;-0.28500
18344439;-0.28000
18347217;-0.26000
18349995;-0.25000
18352773;-0.24500
18355550;-0.25500
18358328;-0.25000
18361106;-0.25500
18363884;-0.23500
18366662;-0.22500
18369439;-0.21500
18372217;-0.22000
18374995;-0.22500
18377773;-0.24500
18380550;-0.22500
18383328;-0.22000
18386106;-0.22500
18388884;-0.23500
18391662;-0.25500
18394439;-0.26000
18397217;-0.24000
18399995;-0.23500
18402773;-0.23500
18405550;-0.25000
18408328;-0.26000
18411106;-0.27000
18413884;-0.24500
18416662;-0.22000
18419439;-0.20500
18422217;-0.22500
18424995;-0.25000
18427773;-0.28000
18430550;-0.28000
18433328;-0.29500
18436106;-0.30500
18438884;-0.32000
18441662;-0.34500
18444439;-0.35000
18447217;-0.35000
18449995;-0.34000
18452773;-0.34000
18455550;-0.35000
18458328;-0.35000
18461106;-0.35500
18463884;-0.35500
18466661;-0.35500
18469439;-0.36000
18472217;-0.35500
18474995;-0.36500
18477773;-0.37000
18480550;-0.36500
18483328;-0.36500
18486106;-0.36000
18488884;-0.36500
18491661;-0.36000
18494439;-0.36500
18497217;-0.36000
18499995;-0.36000
18502773;-0.37000
18505550;-0.39500
18508328;-0.44500
18511106;-0.48500
18513884;-0.49500
18516661;-0.52000
18519439;-0.55000
18522217;-0.55500
18524995;-0.47500
18527773;-0.35500
18530550;-0.18500
18533328;-0.01500
18536106;0.25000
18538884;0.53500
18541661;0.76500
18544439;0.87500
18547217;0.89000
18549995;0.71000
18552773;0.33000
18555550;-0.08000
18558328;-0.37500
18561106;-0.51000
18563884;-0.51000
18566661;-0.47000
18569439;-0.42500
18572217;-0.39500
18574995;-0.38500
18577773;-0.39000
18580550;-0.39500
18583328;-0.39500
18586106;-0.38500
18588884;-0.38000
18591661;-0.38500
18594439;-0.40000
18597217;-0.39500
18599995;-0.38000
18602773;-0.39000
18605550;-0.39500
18608328;-0.41500
18611106;-0.41000
18613884;-0.40500
18616661;-0.39500
18619439;-0.39500
18622217;-0.41000
18624995;-0.41500
18627773;-0.40000
18630550;-0.40500
18633328;-0.39500
18636106;-0.39500
18638884;-0.40000
18641661;-0.41000
18644439;-0.42500
18647217;-0.39000
18649995;-0.39000
18652773;-0.39000
18655550;-0.39000
18658328;-0.39500
18661106;-0.40000
18663884;-0.39000
18666661;-0.37500
18669439;-0.38500
18672217;-0.39500
18674995;-0.38500
18677773;-0.40000
18680550;-0.37500
18683328;-0.38000
18686106;-0.38500
18688884;-0.38000
18691661;-0.39500
18694439;-0.40500
18697217;-0.39500
18699995;-0.38500
18702773;-0.39000
18705550;-0.38000
18708328;-0.39000
18711106;-0.40000
18713884;-0.39500
18716661;-0.38500
18719439;-0.39000
18722217;-0.39000
18724995;-0.40000
18727773;-0.40000
18730550;-0.38500
18733328;-0.38000
18736106;-0.39000
18738884;-0.39000
18741661;-0.39500
18744439;-0.38500
18747217;-0.39000
18749995;-0.38000
18752773;-0.37500
18755550;-0.38500
18758328;-0.40000
18761106;-0.39500
18763884;-0.39000
18766661;-0.38000
18769439;-0.38500
18772217;-0.39000
18774995;-0.39500
18777773;-0.40500
18780550;-0.39500
18783328;-0.39000
18786106;-0.39500
18788884;-0.39500
18791661;-0.41500
18794439;-0.41000
18797217;-0.40000
18799995;-0.41500
18802773;-0.40000
18805550;-0.40500
18808328;-0.41000
18811106;-0.42000
18813884;-0.40000
18816661;-0.39000
18819439;-0.39000
18822217;-0.39500
18824995;-0.39500
18827773;-0.40500
18830550;-0.37500
18833328;-0.37000
18836106;-0.36000
18838884;-0.36000
18841661;-0.36500
18844439;-0.35500
18847217;-0.34000
18849995;-0.32500
18852772;-0.32000
18855550;-0.31500
18858328;-0.32000
18861106;-0.32000
18863884;-0.30500
18866661;-0.29500
18869439;-0.29500
18872217;-0.30000
18874995;-0.31000
18877772;-0.30500
18880550;-0.29500
18883328;-0.29000
18886106;-0.29000
18888884;-0.29500
18891661;-0.30000
18894439;-0.29000
18897217;-0.29000
18899995;-0.29000
18902772;-0.28500
18905550;-0.29500
18908328;-0.30500
18911106;-0.30500
18913884;-0.28500
18916661;-0.28500
18919439;-0.28500
18922217;-0.28500
18924995;-0.29500
18927772;-0.30500
18930550;-0.30000
18933328;-0.29500
18936106;-0.29500
18938884;-0.31000
18941661;-0.32000
18944439;-0.31500
18947217;-0.31000
18949995;-0.30500
18952772;-0.30500
18955550;-0.32000
18958328;-0.32000
18961106;-0.32000
18963884;-0.31500
18966661;-0.30000
18969439;-0.30000
18972217;-0.31000
18974995;-0.31500
18977772;-0.31500
18980550;-0.31500
18983328;-0.31500
18986106;-0.30000
18988884;-0.31500
18991661;-0.31000
18994439;-0.32500
18997217;-0.32500
18999995;-0.31500
19002772;-0.31500
19005550;-0.32000
19008328;-0.32500
19011106;-0.33500
19013884;-0.33000
19016661;-0.32500
19019439;-0.32500
19022217;-0.34000
19024995;-0.33500
19027772;-0.34500
19030550;-0.33000
19033328;-0.32000
19036106;-0.33000
19038884;-0.33500
19041661;-0.34000
19044439;-0.34500
19047217;-0.32500
19049995;-0.33500
19052772;-0.32500
19055550;-0.33000
19058328;-0.33500
19061106;-0.34000
19063884;-0.33500
19066661;-0.32500
19069439;-0.33000
19072217;-0.33000
19074995;-0.34000
19077772;-0.33500
19080550;-0.32500
19083328;-0.31500
19086106;-0.34000
19088884;-0.34500
19091661;-0.34000
19094439;-0.34000
19097217;-0.33000
19099995;-0.32000
19102772;-0.31500
19105550;-0.31500
19108328;-0.33500
19111106;-0.33000
19113884;-0.32000
19116661;-0.30500
19119439;-0.31500
19122217;-0.33000
19124995;-0.33000
19127772;-0.34000
19130550;-0.32500
19133328;-0.32000
19136106;-0.31500
19138884;-0.31000
19141661;-0.32000
19144439;-0.32500
19147217;-0.29500
19149995;-0.28000
19152772;-0.28000
19155550;-0.27000
19158328;-0.27500
19161106;-0.28000
