time_ms;ecg_value
0;-0.53500
2778;-0.59000
5556;-0.63500
8333;-0.63000
11111;-0.56500
13889;-0.45000
16667;-0.32000
19444;-0.20000
22222;-0.03500
25000;0.19500
27778;0.46500
30556;0.71000
33333;0.88000
36111;0.92500
38889;0.79000
41667;0.45000
44444;0.02000
47222;-0.34000
50000;-0.51000
52778;-0.54000
55556;-0.50000
58333;-0.44500
61111;-0.42500
63889;-0.42000
66667;-0.41500
69444;-0.43000
72222;-0.44500
75000;-0.44500
77778;-0.43500
80556;-0.43000
83333;-0.42500
86111;-0.45000
88889;-0.46000
91667;-0.44500
94444;-0.43500
97222;-0.41500
100000;-0.43000
102778;-0.42500
105556;-0.44500
108333;-0.44000
111111;-0.42000
113889;-0.41500
116667;-0.41500
119444;-0.41500
122222;-0.43500
125000;-0.43000
127778;-0.42000
130556;-0.42500
133333;-0.42500
136111;-0.43000
138889;-0.44000
141667;-0.43500
144444;-0.43500
147222;-0.43000
150000;-0.43500
152778;-0.45000
155556;-0.46000
158333;-0.44500
161111;-0.45000
163889;-0.44500
166667;-0.44000
169444;-0.44000
172222;-0.44500
175000;-0.44500
177778;-0.43000
180556;-0.41500
183333;-0.42000
186111;-0.42000
188889;-0.43500
191667;-0.42500
194444;-0.43000
197222;-0.40500
200000;-0.41000
202778;-0.41500
205555;-0.43500
208333;-0.42000
211111;-0.42000
213889;-0.42500
216667;-0.43000
219444;-0.42500
222222;-0.43000
225000;-0.44000
227778;-0.42000
230555;-0.42000
233333;-0.42000
236111;-0.42500
238889;-0.44000
241667;-0.44000
244444;-0.44000
247222;-0.43500
250000;-0.44500
252778;-0.45500
255555;-0.47000
258333;-0.46500
261111;-0.45000
263889;-0.45000
266667;-0.45000
269444;-0.46000
272222;-0.47000
275000;-0.47000
277778;-0.47000
280555;-0.46000
283333;-0.46000
286111;-0.48000
288889;-0.49000
291667;-0.48500
294444;-0.47500
297222;-0.48000
300000;-0.48000
302778;-0.48000
305555;-0.49500
308333;-0.49000
311111;-0.48000
313889;-0.46500
316667;-0.46500
319444;-0.46000
322222;-0.46500
325000;-0.46000
327778;-0.43000
330555;-0.41000
333333;-0.39000
336111;-0.39500
338889;-0.39500
341667;-0.37500
344444;-0.36500
347222;-0.34000
350000;-0.32500
352778;-0.32500
355555;-0.32000
358333;-0.32000
361111;-0.30500
363889;-0.29500
366667;-0.29000
369444;-0.30500
372222;-0.30000
375000;-0.30500
377778;-0.29500
380555;-0.28500
383333;-0.29000
386111;-0.30500
388889;-0.30000
391667;-0.30000
394444;-0.28500
397222;-0.27500
400000;-0.27500
402778;-0.28500
405555;-0.29500
408333;-0.29500
411111;-0.28500
413889;-0.27500
416667;-0.27500
419444;-0.29500
422222;-0.30000
425000;-0.29500
427778;-0.29000
430555;-0.29500
433333;-0.29500
436111;-0.30500
438889;-0.32000
441667;-0.31500
444444;-0.31000
447222;-0.31000
450000;-0.31000
452778;-0.31000
455555;-0.32000
458333;-0.32000
461111;-0.29500
463889;-0.31000
466667;-0.31000
469444;-0.31500
472222;-0.32000
475000;-0.32000
477778;-0.30500
480555;-0.30000
483333;-0.30000
486111;-0.31500
488889;-0.32500
491667;-0.33000
494444;-0.33000
497222;-0.31000
500000;-0.31500
502778;-0.32000
505555;-0.34000
508333;-0.34000
511111;-0.32500
513889;-0.32000
516667;-0.33500
519444;-0.35000
522222;-0.35500
525000;-0.35000
527778;-0.34000
530555;-0.31500
533333;-0.32500
536111;-0.32000
538889;-0.33000
541667;-0.32500
544444;-0.32000
547222;-0.31500
550000;-0.31000
552778;-0.32500
555555;-0.33000
558333;-0.33000
561111;-0.31500
563889;-0.30500
566667;-0.31000
569444;-0.31000
572222;-0.33000
575000;-0.32000
577778;-0.31000
580555;-0.31000
583333;-0.32000
586111;-0.33000
588889;-0.33500
591667;-0.33000
594444;-0.33000
597222;-0.31000
600000;-0.31000
602778;-0.31000
605555;-0.31500
608333;-0.31500
611111;-0.31000
613889;-0.29500
616666;-0.30000
619444;-0.31000
622222;-0.32000
625000;-0.32000
627778;-0.31500
630555;-0.29500
633333;-0.29500
636111;-0.29500
638889;-0.29000
641666;-0.28500
644444;-0.26500
647222;-0.24000
650000;-0.24500
652778;-0.25500
655555;-0.24500
658333;-0.24000
661111;-0.22500
663889;-0.22000
666666;-0.21500
669444;-0.22000
672222;-0.22000
675000;-0.22000
677778;-0.22000
680555;-0.21500
683333;-0.21000
686111;-0.22500
688889;-0.23500
691666;-0.24000
694444;-0.21500
697222;-0.21000
700000;-0.22000
702778;-0.23500
705555;-0.22500
708333;-0.19500
711111;-0.17500
713889;-0.18500
716666;-0.22000
719444;-0.24500
722222;-0.28000
725000;-0.28500
727778;-0.29000
730555;-0.28500
733333;-0.30500
736111;-0.31500
738889;-0.33500
741666;-0.34500
744444;-0.33000
747222;-0.31000
750000;-0.33000
752778;-0.34000
755555;-0.34000
758333;-0.34000
761111;-0.34000
763889;-0.33500
766666;-0.32500
769444;-0.33500
772222;-0.34000
775000;-0.34000
777778;-0.34000
780555;-0.32500
783333;-0.32500
786111;-0.33000
788889;-0.34000
791666;-0.35000
794444;-0.33000
797222;-0.32000
800000;-0.32000
802778;-0.33500
805555;-0.34500
808333;-0.37500
811111;-0.40500
813889;-0.43000
816666;-0.44500
819444;-0.46500
822222;-0.49500
825000;-0.52500
827778;-0.53500
830555;-0.45500
833333;-0.31000
836111;-0.14000
838889;0.02000
841666;0.24500
844444;0.52000
847222;0.79000
850000;1.00500
852778;1.10000
855555;1.09000
858333;0.91500
861111;0.54500
863889;0.08500
866666;-0.27000
869444;-0.42000
872222;-0.42500
875000;-0.38000
877778;-0.33500
880555;-0.32000
883333;-0.33500
886111;-0.35000
888889;-0.36000
891666;-0.36500
894444;-0.36000
897222;-0.35500
900000;-0.36500
902778;-0.38000
905555;-0.39000
908333;-0.38500
911111;-0.37000
913889;-0.35500
916666;-0.37000
919444;-0.38000
922222;-0.38000
925000;-0.39500
927778;-0.38500
930555;-0.36500
933333;-0.37000
936111;-0.37500
938889;-0.36500
941666;-0.37000
944444;-0.37000
947222;-0.36000
950000;-0.36000
952778;-0.36000
955555;-0.37500
958333;-0.36500
961111;-0.36000
963889;-0.34500
966666;-0.35000
969444;-0.36500
972222;-0.37500
975000;-0.36500
977778;-0.36000
980555;-0.35500
983333;-0.36000
986111;-0.37000
988889;-0.39000
991666;-0.38500
994444;-0.36000
997222;-0.36000
1000000;-0.36000
1002777;-0.38000
1005555;-0.38500
1008333;-0.37000
1011111;-0.36000
1013889;-0.35500
1016666;-0.35500
1019444;-0.36500
1022222;-0.37000
1025000;-0.37000
1027777;-0.36500
1030555;-0.36500
1033333;-0.35000
1036111;-0.37000
1038889;-0.37500
1041666;-0.37000
1044444;-0.35500
1047222;-0.35000
1050000;-0.36000
1052777;-0.36500
1055555;-0.36500
1058333;-0.38000
1061111;-0.37500
1063889;-0.37500
1066666;-0.37000
1069444;-0.37500
1072222;-0.38500
1075000;-0.38000
1077777;-0.38000
1080555;-0.36500
1083333;-0.36000
1086111;-0.37500
1088889;-0.38000
1091666;-0.37500
1094444;-0.37500
1097222;-0.35500
1100000;-0.35500
1102777;-0.37000
1105555;-0.38500
1108333;-0.38000
1111111;-0.36500
1113889;-0.36000
1116666;-0.36500
1119444;-0.38000
1122222;-0.38500
1125000;-0.38500
1127777;-0.37000
1130555;-0.35500
1133333;-0.36000
1136111;-0.36500
1138889;-0.38000
1141666;-0.37500
1144444;-0.36000
1147222;-0.36000
1150000;-0.34500
1152777;-0.35000
1155555;-0.34500
1158333;-0.33500
1161111;-0.32000
1163889;-0.30500
1166666;-0.29000
1169444;-0.28500
1172222;-0.28000
1175000;-0.28000
1177777;-0.25500
1180555;-0.24500
1183333;-0.24500
1186111;-0.23500
1188889;-0.24000
1191666;-0.25500
1194444;-0.23500
1197222;-0.23000
1200000;-0.22500
1202777;-0.23000
1205555;-0.23500
1208333;-0.23500
1211111;-0.22500
1213889;-0.22500
1216666;-0.22000
1219444;-0.22500
1222222;-0.25500
1225000;-0.25500
1227777;-0.23500
1230555;-0.23000
1233333;-0.23500
1236111;-0.24500
1238889;-0.24500
1241666;-0.25000
1244444;-0.25000
1247222;-0.23000
1250000;-0.23500
1252777;-0.23500
1255555;-0.23500
1258333;-0.23500
1261111;-0.23500
1263889;-0.22000
1266666;-0.24000
1269444;-0.24500
1272222;-0.25000
1275000;-0.26000
1277777;-0.24000
1280555;-0.23000
1283333;-0.23500
1286111;-0.24500
1288889;-0.26500
1291666;-0.26500
1294444;-0.25000
1297222;-0.24000
1300000;-0.25000
1302777;-0.26000
1305555;-0.27500
1308333;-0.26500
1311111;-0.26000
1313889;-0.26000
1316666;-0.25500
1319444;-0.26500
1322222;-0.28500
1325000;-0.27000
1327777;-0.26000
1330555;-0.25500
1333333;-0.25000
1336111;-0.26000
1338889;-0.27000
1341666;-0.27000
1344444;-0.26500
1347222;-0.26500
1350000;-0.26500
1352777;-0.28000
1355555;-0.28000
1358333;-0.28500
1361111;-0.28000
1363889;-0.26500
1366666;-0.29000
1369444;-0.28500
1372222;-0.30000
1375000;-0.29500
1377777;-0.29000
1380555;-0.28000
1383333;-0.27500
1386111;-0.28000
1388888;-0.29500
1391666;-0.29500
1394444;-0.27000
1397222;-0.26000
1400000;-0.26500
1402777;-0.27000
1405555;-0.28500
1408333;-0.28500
1411111;-0.25000
1413888;-0.25500
1416666;-0.25500
1419444;-0.27500
1422222;-0.28000
1425000;-0.27500
1427777;-0.26500
1430555;-0.25000
1433333;-0.26500
1436111;-0.26500
1438888;-0.27500
1441666;-0.27000
1444444;-0.26500
1447222;-0.25000
1450000;-0.25500
1452777;-0.26000
1455555;-0.27500
1458333;-0.28000
1461111;-0.26000
1463888;-0.26000
1466666;-0.25500
1469444;-0.24000
1472222;-0.23000
1475000;-0.22000
1477777;-0.21500
1480555;-0.19500
1483333;-0.19500
1486111;-0.20000
1488888;-0.20500
1491666;-0.20500
1494444;-0.18500
1497222;-0.16000
1500000;-0.16500
1502777;-0.17500
1505555;-0.19000
1508333;-0.17500
1511111;-0.16500
1513888;-0.15500
1516666;-0.16500
1519444;-0.18500
1522222;-0.19000
1525000;-0.19000
1527777;-0.18500
1530555;-0.18000
1533333;-0.17500
1536111;-0.19500
1538888;-0.19000
1541666;-0.16500
1544444;-0.14500
1547222;-0.13500
1550000;-0.14500
1552777;-0.19000
1555555;-0.22000
1558333;-0.23500
1561111;-0.24000
1563888;-0.23000
1566666;-0.25500
1569444;-0.27000
1572222;-0.28500
1575000;-0.29500
1577777;-0.29000
1580555;-0.29000
1583333;-0.28500
1586111;-0.29000
1588888;-0.31000
1591666;-0.30500
1594444;-0.30000
1597222;-0.29000
1600000;-0.29500
1602777;-0.29500
1605555;-0.32000
1608333;-0.32000
1611111;-0.31000
1613888;-0.30500
1616666;-0.29000
1619444;-0.30000
1622222;-0.31000
1625000;-0.30500
1627777;-0.30000
1630555;-0.28500
1633333;-0.30500
1636111;-0.29500
1638888;-0.31000
1641666;-0.30500
1644444;-0.31500
1647222;-0.30500
1650000;-0.32500
1652777;-0.37500
1655555;-0.42000
1658333;-0.44500
1661111;-0.44500
1663888;-0.47500
1666666;-0.51000
1669444;-0.51000
1672222;-0.43500
1675000;-0.29000
1677777;-0.12500
1680555;0.05500
1683333;0.26000
1686111;0.52000
1688888;0.79000
1691666;0.99500
1694444;1.10000
1697222;1.06500
1700000;0.82000
1702777;0.42000
1705555;-0.00500
1708333;-0.31000
1711111;-0.41500
1713888;-0.40000
1716666;-0.35000
1719444;-0.32500
1722222;-0.33500
1725000;-0.34000
1727777;-0.32500
1730555;-0.32000
1733333;-0.32500
1736111;-0.34500
1738888;-0.35000
1741666;-0.35500
1744444;-0.35000
1747222;-0.33500
1750000;-0.34000
1752777;-0.33000
1755555;-0.35500
1758333;-0.35000
1761111;-0.34000
1763888;-0.33500
1766666;-0.33500
1769444;-0.33500
1772222;-0.34000
1775000;-0.34500
1777777;-0.33500
1780555;-0.33000
1783333;-0.33000
1786111;-0.33000
1788888;-0.34500
1791666;-0.34500
1794444;-0.33000
1797222;-0.33500
1799999;-0.33000
1802777;-0.34500
1805555;-0.33500
1808333;-0.35000
1811111;-0.33500
1813888;-0.33000
1816666;-0.33500
1819444;-0.34000
1822222;-0.34500
1824999;-0.35000
1827777;-0.34000
1830555;-0.32500
1833333;-0.33000
1836111;-0.35000
1838888;-0.35500
1841666;-0.35000
1844444;-0.34000
1847222;-0.32000
1849999;-0.33000
1852777;-0.34000
1855555;-0.35000
1858333;-0.34000
1861111;-0.33500
1863888;-0.32500
1866666;-0.33500
1869444;-0.34000
1872222;-0.35000
1874999;-0.34500
1877777;-0.35000
1880555;-0.32500
1883333;-0.32500
1886111;-0.34000
1888888;-0.35000
1891666;-0.35000
1894444;-0.34000
1897222;-0.33000
1899999;-0.33000
1902777;-0.34500
1905555;-0.34500
1908333;-0.35000
1911111;-0.34000
1913888;-0.32500
1916666;-0.33500
1919444;-0.34000
1922222;-0.36000
1924999;-0.34500
1927777;-0.35000
1930555;-0.33500
1933333;-0.33000
1936111;-0.34500
1938888;-0.34500
1941666;-0.35000
1944444;-0.34500
1947222;-0.33500
1949999;-0.34000
1952777;-0.34000
1955555;-0.35000
1958333;-0.36000
1961111;-0.34500
1963888;-0.33500
1966666;-0.34000
1969444;-0.35000
1972222;-0.35500
1974999;-0.36500
1977777;-0.35500
1980555;-0.33000
1983333;-0.33000
1986111;-0.33000
1988888;-0.34000
1991666;-0.35500
1994444;-0.33500
1997222;-0.30500
1999999;-0.30000
2002777;-0.29500
2005555;-0.29500
2008333;-0.29000
2011111;-0.27500
2013888;-0.27000
2016666;-0.26000
2019444;-0.25000
2022222;-0.26000
2024999;-0.25000
2027777;-0.24000
2030555;-0.22000
2033333;-0.22500
2036111;-0.23000
2038888;-0.24000
2041666;-0.22500
2044444;-0.21500
2047222;-0.20500
2049999;-0.20000
2052777;-0.21000
2055555;-0.22000
2058333;-0.21500
2061111;-0.20000
2063888;-0.19500
2066666;-0.21000
2069444;-0.21500
2072222;-0.21500
2074999;-0.21500
2077777;-0.19500
2080555;-0.19500
2083333;-0.19500
2086111;-0.21000
2088888;-0.23000
2091666;-0.21000
2094444;-0.21500
2097222;-0.21000
2099999;-0.20500
2102777;-0.20500
2105555;-0.21500
2108333;-0.22500
2111111;-0.21500
2113888;-0.20500
2116666;-0.21500
2119444;-0.22500
2122222;-0.23500
2124999;-0.21500
2127777;-0.22000
2130555;-0.21000
2133333;-0.21000
2136111;-0.22500
2138888;-0.23000
2141666;-0.23500
2144444;-0.23000
2147222;-0.23000
2149999;-0.23500
2152777;-0.24500
2155555;-0.24500
2158333;-0.24500
2161111;-0.23500
2163888;-0.23000
2166666;-0.24500
2169444;-0.25500
2172222;-0.26000
2174999;-0.26500
2177777;-0.25500
2180555;-0.24500
2183333;-0.25500
2186110;-0.25500
2188888;-0.26500
2191666;-0.27500
2194444;-0.26500
2197222;-0.24000
2199999;-0.24500
2202777;-0.25500
2205555;-0.26000
2208333;-0.26000
2211110;-0.25500
2213888;-0.25000
2216666;-0.26500
2219444;-0.26000
2222222;-0.26000
2224999;-0.25000
2227777;-0.24500
2230555;-0.24500
2233333;-0.24000
2236110;-0.25000
2238888;-0.26500
2241666;-0.26000
2244444;-0.25000
2247222;-0.24500
2249999;-0.26000
2252777;-0.26500
2255555;-0.26000
2258333;-0.26000
2261110;-0.25500
2263888;-0.24500
2266666;-0.25000
2269444;-0.26500
2272222;-0.26500
2274999;-0.27500
2277777;-0.26500
2280555;-0.25000
2283333;-0.25000
2286110;-0.25000
2288888;-0.27000
2291666;-0.26000
2294444;-0.26000
2297222;-0.25000
2299999;-0.25500
2302777;-0.25500
2305555;-0.25500
2308333;-0.25000
2311110;-0.24000
2313888;-0.21000
2316666;-0.21500
2319444;-0.21000
2322222;-0.21500
2324999;-0.22000
2327777;-0.20000
2330555;-0.18500
2333333;-0.18000
2336110;-0.18500
2338888;-0.18000
2341666;-0.17000
2344444;-0.15500
2347222;-0.14500
2349999;-0.15000
2352777;-0.15500
2355555;-0.17000
2358333;-0.18000
2361110;-0.17000
2363888;-0.17500
2366666;-0.18500
2369444;-0.19000
2372222;-0.20000
2374999;-0.20000
2377777;-0.19500
2380555;-0.17500
2383333;-0.15500
2386110;-0.15500
2388888;-0.15500
2391666;-0.17000
2394444;-0.19000
2397222;-0.21000
2399999;-0.23000
2402777;-0.23500
2405555;-0.25000
2408333;-0.26000
2411110;-0.27000
2413888;-0.25500
2416666;-0.26500
2419444;-0.28000
2422222;-0.29000
2424999;-0.29000
2427777;-0.28000
2430555;-0.27500
2433333;-0.29500
2436110;-0.29000
2438888;-0.31000
2441666;-0.32500
2444444;-0.29000
2447222;-0.29000
2449999;-0.29500
2452777;-0.30500
2455555;-0.32000
2458333;-0.31500
2461110;-0.29500
2463888;-0.29000
2466666;-0.30000
2469444;-0.29000
2472222;-0.30500
2474999;-0.31500
2477777;-0.32000
2480555;-0.31500
2483333;-0.33000
2486110;-0.37500
2488888;-0.41500
2491666;-0.45500
2494444;-0.45500
2497222;-0.49000
2499999;-0.53500
2502777;-0.54500
2505555;-0.47500
2508333;-0.39500
2511110;-0.29000
2513888;-0.20500
2516666;-0.13000
2519444;-0.03500
2522222;0.06500
2524999;0.21500
2527777;0.41500
2530555;0.63500
2533333;0.77500
2536110;0.90500
2538888;0.97500
2541666;0.90500
2544444;0.67500
2547222;0.30500
2549999;-0.08000
2552777;-0.35000
2555555;-0.46000
2558333;-0.45500
2561110;-0.41000
2563888;-0.36500
2566666;-0.35500
2569444;-0.35500
2572222;-0.36500
2574999;-0.35500
2577777;-0.34500
2580555;-0.32500
2583333;-0.33500
2586110;-0.34500
2588888;-0.36000
2591666;-0.37000
2594444;-0.35500
2597221;-0.34000
2599999;-0.34500
2602777;-0.35000
2605555;-0.36000
2608333;-0.37500
2611110;-0.36000
2613888;-0.34000
2616666;-0.35000
2619444;-0.35500
2622221;-0.35000
2624999;-0.36000
2627777;-0.35500
2630555;-0.34500
2633333;-0.35500
2636110;-0.37500
2638888;-0.39000
2641666;-0.38500
2644444;-0.37000
2647221;-0.35500
2649999;-0.35000
2652777;-0.36000
2655555;-0.37000
2658333;-0.37000
2661110;-0.37000
2663888;-0.36000
2666666;-0.35000
2669444;-0.36000
2672221;-0.36500
2674999;-0.37000
2677777;-0.36500
2680555;-0.36500
2683333;-0.36000
2686110;-0.36000
2688888;-0.37000
2691666;-0.37000
2694444;-0.36500
2697221;-0.36000
2699999;-0.37500
2702777;-0.38500
2705555;-0.40000
2708333;-0.40500
2711110;-0.39500
2713888;-0.38000
2716666;-0.37000
2719444;-0.37000
2722221;-0.38000
2724999;-0.38500
2727777;-0.37000
2730555;-0.36000
2733333;-0.37000
2736110;-0.37000
2738888;-0.38000
2741666;-0.38500
2744444;-0.37500
2747221;-0.37000
2749999;-0.37000
2752777;-0.37500
2755555;-0.37500
2758333;-0.38500
2761110;-0.37500
2763888;-0.37000
2766666;-0.39000
2769444;-0.40000
2772221;-0.40500
2774999;-0.41500
2777777;-0.40000
2780555;-0.40500
2783333;-0.41000
2786110;-0.43000
2788888;-0.43500
2791666;-0.44500
2794444;-0.43000
2797221;-0.41000
2799999;-0.41000
2802777;-0.42500
2805555;-0.42500
2808333;-0.44500
2811110;-0.43000
2813888;-0.42000
2816666;-0.42000
2819444;-0.42000
2822221;-0.43500
2824999;-0.42500
2827777;-0.40500
2830555;-0.38500
2833333;-0.38500
2836110;-0.39000
2838888;-0.38500
2841666;-0.38000
2844444;-0.36500
2847221;-0.34500
2849999;-0.34000
2852777;-0.33000
2855555;-0.32500
2858333;-0.31000
2861110;-0.30000
2863888;-0.28500
2866666;-0.30500
2869444;-0.30500
2872221;-0.32000
2874999;-0.30000
2877777;-0.28500
2880555;-0.27000
2883333;-0.27000
2886110;-0.27500
2888888;-0.28000
2891666;-0.27500
2894444;-0.27000
2897221;-0.27000
2899999;-0.28500
2902777;-0.29000
2905555;-0.29000
2908333;-0.29500
2911110;-0.29000
2913888;-0.27500
2916666;-0.28000
2919444;-0.28500
2922221;-0.29500
2924999;-0.30000
2927777;-0.30000
2930555;-0.28000
2933333;-0.27500
2936110;-0.27500
2938888;-0.29000
2941666;-0.30000
2944444;-0.31000
2947221;-0.30500
2949999;-0.32000
2952777;-0.31000
2955555;-0.31500
2958333;-0.32500
2961110;-0.31000
2963888;-0.29000
2966666;-0.29000
2969444;-0.30000
2972221;-0.32500
2974999;-0.32500
2977777;-0.32500
2980555;-0.32000
2983332;-0.32500
2986110;-0.32500
2988888;-0.33000
2991666;-0.33000
2994444;-0.32000
2997221;-0.32000
2999999;-0.33500
3002777;-0.34000
3005555;-0.34000
3008332;-0.35500
3011110;-0.33500
3013888;-0.33000
3016666;-0.33500
3019444;-0.35000
3022221;-0.35500
3024999;-0.36000
3027777;-0.35000
3030555;-0.33500
3033332;-0.35000
3036110;-0.35000
3038888;-0.34000
3041666;-0.34500
3044444;-0.34000
3047221;-0.33000
3049999;-0.33500
3052777;-0.34000
3055555;-0.36500
3058332;-0.35000
3061110;-0.34000
3063888;-0.34500
3066666;-0.35000
3069444;-0.35500
3072221;-0.36000
3074999;-0.35000
3077777;-0.35000
3080555;-0.32500
3083332;-0.34000
3086110;-0.35000
3088888;-0.35500
3091666;-0.37000
3094444;-0.36000
3097221;-0.35500
3099999;-0.36500
3102777;-0.35500
3105555;-0.36000
3108332;-0.34500
3111110;-0.34500
3113888;-0.34500
3116666;-0.34500
3119444;-0.35500
3122221;-0.36000
3124999;-0.36000
3127777;-0.35000
3130555;-0.34500
3133332;-0.35000
3136110;-0.35500
3138888;-0.35500
3141666;-0.35500
3144444;-0.34000
3147221;-0.31500
3149999;-0.32000
3152777;-0.32500
3155555;-0.32500
3158332;-0.30500
3161110;-0.27500
3163888;-0.27000
3166666;-0.28500
3169444;-0.30500
3172221;-0.29000
3174999;-0.28000
3177777;-0.27000
3180555;-0.26000
3183332;-0.26000
3186110;-0.26000
3188888;-0.26000
3191666;-0.25500
3194444;-0.24500
3197221;-0.25000
3199999;-0.25500
3202777;-0.27000
3205555;-0.28500
3208332;-0.30000
3211110;-0.30500
3213888;-0.30000
3216666;-0.28500
3219444;-0.26500
3222221;-0.26000
3224999;-0.27000
3227777;-0.30000
3230555;-0.31500
3233332;-0.32500
3236110;-0.35500
3238888;-0.37500
3241666;-0.37500
3244444;-0.38500
3247221;-0.38500
3249999;-0.39000
3252777;-0.38000
3255555;-0.38500
3258332;-0.39500
3261110;-0.37500
3263888;-0.36500
3266666;-0.38500
3269444;-0.40000
3272221;-0.40500
3274999;-0.41500
3277777;-0.40000
3280555;-0.39500
3283332;-0.39000
3286110;-0.39500
3288888;-0.40500
3291666;-0.41000
3294444;-0.39500
3297221;-0.39000
3299999;-0.38500
3302777;-0.39500
3305555;-0.40000
3308332;-0.39500
3311110;-0.39500
3313888;-0.39500
3316666;-0.41000
3319444;-0.46000
3322221;-0.50000
3324999;-0.50500
3327777;-0.49000
3330555;-0.48000
3333332;-0.50000
3336110;-0.55500
3338888;-0.59500
3341666;-0.57500
3344444;-0.46500
3347221;-0.31000
3349999;-0.14000
3352777;0.07000
3355555;0.31000
3358332;0.59000
3361110;0.82500
3363888;0.97000
3366666;0.94500
3369444;0.71500
3372221;0.30000
3374999;-0.14500
3377777;-0.41500
3380555;-0.51000
3383332;-0.49500
3386110;-0.47500
3388888;-0.45000
3391666;-0.43500
3394443;-0.42500
3397221;-0.41000
3399999;-0.42000
3402777;-0.43000
3405555;-0.44000
3408332;-0.44500
3411110;-0.42500
3413888;-0.42000
3416666;-0.43000
3419443;-0.43500
3422221;-0.44000
3424999;-0.44000
3427777;-0.42500
3430555;-0.41000
3433332;-0.42000
3436110;-0.42000
3438888;-0.42000
3441666;-0.42500
3444443;-0.42000
3447221;-0.40500
3449999;-0.41000
3452777;-0.42000
3455555;-0.42500
3458332;-0.43500
3461110;-0.41000
3463888;-0.41000
3466666;-0.42500
3469443;-0.43000
3472221;-0.42500
3474999;-0.43000
3477777;-0.43000
3480555;-0.42000
3483332;-0.41500
3486110;-0.43000
3488888;-0.43000
3491666;-0.43000
3494443;-0.42500
3497221;-0.41500
3499999;-0.40500
3502777;-0.40500
3505555;-0.42500
3508332;-0.43000
3511110;-0.41000
3513888;-0.40000
3516666;-0.41500
3519443;-0.42500
3522221;-0.43000
3524999;-0.43500
3527777;-0.43000
3530555;-0.41000
3533332;-0.41500
3536110;-0.42000
3538888;-0.43000
3541666;-0.42500
3544443;-0.41000
3547221;-0.40500
3549999;-0.40500
3552777;-0.41000
3555555;-0.43500
3558332;-0.43000
3561110;-0.41500
3563888;-0.40000
3566666;-0.40500
3569443;-0.42000
3572221;-0.43000
3574999;-0.43000
3577777;-0.42000
3580555;-0.41500
3583332;-0.41500
3586110;-0.42000
3588888;-0.43000
3591666;-0.43500
3594443;-0.42500
3597221;-0.43000
3599999;-0.44000
3602777;-0.44500
3605555;-0.46000
3608332;-0.47500
3611110;-0.46000
3613888;-0.46000
3616666;-0.47000
3619443;-0.46500
3622221;-0.47500
3624999;-0.48000
3627777;-0.46500
3630555;-0.45000
3633332;-0.45000
3636110;-0.46000
3638888;-0.47000
3641666;-0.48000
3644443;-0.47000
3647221;-0.46000
3649999;-0.46500
3652777;-0.46000
3655555;-0.47000
3658332;-0.48500
3661110;-0.46000
3663888;-0.43500
3666666;-0.44500
3669443;-0.43500
3672221;-0.43000
3674999;-0.41000
3677777;-0.39500
3680555;-0.36500
3683332;-0.37000
3686110;-0.36000
3688888;-0.35500
3691666;-0.34500
3694443;-0.34000
3697221;-0.32000
3699999;-0.30500
3702777;-0.30500
3705555;-0.32000
3708332;-0.32500
3711110;-0.30500
3713888;-0.30000
3716666;-0.29000
3719443;-0.30000
3722221;-0.30500
3724999;-0.30500
3727777;-0.30000
3730555;-0.28500
3733332;-0.29000
3736110;-0.29500
3738888;-0.29000
3741666;-0.29500
3744443;-0.29000
3747221;-0.27500
3749999;-0.28500
3752777;-0.28500
3755555;-0.30500
3758332;-0.29500
3761110;-0.29000
3763888;-0.29000
3766666;-0.29000
3769443;-0.30500
3772221;-0.30500
3774999;-0.31500
3777777;-0.29500
3780554;-0.29500
3783332;-0.30000
3786110;-0.31000
3788888;-0.30500
3791666;-0.32000
3794443;-0.30000
3797221;-0.30000
3799999;-0.31000
3802777;-0.31000
3805554;-0.32000
3808332;-0.31500
3811110;-0.32500
3813888;-0.30000
3816666;-0.30000
3819443;-0.30000
3822221;-0.31500
3824999;-0.31500
3827777;-0.30500
3830554;-0.31000
3833332;-0.32000
3836110;-0.31500
3838888;-0.33000
3841666;-0.32500
3844443;-0.32000
3847221;-0.30000
3849999;-0.30500
3852777;-0.31000
3855554;-0.32500
3858332;-0.33500
3861110;-0.32000
3863888;-0.30500
3866666;-0.30500
3869443;-0.31500
3872221;-0.33500
3874999;-0.33000
3877777;-0.33000
3880554;-0.31000
3883332;-0.31500
3886110;-0.32500
3888888;-0.32500
3891666;-0.34500
3894443;-0.32000
3897221;-0.30000
3899999;-0.30000
3902777;-0.31500
3905554;-0.31500
3908332;-0.32000
3911110;-0.31500
3913888;-0.30500
3916666;-0.31000
3919443;-0.31500
3922221;-0.31500
3924999;-0.31500
3927777;-0.31000
3930554;-0.29500
3933332;-0.30500
3936110;-0.32000
3938888;-0.31500
3941666;-0.32500
3944443;-0.31500
3947221;-0.31000
3949999;-0.31000
3952777;-0.30500
3955554;-0.31500
3958332;-0.31000
3961110;-0.30500
3963888;-0.29000
3966666;-0.31000
3969443;-0.32000
3972221;-0.32000
3974999;-0.30500
3977777;-0.29500
3980554;-0.27500
3983332;-0.26000
3986110;-0.25000
3988888;-0.24500
3991666;-0.24000
3994443;-0.23500
3997221;-0.22000
3999999;-0.22000
4002777;-0.22000
4005554;-0.22000
4008332;-0.22500
4011110;-0.22500
4013888;-0.21000
4016666;-0.19500
4019443;-0.19000
4022221;-0.20000
4024999;-0.20000
4027777;-0.17500
4030554;-0.17000
4033332;-0.18000
4036110;-0.19000
4038888;-0.20500
4041666;-0.22000
4044443;-0.22000
4047221;-0.21500
4049999;-0.21000
4052777;-0.23500
4055554;-0.23500
4058332;-0.22500
4061110;-0.18500
4063888;-0.16500
4066666;-0.19000
4069443;-0.22000
4072221;-0.25000
4074999;-0.27000
4077777;-0.27000
4080554;-0.28000
4083332;-0.29500
4086110;-0.31000
4088888;-0.32500
4091666;-0.32500
4094443;-0.32000
4097221;-0.30500
4099999;-0.31000
4102777;-0.32000
4105554;-0.33000
4108332;-0.33500
4111110;-0.33000
4113888;-0.31500
4116666;-0.32000
4119443;-0.32500
4122221;-0.33000
4124999;-0.33500
4127777;-0.32500
4130554;-0.31500
4133332;-0.32000
4136110;-0.31000
4138888;-0.32000
4141666;-0.33000
4144443;-0.33500
4147221;-0.35500
4149999;-0.40500
4152777;-0.44500
4155554;-0.47500
4158332;-0.51000
4161110;-0.52500
4163888;-0.51500
4166666;-0.42500
4169443;-0.28000
4172221;-0.12000
4174999;0.05000
4177777;0.22500
4180554;0.46000
4183332;0.73500
4186110;0.97000
4188888;1.11500
4191665;1.18500
4194443;1.15500
4197221;0.88000
4199999;0.38500
4202777;-0.13000
4205554;-0.40500
4208332;-0.44500
4211110;-0.40000
4213888;-0.32500
4216665;-0.31000
4219443;-0.33500
4222221;-0.34500
4224999;-0.35000
4227777;-0.35000
4230554;-0.33500
4233332;-0.35000
4236110;-0.36500
4238888;-0.38000
4241665;-0.38000
4244443;-0.35500
4247221;-0.37000
4249999;-0.36500
4252777;-0.37000
4255554;-0.37500
4258332;-0.38000
4261110;-0.37000
4263888;-0.36000
4266665;-0.36000
4269443;-0.36500
4272221;-0.37500
4274999;-0.39000
4277777;-0.38000
4280554;-0.36000
4283332;-0.36500
4286110;-0.36500
4288888;-0.38000
4291665;-0.38500
4294443;-0.38000
4297221;-0.36500
4299999;-0.36500
4302777;-0.37500
4305554;-0.37500
4308332;-0.37000
4311110;-0.36500
4313888;-0.35500
4316665;-0.37000
4319443;-0.37000
4322221;-0.38000
4324999;-0.38000
4327777;-0.37500
4330554;-0.36500
4333332;-0.37500
4336110;-0.36000
4338888;-0.39000
4341665;-0.39500
4344443;-0.38000
4347221;-0.37500
4349999;-0.36000
4352777;-0.37000
4355554;-0.37500
4358332;-0.38500
4361110;-0.37000
4363888;-0.35500
4366665;-0.37000
4369443;-0.37500
4372221;-0.38500
4374999;-0.38500
4377777;-0.38500
4380554;-0.37000
4383332;-0.36500
4386110;-0.37500
4388888;-0.37500
4391665;-0.38000
4394443;-0.37000
4397221;-0.36500
4399999;-0.37000
4402777;-0.36500
4405554;-0.38000
4408332;-0.39000
4411110;-0.38000
4413888;-0.37000
4416665;-0.37500
4419443;-0.38000
4422221;-0.38000
4424999;-0.39000
4427777;-0.39500
4430554;-0.37500
4433332;-0.38000
4436110;-0.39000
4438888;-0.39000
4441665;-0.38500
4444443;-0.38500
4447221;-0.38500
4449999;-0.38000
4452777;-0.38500
4455554;-0.39000
4458332;-0.38500
4461110;-0.39000
4463888;-0.37500
4466665;-0.37000
4469443;-0.36000
4472221;-0.35000
4474999;-0.35000
4477777;-0.32500
4480554;-0.29500
4483332;-0.28500
4486110;-0.29000
4488888;-0.28000
4491665;-0.28000
4494443;-0.26500
4497221;-0.26000
4499999;-0.26500
4502777;-0.26500
4505554;-0.27000
4508332;-0.25500
4511110;-0.25000
4513888;-0.23500
4516665;-0.24000
4519443;-0.24000
4522221;-0.24500
4524999;-0.25000
4527777;-0.24000
4530554;-0.24000
4533332;-0.24000
4536110;-0.24500
4538888;-0.26000
4541665;-0.25500
4544443;-0.25000
4547221;-0.24000
4549999;-0.24000
4552777;-0.24000
4555554;-0.24500
4558332;-0.25000
4561110;-0.24500
4563888;-0.24500
4566665;-0.24000
4569443;-0.24500
4572221;-0.24500
4574999;-0.25500
4577776;-0.24500
4580554;-0.23500
4583332;-0.24000
4586110;-0.25500
4588888;-0.27500
4591665;-0.26000
4594443;-0.25000
4597221;-0.26000
4599999;-0.26000
4602776;-0.26000
4605554;-0.27500
4608332;-0.27500
4611110;-0.28000
4613888;-0.27500
4616665;-0.28000
4619443;-0.27000
4622221;-0.28500
4624999;-0.29000
4627776;-0.28500
4630554;-0.27500
4633332;-0.28000
4636110;-0.30000
4638888;-0.29500
4641665;-0.30000
4644443;-0.28500
4647221;-0.28000
4649999;-0.28500
4652776;-0.29500
4655554;-0.29000
4658332;-0.30500
4661110;-0.29500
4663888;-0.29000
4666665;-0.28500
4669443;-0.29000
4672221;-0.30000
4674999;-0.30500
4677776;-0.29500
4680554;-0.29500
4683332;-0.29500
4686110;-0.29500
4688888;-0.32000
4691665;-0.31500
4694443;-0.31000
4697221;-0.28500
4699999;-0.30000
4702776;-0.28500
4705554;-0.31000
4708332;-0.30000
4711110;-0.29000
4713888;-0.27000
4716665;-0.29000
4719443;-0.28500
4722221;-0.29500
4724999;-0.30000
4727776;-0.29000
4730554;-0.29000
4733332;-0.28000
4736110;-0.28500
4738888;-0.29500
4741665;-0.30000
4744443;-0.29500
4747221;-0.27500
4749999;-0.28000
4752776;-0.29000
4755554;-0.29500
4758332;-0.30500
4761110;-0.29000
4763888;-0.28000
4766665;-0.26500
4769443;-0.26500
4772221;-0.27000
4774999;-0.25000
4777776;-0.22000
4780554;-0.21000
4783332;-0.21000
4786110;-0.21000
4788888;-0.21000
4791665;-0.21500
4794443;-0.19500
4797221;-0.17500
4799999;-0.16500
4802776;-0.17000
4805554;-0.17000
4808332;-0.17000
4811110;-0.17000
4813888;-0.17500
4816665;-0.19000
4819443;-0.19500
4822221;-0.21000
4824999;-0.21000
4827776;-0.20000
4830554;-0.19000
4833332;-0.19500
4836110;-0.20500
4838888;-0.18000
4841665;-0.16500
4844443;-0.16000
4847221;-0.18500
4849999;-0.22000
4852776;-0.24000
4855554;-0.25500
4858332;-0.28500
4861110;-0.27500
4863888;-0.27500
4866665;-0.27500
4869443;-0.29500
4872221;-0.31000
4874999;-0.31500
4877776;-0.30500
4880554;-0.29000
4883332;-0.30000
4886110;-0.31000
4888888;-0.31500
4891665;-0.31500
4894443;-0.31000
4897221;-0.31000
4899999;-0.31000
4902776;-0.31500
4905554;-0.32000
4908332;-0.32500
4911110;-0.31500
4913888;-0.31000
4916665;-0.32500
4919443;-0.33000
4922221;-0.33000
4924999;-0.33000
4927776;-0.34000
4930554;-0.34500
4933332;-0.37500
4936110;-0.42500
4938888;-0.46500
4941665;-0.49500
4944443;-0.52500
4947221;-0.52000
4949999;-0.46500
4952776;-0.33000
4955554;-0.16000
4958332;0.02500
4961110;0.26000
4963887;0.53500
4966665;0.80500
4969443;0.99000
4972221;1.08000
4974999;1.03000
4977776;0.73500
4980554;0.28000
4983332;-0.15500
4986110;-0.43000
4988887;-0.49500
4991665;-0.47000
4994443;-0.43500
4997221;-0.40000
4999999;-0.37000
5002776;-0.34500
5005554;-0.35000
5008332;-0.34500
5011110;-0.34000
5013887;-0.34500
5016665;-0.35000
5019443;-0.36000
5022221;-0.36000
5024999;-0.37000
5027776;-0.36500
5030554;-0.36000
5033332;-0.35500
5036110;-0.36500
5038887;-0.37000
5041665;-0.37000
5044443;-0.36000
5047221;-0.35000
5049999;-0.35000
5052776;-0.37000
5055554;-0.37000
5058332;-0.37500
5061110;-0.37500
5063887;-0.35500
5066665;-0.35500
5069443;-0.36500
5072221;-0.36500
5074999;-0.36500
5077776;-0.36000
5080554;-0.35500
5083332;-0.37000
5086110;-0.37000
5088887;-0.37500
5091665;-0.38500
5094443;-0.36500
5097221;-0.36000
5099999;-0.36000
5102776;-0.36500
5105554;-0.36500
5108332;-0.37500
5111110;-0.36500
5113887;-0.35000
5116665;-0.37000
5119443;-0.36000
5122221;-0.37500
5124999;-0.37500
5127776;-0.37500
5130554;-0.36000
5133332;-0.36000
5136110;-0.37000
5138887;-0.37500
5141665;-0.38000
5144443;-0.36500
5147221;-0.36000
5149999;-0.36500
5152776;-0.37000
5155554;-0.38500
5158332;-0.38000
5161110;-0.38000
5163887;-0.37500
5166665;-0.37000
5169443;-0.37500
5172221;-0.38000
5174999;-0.38000
5177776;-0.37500
5180554;-0.36500
5183332;-0.37000
5186110;-0.37500
5188887;-0.38000
5191665;-0.39500
5194443;-0.38000
5197221;-0.38000
5199999;-0.38000
5202776;-0.39000
5205554;-0.40000
5208332;-0.41500
5211110;-0.41000
5213887;-0.39500
5216665;-0.40000
5219443;-0.39500
5222221;-0.41500
5224999;-0.39500
5227776;-0.39500
5230554;-0.38500
5233332;-0.38500
5236110;-0.37500
5238887;-0.39000
5241665;-0.39000
5244443;-0.37500
5247221;-0.35000
5249999;-0.34500
5252776;-0.34500
5255554;-0.34500
5258332;-0.34500
5261110;-0.32500
5263887;-0.31500
5266665;-0.32000
5269443;-0.31000
5272221;-0.30500
5274999;-0.30000
5277776;-0.29000
5280554;-0.28000
5283332;-0.28000
5286110;-0.28000
5288887;-0.27500
5291665;-0.27000
5294443;-0.27500
5297221;-0.25500
5299999;-0.25500
5302776;-0.26000
5305554;-0.27000
5308332;-0.26500
5311110;-0.26500
5313887;-0.24500
5316665;-0.25500
5319443;-0.26000
5322221;-0.26000
5324999;-0.27000
5327776;-0.26000
5330554;-0.24500
5333332;-0.24500
5336110;-0.27000
5338887;-0.27500
5341665;-0.27000
5344443;-0.27000
5347221;-0.26000
5349999;-0.27000
5352776;-0.27500
5355554;-0.29000
5358332;-0.29000
5361110;-0.28500
5363887;-0.27500
5366665;-0.27000
5369443;-0.28000
5372221;-0.30000
5374998;-0.30000
5377776;-0.29000
5380554;-0.28000
5383332;-0.29000
5386110;-0.30500
5388887;-0.31000
5391665;-0.31000
5394443;-0.30500
5397221;-0.29500
5399998;-0.31500
5402776;-0.31000
5405554;-0.31500
5408332;-0.31000
5411110;-0.31000
5413887;-0.30000
5416665;-0.30500
5419443;-0.32500
5422221;-0.33000
5424998;-0.33000
5427776;-0.32000
5430554;-0.31000
5433332;-0.32000
5436110;-0.32000
5438887;-0.32500
5441665;-0.32000
5444443;-0.31000
5447221;-0.30500
5449998;-0.31500
5452776;-0.31000
5455554;-0.32500
5458332;-0.32500
5461110;-0.32000
5463887;-0.30500
5466665;-0.31000
5469443;-0.32000
5472221;-0.32500
5474998;-0.34000
5477776;-0.32000
5480554;-0.31500
5483332;-0.31000
5486110;-0.32000
5488887;-0.31000
5491665;-0.32500
5494443;-0.31000
5497221;-0.30500
5499998;-0.31500
5502776;-0.31000
5505554;-0.31000
5508332;-0.31500
5511110;-0.31000
5513887;-0.30500
5516665;-0.29500
5519443;-0.30500
5522221;-0.32000
5524998;-0.32500
5527776;-0.30000
5530554;-0.30000
5533332;-0.29500
5536110;-0.30500
5538887;-0.30500
5541665;-0.32500
5544443;-0.31500
5547221;-0.30500
5549998;-0.29000
5552776;-0.29500
5555554;-0.30000
5558332;-0.30000
5561110;-0.29000
5563887;-0.27500
5566665;-0.26500
5569443;-0.26500
5572221;-0.27000
5574998;-0.26500
5577776;-0.25500
5580554;-0.23500
5583332;-0.23500
5586110;-0.23000
5588887;-0.23500
5591665;-0.22000
5594443;-0.20000
5597221;-0.19000
5599998;-0.19000
5602776;-0.20500
5605554;-0.20500
5608332;-0.20500
5611110;-0.21500
5613887;-0.20000
5616665;-0.21500
5619443;-0.22000
5622221;-0.24500
5624998;-0.23500
5627776;-0.24000
5630554;-0.24500
5633332;-0.24500
5636110;-0.22500
5638887;-0.21500
5641665;-0.23000
5644443;-0.24500
5647221;-0.26500
5649998;-0.27500
5652776;-0.30500
5655554;-0.32500
5658332;-0.33000
5661110;-0.31500
5663887;-0.30500
5666665;-0.31500
5669443;-0.33000
5672221;-0.33500
5674998;-0.35000
5677776;-0.33000
5680554;-0.34000
5683332;-0.33000
5686110;-0.33000
5688887;-0.34500
5691665;-0.36000
5694443;-0.34500
5697221;-0.34500
5699998;-0.34500
5702776;-0.35500
5705554;-0.35000
5708332;-0.37000
5711110;-0.36500
5713887;-0.35000
5716665;-0.35500
5719443;-0.34500
5722221;-0.35000
5724998;-0.35500
5727776;-0.36000
5730554;-0.37500
5733332;-0.42000
5736110;-0.46500
5738887;-0.49500
5741665;-0.52000
5744443;-0.54500
5747221;-0.57000
5749998;-0.54500
5752776;-0.47000
5755554;-0.34500
5758332;-0.20000
5761109;-0.02000
5763887;0.23000
5766665;0.48500
5769443;0.71500
5772221;0.86500
5774998;0.92000
5777776;0.80500
5780554;0.51000
5783332;0.10500
5786109;-0.25500
5788887;-0.46000
5791665;-0.49500
5794443;-0.45500
5797221;-0.39000
5799998;-0.37500
5802776;-0.40000
5805554;-0.39000
5808332;-0.39000
5811109;-0.38500
5813887;-0.35500
5816665;-0.35500
5819443;-0.35500
5822221;-0.37000
5824998;-0.37500
5827776;-0.37500
5830554;-0.37500
5833332;-0.40000
5836109;-0.40500
5838887;-0.40500
5841665;-0.42000
5844443;-0.40000
5847221;-0.38500
5849998;-0.38000
5852776;-0.39000
5855554;-0.40500
5858332;-0.41000
5861109;-0.40500
5863887;-0.39500
5866665;-0.39000
5869443;-0.38500
5872221;-0.39000
5874998;-0.40500
5877776;-0.38500
5880554;-0.38000
5883332;-0.38000
5886109;-0.39500
5888887;-0.40500
5891665;-0.41000
5894443;-0.39500
5897221;-0.38500
5899998;-0.39500
5902776;-0.39000
5905554;-0.40000
5908332;-0.40000
5911109;-0.39500
5913887;-0.38500
5916665;-0.39500
5919443;-0.41000
5922221;-0.41500
5924998;-0.41000
5927776;-0.39500
5930554;-0.38500
5933332;-0.39000
5936109;-0.39500
5938887;-0.40000
5941665;-0.40000
5944443;-0.40000
5947221;-0.39000
5949998;-0.38000
5952776;-0.39500
5955554;-0.41000
5958332;-0.41000
5961109;-0.39500
5963887;-0.40000
5966665;-0.38500
5969443;-0.39500
5972221;-0.40000
5974998;-0.39000
5977776;-0.39000
5980554;-0.39000
5983332;-0.39500
5986109;-0.39500
5988887;-0.41500
5991665;-0.41500
5994443;-0.40000
5997221;-0.39500
5999998;-0.39500
6002776;-0.40500
6005554;-0.41000
6008332;-0.42000
6011109;-0.40500
6013887;-0.40000
6016665;-0.40500
6019443;-0.41500
6022221;-0.43500
6024998;-0.44500
6027776;-0.45000
6030554;-0.43500
6033332;-0.43000
6036109;-0.44500
6038887;-0.45000
6041665;-0.44500
6044443;-0.43500
6047221;-0.42500
6049998;-0.42500
6052776;-0.44000
6055554;-0.44500
6058332;-0.44500
6061109;-0.43000
6063887;-0.41000
6066665;-0.40000
6069443;-0.39500
6072221;-0.39000
6074998;-0.38000
6077776;-0.37000
6080554;-0.35000
6083332;-0.35500
6086109;-0.34500
6088887;-0.35000
6091665;-0.34500
6094443;-0.33500
6097221;-0.31500
6099998;-0.31000
6102776;-0.29500
6105554;-0.30000
6108332;-0.30500
6111109;-0.30000
6113887;-0.29000
6116665;-0.29500
6119443;-0.30500
6122221;-0.30500
6124998;-0.31000
6127776;-0.31500
6130554;-0.29500
6133332;-0.30500
6136109;-0.29500
6138887;-0.29500
6141665;-0.30000
6144443;-0.28000
6147221;-0.28500
6149998;-0.28500
6152776;-0.30500
6155554;-0.30000
6158332;-0.31500
6161109;-0.32000
6163887;-0.31000
6166665;-0.31000
6169443;-0.30500
6172220;-0.30500
6174998;-0.31500
6177776;-0.31500
6180554;-0.30500
6183332;-0.30500
6186109;-0.30500
6188887;-0.31000
6191665;-0.32000
6194443;-0.32500
6197220;-0.33000
6199998;-0.32000
6202776;-0.32500
6205554;-0.34000
6208332;-0.36000
6211109;-0.35500
6213887;-0.36500
6216665;-0.36000
6219443;-0.34500
6222220;-0.34500
6224998;-0.35500
6227776;-0.34000
6230554;-0.33000
6233332;-0.33000
6236109;-0.34500
6238887;-0.36000
6241665;-0.35500
6244443;-0.35500
6247220;-0.34500
6249998;-0.34500
6252776;-0.36000
6255554;-0.37000
6258332;-0.38000
6261109;-0.37500
6263887;-0.36500
6266665;-0.35500
6269443;-0.35500
6272220;-0.34500
6274998;-0.35500
6277776;-0.35000
6280554;-0.35000
6283332;-0.35500
6286109;-0.36000
6288887;-0.36000
6291665;-0.37000
6294443;-0.36500
6297220;-0.36000
6299998;-0.36000
6302776;-0.37000
6305554;-0.37000
6308332;-0.36500
6311109;-0.36000
6313887;-0.36000
6316665;-0.36500
6319443;-0.37000
6322220;-0.36500
6324998;-0.36500
6327776;-0.36000
6330554;-0.36000
6333332;-0.36000
6336109;-0.35500
6338887;-0.36000
6341665;-0.37000
6344443;-0.36000
6347220;-0.35000
6349998;-0.35500
6352776;-0.37000
6355554;-0.37000
6358332;-0.37000
6361109;-0.35500
6363887;-0.34000
6366665;-0.34000
6369443;-0.34000
6372220;-0.36000
6374998;-0.35500
6377776;-0.35500
6380554;-0.32500
6383332;-0.31500
6386109;-0.30000
6388887;-0.30500
6391665;-0.29500
6394443;-0.29500
6397220;-0.29000
6399998;-0.28500
6402776;-0.27500
6405554;-0.28500
6408332;-0.28500
6411109;-0.26000
6413887;-0.23500
6416665;-0.24500
6419443;-0.26500
6422220;-0.28500
6424998;-0.30500
6427776;-0.28500
6430554;-0.27000
6433332;-0.27000
6436109;-0.26500
6438887;-0.27500
6441665;-0.28500
6444443;-0.28000
6447220;-0.29000
6449998;-0.30000
6452776;-0.30000
6455554;-0.28500
6458332;-0.26500
6461109;-0.25500
6463887;-0.27000
6466665;-0.28000
6469443;-0.29500
6472220;-0.32000
6474998;-0.34000
6477776;-0.35000
6480554;-0.35000
6483332;-0.36000
6486109;-0.36500
6488887;-0.37500
6491665;-0.38500
6494443;-0.37500
6497220;-0.38000
6499998;-0.36500
6502776;-0.37000
6505554;-0.38500
6508332;-0.38500
6511109;-0.39000
6513887;-0.38500
6516665;-0.40000
6519443;-0.40500
6522220;-0.42000
6524998;-0.40500
6527776;-0.40000
6530554;-0.38500
6533332;-0.38000
6536109;-0.39500
6538887;-0.39000
6541665;-0.41500
6544443;-0.40500
6547220;-0.40500
6549998;-0.40500
6552776;-0.40500
6555554;-0.41000
6558331;-0.41500
6561109;-0.42500
6563887;-0.45500
6566665;-0.48000
6569443;-0.51000
6572220;-0.55500
6574998;-0.59000
6577776;-0.58500
6580554;-0.50500
6583331;-0.37000
6586109;-0.22000
6588887;-0.05500
6591665;0.13500
6594443;0.39000
6597220;0.62500
6599998;0.81500
6602776;0.95500
6605554;1.04000
6608331;1.04500
6611109;0.94000
6613887;0.70500
6616665;0.35500
6619443;-0.02000
6622220;-0.30000
6624998;-0.44500
6627776;-0.49500
6630554;-0.49000
6633331;-0.46000
6636109;-0.43500
6638887;-0.41500
6641665;-0.41000
6644443;-0.42000
6647220;-0.42000
6649998;-0.40500
6652776;-0.41000
6655554;-0.42000
6658331;-0.40500
6661109;-0.41500
6663887;-0.41000
6666665;-0.41000
6669443;-0.41500
6672220;-0.43500
6674998;-0.43500
6677776;-0.43000
6680554;-0.42000
6683331;-0.42000
6686109;-0.42000
6688887;-0.43000
6691665;-0.44000
6694443;-0.42500
6697220;-0.42500
6699998;-0.42000
6702776;-0.43000
6705554;-0.43500
6708331;-0.44500
6711109;-0.43500
6713887;-0.42500
6716665;-0.42500
6719443;-0.44000
6722220;-0.43000
6724998;-0.43500
6727776;-0.43000
6730554;-0.42000
6733331;-0.42500
6736109;-0.43500
6738887;-0.44000
6741665;-0.44500
6744443;-0.43500
6747220;-0.43000
6749998;-0.41500
6752776;-0.43000
6755554;-0.44000
6758331;-0.43500
6761109;-0.42000
6763887;-0.41000
6766665;-0.40500
6769443;-0.42000
6772220;-0.42500
6774998;-0.43000
6777776;-0.41000
6780554;-0.40000
6783331;-0.40000
6786109;-0.41000
6788887;-0.42500
6791665;-0.42000
6794443;-0.42500
6797220;-0.41500
6799998;-0.41500
6802776;-0.42500
6805554;-0.43000
6808331;-0.43500
6811109;-0.43000
6813887;-0.41000
6816665;-0.41000
6819443;-0.42500
6822220;-0.42000
6824998;-0.43000
6827776;-0.41500
6830554;-0.42000
6833331;-0.41500
6836109;-0.43500
6838887;-0.45000
6841665;-0.45000
6844443;-0.43500
6847220;-0.44500
6849998;-0.46000
6852776;-0.45500
6855554;-0.46500
6858331;-0.47500
6861109;-0.47000
6863887;-0.47000
6866665;-0.47500
6869443;-0.49000
6872220;-0.49000
6874998;-0.49500
6877776;-0.48500
6880554;-0.48500
6883331;-0.47500
6886109;-0.48000
6888887;-0.47500
6891665;-0.47000
6894443;-0.46000
6897220;-0.44000
6899998;-0.43000
6902776;-0.42500
6905554;-0.42000
6908331;-0.41000
6911109;-0.39500
6913887;-0.37500
6916665;-0.36000
6919443;-0.36000
6922220;-0.35000
6924998;-0.35500
6927776;-0.34000
6930554;-0.33000
6933331;-0.31000
6936109;-0.31500
6938887;-0.32000
6941665;-0.32000
6944442;-0.30500
6947220;-0.30500
6949998;-0.28500
6952776;-0.29000
6955554;-0.30000
6958331;-0.29500
6961109;-0.29000
6963887;-0.28000
6966665;-0.28500
6969442;-0.29000
6972220;-0.30500
6974998;-0.30500
6977776;-0.30000
6980554;-0.30000
6983331;-0.29000
6986109;-0.29000
6988887;-0.31000
6991665;-0.30500
6994442;-0.30000
6997220;-0.29000
6999998;-0.28500
7002776;-0.30500
7005554;-0.30000
7008331;-0.31500
7011109;-0.30500
7013887;-0.30000
7016665;-0.29500
7019442;-0.29000
7022220;-0.31500
7024998;-0.32000
7027776;-0.31000
7030554;-0.29500
7033331;-0.30000
7036109;-0.30500
7038887;-0.32500
7041665;-0.32500
7044442;-0.31500
7047220;-0.31500
7049998;-0.31500
7052776;-0.31500
7055554;-0.31500
7058331;-0.32500
7061109;-0.32000
7063887;-0.30500
7066665;-0.31500
7069442;-0.32000
7072220;-0.33000
7074998;-0.34500
7077776;-0.33000
7080554;-0.32000
7083331;-0.32000
7086109;-0.32000
7088887;-0.33000
7091665;-0.33500
7094442;-0.33500
7097220;-0.31500
7099998;-0.33000
7102776;-0.34000
7105554;-0.32500
7108331;-0.32000
7111109;-0.32000
7113887;-0.32000
7116665;-0.31500
7119442;-0.31500
7122220;-0.31000
7124998;-0.32000
7127776;-0.31500
7130554;-0.31500
7133331;-0.31000
7136109;-0.32500
7138887;-0.32500
7141665;-0.33000
7144442;-0.32000
7147220;-0.31000
7149998;-0.31000
7152776;-0.32000
7155554;-0.32500
7158331;-0.33000
7161109;-0.31500
7163887;-0.31000
7166665;-0.31000
7169442;-0.30500
7172220;-0.32000
7174998;-0.32000
7177776;-0.30500
7180554;-0.30500
7183331;-0.30500
7186109;-0.30500
7188887;-0.31500
7191665;-0.32500
7194442;-0.31500
7197220;-0.30500
7199998;-0.31000
7202776;-0.31000
7205554;-0.31500
7208331;-0.32000
7211109;-0.31500
7213887;-0.30000
7216665;-0.30000
7219442;-0.30000
7222220;-0.29500
7224998;-0.30000
7227776;-0.28500
7230554;-0.26500
7233331;-0.24500
7236109;-0.25000
7238887;-0.25500
7241665;-0.25000
7244442;-0.24500
7247220;-0.24000
7249998;-0.21500
7252776;-0.21500
7255554;-0.22000
7258331;-0.21500
7261109;-0.20000
7263887;-0.19000
7266665;-0.19000
7269442;-0.20000
7272220;-0.20500
7274998;-0.20500
7277776;-0.20500
7280554;-0.21000
7283331;-0.20500
7286109;-0.22500
7288887;-0.23000
7291665;-0.22500
7294442;-0.21000
7297220;-0.22000
7299998;-0.22000
7302776;-0.22000
7305554;-0.21000
7308331;-0.20000
7311109;-0.18000
7313887;-0.20000
7316665;-0.23500
7319442;-0.26500
7322220;-0.27500
7324998;-0.29000
7327776;-0.29000
7330554;-0.30500
7333331;-0.30000
7336109;-0.31500
7338887;-0.33500
7341665;-0.34000
7344442;-0.32000
7347220;-0.31000
7349998;-0.32000
7352776;-0.30500
7355553;-0.33000
7358331;-0.33000
7361109;-0.33000
7363887;-0.32000
7366665;-0.32000
7369442;-0.33000
7372220;-0.33500
7374998;-0.35000
7377776;-0.34500
7380553;-0.33500
7383331;-0.34000
7386109;-0.34000
7388887;-0.34000
7391665;-0.36000
7394442;-0.34500
7397220;-0.34000
7399998;-0.33500
7402776;-0.34000
7405553;-0.35000
7408331;-0.37500
7411109;-0.39500
7413887;-0.41500
7416665;-0.45500
7419442;-0.48000
7422220;-0.51500
7424998;-0.55000
7427776;-0.57000
7430553;-0.57500
7433331;-0.51500
7436109;-0.41500
7438887;-0.28000
7441665;-0.12000
7444442;0.07000
7447220;0.29000
7449998;0.55000
7452776;0.81000
7455553;0.99500
7458331;1.12000
7461109;1.14000
7463887;0.95500
7466665;0.55500
7469442;0.05500
7472220;-0.30000
7474998;-0.46000
7477776;-0.45000
7480553;-0.40000
7483331;-0.36000
7486109;-0.34500
7488887;-0.36000
7491665;-0.37500
7494442;-0.37000
7497220;-0.37500
7499998;-0.37000
7502776;-0.38000
7505553;-0.39000
7508331;-0.38500
7511109;-0.39000
7513887;-0.38500
7516665;-0.38500
7519442;-0.40000
7522220;-0.39500
7524998;-0.39000
7527776;-0.38500
7530553;-0.37500
7533331;-0.37500
7536109;-0.38500
7538887;-0.38500
7541665;-0.40000
7544442;-0.39500
7547220;-0.37500
7549998;-0.38500
7552776;-0.38500
7555553;-0.38500
7558331;-0.39500
7561109;-0.39500
7563887;-0.37500
7566665;-0.37500
7569442;-0.38500
7572220;-0.38500
7574998;-0.40500
7577776;-0.40000
7580553;-0.38500
7583331;-0.37000
7586109;-0.37500
7588887;-0.39500
7591665;-0.40000
7594442;-0.39500
7597220;-0.38500
7599998;-0.37000
7602776;-0.37500
7605553;-0.37500
7608331;-0.38500
7611109;-0.38500
7613887;-0.36500
7616665;-0.37000
7619442;-0.38000
7622220;-0.39000
7624998;-0.39000
7627776;-0.38500
7630553;-0.37000
7633331;-0.37500
7636109;-0.38000
7638887;-0.37500
7641665;-0.39500
7644442;-0.38500
7647220;-0.37000
7649998;-0.36500
7652776;-0.36500
7655553;-0.36500
7658331;-0.38500
7661109;-0.37000
7663887;-0.36500
7666665;-0.36000
7669442;-0.37500
7672220;-0.37000
7674998;-0.38000
7677776;-0.37000
7680553;-0.36500
7683331;-0.36000
7686109;-0.37500
7688887;-0.38500
7691665;-0.39500
7694442;-0.38000
7697220;-0.38000
7699998;-0.37500
7702776;-0.38500
7705553;-0.39000
7708331;-0.41000
7711109;-0.40000
7713887;-0.38500
7716665;-0.39500
7719442;-0.39500
7722220;-0.40500
7724998;-0.41000
7727776;-0.40500
7730553;-0.40000
7733331;-0.40000
7736109;-0.41000
7738887;-0.40000
7741664;-0.40500
7744442;-0.38500
7747220;-0.37500
7749998;-0.36500
7752776;-0.37000
7755553;-0.37000
7758331;-0.36000
7761109;-0.33500
7763887;-0.32500
7766664;-0.31000
7769442;-0.31000
7772220;-0.30500
7774998;-0.30000
7777776;-0.28000
7780553;-0.26500
7783331;-0.26500
7786109;-0.26000
7788887;-0.25500
7791664;-0.26500
7794442;-0.26000
7797220;-0.25500
7799998;-0.24000
7802776;-0.25000
7805553;-0.25500
7808331;-0.26000
7811109;-0.25000
7813887;-0.24500
7816664;-0.25000
7819442;-0.25500
7822220;-0.26000
7824998;-0.26000
7827776;-0.26000
7830553;-0.25000
7833331;-0.24000
7836109;-0.25000
7838887;-0.25500
7841664;-0.26500
7844442;-0.26000
7847220;-0.24000
7849998;-0.24500
7852776;-0.25000
7855553;-0.24500
7858331;-0.25500
7861109;-0.25000
7863887;-0.25500
7866664;-0.24500
7869442;-0.24500
7872220;-0.25500
7874998;-0.28500
7877776;-0.26000
7880553;-0.25500
7883331;-0.26000
7886109;-0.27500
7888887;-0.28000
7891664;-0.28000
7894442;-0.27000
7897220;-0.26500
7899998;-0.26000
7902776;-0.27000
7905553;-0.27500
7908331;-0.28500
7911109;-0.28000
7913887;-0.27000
7916664;-0.27000
7919442;-0.27500
7922220;-0.28500
7924998;-0.28500
7927776;-0.28500
7930553;-0.28000
7933331;-0.28500
7936109;-0.28500
7938887;-0.30000
7941664;-0.31000
7944442;-0.30000
7947220;-0.28500
7949998;-0.28500
7952776;-0.29000
7955553;-0.30500
7958331;-0.30000
7961109;-0.30000
7963887;-0.30000
7966664;-0.28000
7969442;-0.28500
7972220;-0.29500
7974998;-0.30500
7977776;-0.29000
7980553;-0.29000
7983331;-0.28500
7986109;-0.30000
7988887;-0.29500
7991664;-0.29500
7994442;-0.29500
7997220;-0.28500
7999998;-0.28500
8002776;-0.28500
8005553;-0.29000
8008331;-0.30000
8011109;-0.29000
8013887;-0.28500
8016664;-0.28500
8019442;-0.28500
8022220;-0.29500
8024998;-0.30000
8027776;-0.28500
8030553;-0.28000
8033331;-0.28000
8036109;-0.29000
8038887;-0.29500
8041664;-0.30000
8044442;-0.29500
8047220;-0.28500
8049998;-0.27000
8052776;-0.28000
8055553;-0.28500
8058331;-0.29000
8061109;-0.26500
8063887;-0.25500
8066664;-0.24000
8069442;-0.23500
8072220;-0.22500
8074998;-0.22000
8077776;-0.20500
8080553;-0.20000
8083331;-0.20000
8086109;-0.20000
8088887;-0.20500
8091664;-0.20000
8094442;-0.18500
8097220;-0.16500
8099998;-0.16500
8102776;-0.15500
8105553;-0.16500
8108331;-0.17500
8111109;-0.17500
8113887;-0.17000
8116664;-0.17000
8119442;-0.18000
8122220;-0.18000
8124998;-0.20500
8127776;-0.19500
8130553;-0.18000
8133331;-0.19000
8136109;-0.19500
8138887;-0.19000
8141664;-0.18000
8144442;-0.16000
8147220;-0.14500
8149998;-0.17000
8152775;-0.19500
8155553;-0.22500
8158331;-0.24500
8161109;-0.25500
8163887;-0.26500
8166664;-0.26500
8169442;-0.29000
8172220;-0.28500
8174998;-0.29500
8177775;-0.28000
8180553;-0.28500
8183331;-0.27000
8186109;-0.28000
8188887;-0.28500
8191664;-0.29000
8194442;-0.29500
8197220;-0.29500
8199998;-0.29000
8202775;-0.29000
8205553;-0.32500
8208331;-0.31000
8211109;-0.30500
8213887;-0.29500
8216664;-0.29500
8219442;-0.30500
8222220;-0.31500
8224998;-0.32000
8227775;-0.31500
8230553;-0.30500
8233331;-0.30000
8236109;-0.31500
8238887;-0.31500
8241664;-0.33000
8244442;-0.32000
8247220;-0.32000
8249998;-0.33000
8252775;-0.35500
8255553;-0.39500
8258331;-0.44000
8261109;-0.47000
8263887;-0.48000
8266664;-0.51500
8269442;-0.54000
8272220;-0.51500
8274998;-0.41000
8277775;-0.24000
8280553;-0.08500
8283331;0.10000
8286109;0.32000
8288887;0.57000
8291664;0.83000
8294442;1.01500
8297220;1.12500
8299998;1.05500
8302775;0.77000
8305553;0.31000
8308331;-0.13000
8311109;-0.38000
8313887;-0.44000
8316664;-0.38000
8319442;-0.33000
8322220;-0.31500
8324998;-0.33000
8327775;-0.33000
8330553;-0.33500
8333331;-0.32500
8336109;-0.33500
8338887;-0.34500
8341664;-0.35000
8344442;-0.35500
8347220;-0.34500
8349998;-0.34000
8352775;-0.36000
8355553;-0.36000
8358331;-0.36000
8361109;-0.35000
8363887;-0.33500
8366664;-0.34000
8369442;-0.34500
8372220;-0.34500
8374998;-0.36500
8377775;-0.35500
8380553;-0.34500
8383331;-0.33500
8386109;-0.34500
8388887;-0.36500
8391664;-0.35500
8394442;-0.34000
8397220;-0.34500
8399998;-0.34000
8402775;-0.34000
8405553;-0.35000
8408331;-0.35500
8411109;-0.35500
8413887;-0.34000
8416664;-0.34000
8419442;-0.34000
8422220;-0.36000
8424998;-0.38000
8427775;-0.35000
8430553;-0.34000
8433331;-0.33000
8436109;-0.33500
8438887;-0.35000
8441664;-0.34500
8444442;-0.34500
8447220;-0.33000
8449998;-0.34000
8452775;-0.36000
8455553;-0.34000
8458331;-0.34500
8461109;-0.33500
8463887;-0.32500
8466664;-0.32500
8469442;-0.33000
8472220;-0.35000
8474998;-0.35000
8477775;-0.34000
8480553;-0.33000
8483331;-0.32500
8486109;-0.33500
8488887;-0.33500
8491664;-0.34500
8494442;-0.34000
8497220;-0.33000
8499998;-0.33500
8502775;-0.33500
8505553;-0.33500
8508331;-0.34000
8511109;-0.33500
8513887;-0.33000
8516664;-0.32000
8519442;-0.33000
8522220;-0.33000
8524998;-0.35000
8527775;-0.32500
8530553;-0.32500
8533331;-0.31500
8536109;-0.32500
8538886;-0.34000
8541664;-0.35500
8544442;-0.34000
8547220;-0.34500
8549998;-0.34000
8552775;-0.35000
8555553;-0.35500
8558331;-0.36000
8561109;-0.35500
8563886;-0.36000
8566664;-0.35000
8569442;-0.35500
8572220;-0.36500
8574998;-0.36500
8577775;-0.36500
8580553;-0.36000
8583331;-0.35000
8586109;-0.34500
8588886;-0.35000
8591664;-0.35500
8594442;-0.32500
8597220;-0.31000
8599998;-0.30500
8602775;-0.31000
8605553;-0.28500
8608331;-0.29000
8611109;-0.28000
8613886;-0.25000
8616664;-0.24500
8619442;-0.24000
8622220;-0.24500
8624998;-0.24500
8627775;-0.23500
8630553;-0.23000
8633331;-0.21000
8636109;-0.21500
8638886;-0.23000
8641664;-0.23500
8644442;-0.21500
8647220;-0.22500
8649998;-0.21000
8652775;-0.21000
8655553;-0.21500
8658331;-0.22500
8661109;-0.22000
8663886;-0.21000
8666664;-0.20500
8669442;-0.22000
8672220;-0.23500
8674998;-0.22500
8677775;-0.22000
8680553;-0.22500
8683331;-0.20500
8686109;-0.21500
8688886;-0.22000
8691664;-0.23000
8694442;-0.22000
8697220;-0.22000
8699998;-0.21500
8702775;-0.22500
8705553;-0.23500
8708331;-0.23500
8711109;-0.23500
8713886;-0.22500
8716664;-0.23000
8719442;-0.22500
8722220;-0.23500
8724998;-0.24000
8727775;-0.25000
8730553;-0.23500
8733331;-0.23000
8736109;-0.24000
8738886;-0.24500
8741664;-0.25000
8744442;-0.25000
8747220;-0.25500
8749998;-0.24500
8752775;-0.23500
8755553;-0.26000
8758331;-0.25500
8761109;-0.25500
8763886;-0.23500
8766664;-0.24500
8769442;-0.25500
8772220;-0.26000
8774998;-0.26500
8777775;-0.26000
8780553;-0.26000
8783331;-0.26000
8786109;-0.26000
8788886;-0.26500
8791664;-0.27000
8794442;-0.26500
8797220;-0.25500
8799998;-0.25500
8802775;-0.25500
8805553;-0.27000
8808331;-0.28000
8811109;-0.27500
8813886;-0.26000
8816664;-0.26000
8819442;-0.26000
8822220;-0.27000
8824998;-0.27000
8827775;-0.26000
8830553;-0.25500
8833331;-0.24500
8836109;-0.25500
8838886;-0.26000
8841664;-0.26000
8844442;-0.25500
8847220;-0.24500
8849998;-0.24000
8852775;-0.25000
8855553;-0.25000
8858331;-0.25000
8861109;-0.24000
8863886;-0.23500
8866664;-0.23500
8869442;-0.24000
8872220;-0.24500
8874998;-0.25000
8877775;-0.23500
8880553;-0.24500
8883331;-0.24500
8886109;-0.24500
8888886;-0.25000
8891664;-0.27000
8894442;-0.25500
8897220;-0.25000
8899998;-0.25000
8902775;-0.24000
8905553;-0.24000
8908331;-0.26000
8911109;-0.24500
8913886;-0.22500
8916664;-0.24000
8919442;-0.23000
8922220;-0.22500
8924998;-0.23000
8927775;-0.20500
8930553;-0.19000
8933331;-0.17500
8936109;-0.18500
8938886;-0.18000
8941664;-0.18500
8944442;-0.17500
8947220;-0.15500
8949997;-0.13500
8952775;-0.13500
8955553;-0.14000
8958331;-0.13500
8961109;-0.13500
8963886;-0.12500
8966664;-0.14500
8969442;-0.14500
8972220;-0.16500
8974997;-0.17000
8977775;-0.17000
8980553;-0.15500
8983331;-0.14500
8986109;-0.16500
8988886;-0.17500
8991664;-0.17000
8994442;-0.12500
8997220;-0.11500
8999997;-0.13500
9002775;-0.15500
9005553;-0.20000
9008331;-0.21500
9011109;-0.22000
9013886;-0.22000
9016664;-0.23000
9019442;-0.25000
9022220;-0.26000
9024997;-0.28000
9027775;-0.27000
9030553;-0.27000
9033331;-0.25500
9036109;-0.26500
9038886;-0.27500
9041664;-0.28000
9044442;-0.27000
9047220;-0.26500
9049997;-0.27000
9052775;-0.29000
9055553;-0.27000
9058331;-0.28500
9061109;-0.29000
9063886;-0.27000
9066664;-0.26500
9069442;-0.26500
9072220;-0.28000
9074997;-0.28000
9077775;-0.26500
9080553;-0.27500
9083331;-0.27500
9086109;-0.27000
9088886;-0.29500
9091664;-0.29000
9094442;-0.30000
9097220;-0.32500
9099997;-0.36000
9102775;-0.39500
9105553;-0.40000
9108331;-0.43000
9111109;-0.46000
9113886;-0.50000
9116664;-0.53000
9119442;-0.50000
9122220;-0.42000
9124997;-0.30000
9127775;-0.15000
9130553;0.03000
9133331;0.24500
9136109;0.51500
9138886;0.78000
9141664;0.95000
9144442;1.04000
9147220;1.01000
9149997;0.78500
9152775;0.38500
9155553;-0.03000
9158331;-0.32000
9161109;-0.41000
9163886;-0.40000
9166664;-0.34500
9169442;-0.31500
9172220;-0.31000
9174997;-0.32500
9177775;-0.32000
9180553;-0.30500
9183331;-0.30000
9186109;-0.30500
9188886;-0.30500
9191664;-0.32000
9194442;-0.31500
9197220;-0.31500
9199997;-0.30500
9202775;-0.30500
9205553;-0.31500
9208331;-0.32000
9211109;-0.32500
9213886;-0.32000
9216664;-0.32000
9219442;-0.32000
9222220;-0.33000
9224997;-0.32500
9227775;-0.32500
9230553;-0.31500
9233331;-0.31000
9236109;-0.31000
9238886;-0.32000
9241664;-0.32500
9244442;-0.32000
9247220;-0.31500
9249997;-0.31000
9252775;-0.31000
9255553;-0.32000
9258331;-0.31500
9261109;-0.31500
9263886;-0.31000
9266664;-0.32000
9269442;-0.32000
9272220;-0.30500
9274997;-0.32500
9277775;-0.32000
9280553;-0.31000
9283331;-0.31000
9286109;-0.31000
9288886;-0.31500
9291664;-0.32000
9294442;-0.32500
9297220;-0.31500
9299997;-0.31500
9302775;-0.32000
9305553;-0.32000
9308331;-0.33000
9311109;-0.31500
9313886;-0.31500
9316664;-0.30000
9319442;-0.30000
9322220;-0.31000
9324997;-0.32000
9327775;-0.31000
9330553;-0.31500
9333331;-0.32000
9336108;-0.33000
9338886;-0.34500
9341664;-0.34500
9344442;-0.33000
9347220;-0.33000
9349997;-0.31000
9352775;-0.31500
9355553;-0.32500
9358331;-0.34000
9361108;-0.32500
9363886;-0.31000
9366664;-0.31500
9369442;-0.31500
9372220;-0.32500
9374997;-0.35000
9377775;-0.34500
9380553;-0.34000
9383331;-0.33500
9386108;-0.34500
9388886;-0.36500
9391664;-0.38000
9394442;-0.38500
9397220;-0.38000
9399997;-0.36000
9402775;-0.35000
9405553;-0.35500
9408331;-0.35500
9411108;-0.36000
9413886;-0.34000
9416664;-0.33500
9419442;-0.34500
9422220;-0.35000
9424997;-0.35000
9427775;-0.35500
9430553;-0.33000
9433331;-0.30500
9436108;-0.30000
9438886;-0.30000
9441664;-0.29000
9444442;-0.29000
9447220;-0.28500
9449997;-0.26500
9452775;-0.27000
9455553;-0.26500
9458331;-0.25500
9461108;-0.24000
9463886;-0.23000
9466664;-0.23000
9469442;-0.23000
9472220;-0.23000
9474997;-0.24000
9477775;-0.23000
9480553;-0.23000
9483331;-0.22500
9486108;-0.22500
9488886;-0.24000
9491664;-0.24500
9494442;-0.23500
9497220;-0.21500
9499997;-0.20500
9502775;-0.21000
9505553;-0.22500
9508331;-0.23500
9511108;-0.23500
9513886;-0.22500
9516664;-0.23500
9519442;-0.24500
9522220;-0.24500
9524997;-0.24500
9527775;-0.23500
9530553;-0.23000
9533331;-0.23000
9536108;-0.24500
9538886;-0.25000
9541664;-0.26000
9544442;-0.25500
9547220;-0.24500
9549997;-0.24000
9552775;-0.25500
9555553;-0.25000
9558331;-0.27500
9561108;-0.27500
9563886;-0.27000
9566664;-0.26000
9569442;-0.25500
9572220;-0.27000
9574997;-0.28000
9577775;-0.27000
9580553;-0.25500
9583331;-0.25000
9586108;-0.26500
9588886;-0.29000
9591664;-0.29500
9594442;-0.28500
9597220;-0.28000
9599997;-0.27000
9602775;-0.27500
9605553;-0.28500
9608331;-0.29500
9611108;-0.29000
9613886;-0.28500
9616664;-0.27500
9619442;-0.28000
9622220;-0.28500
9624997;-0.29500
9627775;-0.29000
9630553;-0.28500
9633331;-0.27500
9636108;-0.28000
9638886;-0.27000
9641664;-0.29000
9644442;-0.28000
9647220;-0.27000
9649997;-0.28000
9652775;-0.28500
9655553;-0.28000
9658331;-0.28000
9661108;-0.29000
9663886;-0.27500
9666664;-0.27000
9669442;-0.27000
9672220;-0.28000
9674997;-0.30000
9677775;-0.29500
9680553;-0.28500
9683331;-0.27000
9686108;-0.27500
9688886;-0.28000
9691664;-0.30000
9694442;-0.29500
9697220;-0.28500
9699997;-0.27500
9702775;-0.28000
9705553;-0.28000
9708331;-0.28500
9711108;-0.27500
9713886;-0.28500
9716664;-0.27000
9719442;-0.25500
9722220;-0.25000
9724997;-0.26500
9727775;-0.25500
9730553;-0.24500
9733331;-0.25000
9736108;-0.24000
9738886;-0.24000
9741664;-0.23000
9744442;-0.19500
9747219;-0.17500
9749997;-0.17000
9752775;-0.17500
9755553;-0.18500
9758331;-0.20000
9761108;-0.19500
9763886;-0.19500
9766664;-0.19500
9769442;-0.20000
9772219;-0.20500
9774997;-0.21000
9777775;-0.22000
9780553;-0.22000
9783331;-0.22500
9786108;-0.22500
9788886;-0.20500
9791664;-0.20500
9794442;-0.21000
9797219;-0.23000
9799997;-0.25000
9802775;-0.28500
9805553;-0.30000
9808331;-0.32000
9811108;-0.32500
9813886;-0.32500
9816664;-0.33000
9819442;-0.33000
9822219;-0.32500
9824997;-0.32500
9827775;-0.33000
9830553;-0.32500
9833331;-0.33000
9836108;-0.32500
9838886;-0.33500
9841664;-0.33500
9844442;-0.32500
9847219;-0.32000
9849997;-0.31500
9852775;-0.32500
9855553;-0.32500
9858331;-0.34000
9861108;-0.34500
9863886;-0.33500
9866664;-0.34500
9869442;-0.33500
9872219;-0.34500
9874997;-0.36000
9877775;-0.36000
9880553;-0.33500
9883331;-0.33000
9886108;-0.33500
9888886;-0.36500
9891664;-0.43000
9894442;-0.45000
9897219;-0.44500
9899997;-0.48000
9902775;-0.54000
9905553;-0.55000
9908331;-0.51000
9911108;-0.39500
9913886;-0.24000
9916664;-0.07000
9919442;0.13500
9922219;0.39500
9924997;0.67000
9927775;0.89000
9930553;0.98000
9933331;0.92000
9936108;0.64000
9938886;0.20500
9941664;-0.17500
9944442;-0.39000
9947219;-0.45000
9949997;-0.44000
9952775;-0.44000
9955553;-0.42500
9958331;-0.41500
9961108;-0.39500
9963886;-0.38500
9966664;-0.38000
9969442;-0.38000
9972219;-0.40000
9974997;-0.39500
9977775;-0.38500
9980553;-0.37500
9983331;-0.38000
9986108;-0.38500
9988886;-0.38500
9991664;-0.39500
9994442;-0.38500
9997219;-0.38000
9999997;-0.37000
10002775;-0.37000
10005553;-0.38000
10008331;-0.39000
10011108;-0.39000
10013886;-0.38000
10016664;-0.38000
10019442;-0.39000
10022219;-0.38500
10024997;-0.39000
10027775;-0.39500
10030553;-0.39000
10033331;-0.39000
10036108;-0.39500
10038886;-0.39500
10041664;-0.39000
10044442;-0.37500
10047219;-0.37000
10049997;-0.38000
10052775;-0.37500
10055553;-0.38500
10058331;-0.39500
10061108;-0.39500
10063886;-0.39000
10066664;-0.38000
10069442;-0.38500
10072219;-0.38500
10074997;-0.38500
10077775;-0.40500
10080553;-0.39000
10083331;-0.38000
10086108;-0.39000
10088886;-0.39500
10091664;-0.41000
10094442;-0.40500
10097219;-0.41000
10099997;-0.41000
10102775;-0.40000
10105553;-0.41000
10108331;-0.41500
10111108;-0.42500
10113886;-0.41000
10116664;-0.39500
10119442;-0.40000
10122219;-0.40500
10124997;-0.41500
10127775;-0.40000
10130553;-0.40000
10133330;-0.38500
10136108;-0.39500
10138886;-0.40500
10141664;-0.42500
10144442;-0.41000
10147219;-0.39500
10149997;-0.39000
10152775;-0.40000
10155553;-0.42000
10158330;-0.42500
10161108;-0.42000
10163886;-0.42500
10166664;-0.44500
10169442;-0.44000
10172219;-0.44500
10174997;-0.46500
10177775;-0.46500
10180553;-0.47500
10183330;-0.46500
10186108;-0.46500
10188886;-0.47000
10191664;-0.48500
10194442;-0.48500
10197219;-0.47000
10199997;-0.47000
10202775;-0.48000
10205553;-0.47500
10208330;-0.46500
10211108;-0.45500
10213886;-0.44500
10216664;-0.42000
10219442;-0.40500
10222219;-0.39000
10224997;-0.39000
10227775;-0.36500
10230553;-0.35500
10233330;-0.34500
10236108;-0.32000
10238886;-0.33000
10241664;-0.32000
10244442;-0.31500
10247219;-0.30500
10249997;-0.28500
10252775;-0.29000
10255553;-0.30000
10258330;-0.30000
10261108;-0.29500
10263886;-0.27500
10266664;-0.27000
10269442;-0.27500
10272219;-0.29000
10274997;-0.29000
10277775;-0.28000
10280553;-0.28000
10283330;-0.26500
10286108;-0.27000
10288886;-0.27500
10291664;-0.28500
10294442;-0.27000
10297219;-0.27500
10299997;-0.27000
10302775;-0.27500
10305553;-0.28500
10308330;-0.28500
10311108;-0.28500
10313886;-0.28000
10316664;-0.28500
10319442;-0.28500
10322219;-0.28500
10324997;-0.30000
10327775;-0.29500
10330553;-0.29000
10333330;-0.29000
10336108;-0.28000
10338886;-0.29000
10341664;-0.30000
10344442;-0.29500
10347219;-0.28000
10349997;-0.29500
10352775;-0.30000
10355553;-0.29000
10358330;-0.29500
10361108;-0.29000
10363886;-0.29000
10366664;-0.28000
10369442;-0.29000
10372219;-0.30500
10374997;-0.31500
10377775;-0.31500
10380553;-0.31500
10383330;-0.30500
10386108;-0.31500
10388886;-0.31500
10391664;-0.32000
10394442;-0.32000
10397219;-0.31000
10399997;-0.30500
10402775;-0.31500
10405553;-0.32000
10408330;-0.33000
10411108;-0.31500
10413886;-0.31500
10416664;-0.29500
10419442;-0.30500
10422219;-0.31500
10424997;-0.32500
10427775;-0.30500
10430553;-0.30000
10433330;-0.29500
10436108;-0.30500
10438886;-0.31000
10441664;-0.30500
10444442;-0.30500
10447219;-0.29000
10449997;-0.29500
10452775;-0.29000
10455553;-0.30500
10458330;-0.32000
10461108;-0.30500
10463886;-0.30000
10466664;-0.29500
10469442;-0.30000
10472219;-0.31000
10474997;-0.32000
10477775;-0.31500
10480553;-0.30000
10483330;-0.29500
10486108;-0.29500
10488886;-0.31000
10491664;-0.32000
10494442;-0.31000
10497219;-0.30500
10499997;-0.29000
10502775;-0.29000
10505553;-0.30000
10508330;-0.30000
10511108;-0.31000
10513886;-0.29500
10516664;-0.29500
10519441;-0.29000
10522219;-0.29000
10524997;-0.27500
10527775;-0.27500
10530553;-0.24500
10533330;-0.23000
10536108;-0.23000
10538886;-0.23000
10541664;-0.24000
10544441;-0.22500
10547219;-0.21500
10549997;-0.21000
10552775;-0.20000
10555553;-0.20000
10558330;-0.21000
10561108;-0.20500
10563886;-0.20000
10566664;-0.19500
10569441;-0.19500
10572219;-0.22000
10574997;-0.22000
10577775;-0.21500
10580553;-0.20500
10583330;-0.19000
10586108;-0.21000
10588886;-0.24000
10591664;-0.23500
10594441;-0.20000
10597219;-0.17500
10599997;-0.17000
10602775;-0.20500
10605553;-0.23000
10608330;-0.26000
10611108;-0.27000
10613886;-0.27500
10616664;-0.28500
10619441;-0.30000
10622219;-0.31500
10624997;-0.32500
10627775;-0.32000
10630553;-0.31500
10633330;-0.31000
10636108;-0.31000
10638886;-0.31000
10641664;-0.32500
10644441;-0.32000
10647219;-0.31500
10649997;-0.31000
10652775;-0.31500
10655553;-0.32000
10658330;-0.33000
10661108;-0.33000
10663886;-0.32500
10666664;-0.32000
10669441;-0.31500
10672219;-0.32000
10674997;-0.33500
10677775;-0.32500
10680553;-0.32500
10683330;-0.32000
10686108;-0.33000
10688886;-0.32500
10691664;-0.33000
10694441;-0.33500
10697219;-0.34000
10699997;-0.36000
10702775;-0.39500
10705553;-0.45000
10708330;-0.47500
10711108;-0.50500
10713886;-0.52000
10716664;-0.51500
10719441;-0.45000
10722219;-0.31500
10724997;-0.14500
10727775;0.06000
10730553;0.28000
10733330;0.56000
10736108;0.85000
10738886;1.06500
10741664;1.14000
10744441;1.08000
10747219;0.82000
10749997;0.37500
10752775;-0.11000
10755553;-0.40500
10758330;-0.46000
10761108;-0.41500
10763886;-0.36000
10766664;-0.32000
10769441;-0.34000
10772219;-0.34500
10774997;-0.35500
10777775;-0.35000
10780553;-0.33500
10783330;-0.33000
10786108;-0.34500
10788886;-0.36500
10791664;-0.37000
10794441;-0.36000
10797219;-0.35000
10799997;-0.34500
10802775;-0.34500
10805553;-0.37000
10808330;-0.36500
10811108;-0.36500
10813886;-0.36000
10816664;-0.35000
10819441;-0.36000
10822219;-0.36000
10824997;-0.38000
10827775;-0.36000
10830553;-0.36500
10833330;-0.35500
10836108;-0.35000
10838886;-0.36000
10841664;-0.37500
10844441;-0.36000
10847219;-0.35000
10849997;-0.35000
10852775;-0.35000
10855553;-0.35500
10858330;-0.35500
10861108;-0.36000
10863886;-0.37000
10866664;-0.36000
10869441;-0.35500
10872219;-0.37000
10874997;-0.37000
10877775;-0.37000
10880553;-0.36000
10883330;-0.35500
10886108;-0.36000
10888886;-0.37000
10891664;-0.39500
10894441;-0.37500
10897219;-0.37500
10899997;-0.37500
10902775;-0.37000
10905553;-0.37500
10908330;-0.38000
10911108;-0.37000
10913886;-0.36500
10916664;-0.35000
10919441;-0.35500
10922219;-0.37000
10924997;-0.36500
10927775;-0.36500
10930552;-0.36000
10933330;-0.35000
10936108;-0.35500
10938886;-0.36500
10941664;-0.36500
10944441;-0.36500
10947219;-0.37000
10949997;-0.35500
10952775;-0.37000
10955552;-0.37000
10958330;-0.38000
10961108;-0.36500
10963886;-0.37000
10966664;-0.37000
10969441;-0.38000
10972219;-0.38500
10974997;-0.40000
10977775;-0.39000
10980552;-0.39000
10983330;-0.38000
10986108;-0.39500
10988886;-0.40000
10991664;-0.41500
10994441;-0.40000
10997219;-0.40000
10999997;-0.40000
11002775;-0.38500
11005552;-0.41500
11008330;-0.41500
11011108;-0.39500
11013886;-0.37500
11016664;-0.37000
11019441;-0.37500
11022219;-0.37500
11024997;-0.38000
11027775;-0.36000
11030552;-0.35500
11033330;-0.33500
11036108;-0.32000
11038886;-0.33000
11041664;-0.31500
11044441;-0.30500
11047219;-0.29000
11049997;-0.27000
11052775;-0.27000
11055552;-0.26500
11058330;-0.26500
11061108;-0.25500
11063886;-0.26000
11066664;-0.25000
11069441;-0.24000
11072219;-0.24500
11074997;-0.26000
11077775;-0.24500
11080552;-0.23500
11083330;-0.23000
11086108;-0.23000
11088886;-0.23500
11091664;-0.24000
11094441;-0.23500
11097219;-0.22500
11099997;-0.22000
11102775;-0.22000
11105552;-0.22500
11108330;-0.23500
11111108;-0.23500
11113886;-0.23000
11116664;-0.23000
11119441;-0.23500
11122219;-0.23500
11124997;-0.24500
11127775;-0.23500
11130552;-0.23500
11133330;-0.22500
11136108;-0.23000
11138886;-0.24000
11141664;-0.25000
11144441;-0.25000
11147219;-0.24500
11149997;-0.24000
11152775;-0.23500
11155552;-0.25000
11158330;-0.25500
11161108;-0.25000
11163886;-0.26000
11166664;-0.25500
11169441;-0.25500
11172219;-0.26500
11174997;-0.27500
11177775;-0.26500
11180552;-0.25500
11183330;-0.25500
11186108;-0.26000
11188886;-0.26500
11191664;-0.27500
11194441;-0.28500
11197219;-0.26500
11199997;-0.27000
11202775;-0.27500
11205552;-0.28500
11208330;-0.29500
11211108;-0.29500
11213886;-0.27000
11216664;-0.27000
11219441;-0.27000
11222219;-0.28500
11224997;-0.29000
11227775;-0.29500
11230552;-0.29000
11233330;-0.27000
11236108;-0.27500
11238886;-0.29500
11241664;-0.30500
11244441;-0.29000
11247219;-0.28500
11249997;-0.27500
11252775;-0.28000
11255552;-0.28000
11258330;-0.29000
11261108;-0.28000
11263886;-0.27500
11266664;-0.26500
11269441;-0.28000
11272219;-0.28000
11274997;-0.29000
11277775;-0.28500
11280552;-0.27500
11283330;-0.27000
11286108;-0.27000
11288886;-0.27500
11291664;-0.28000
11294441;-0.28000
11297219;-0.26500
11299997;-0.27000
11302775;-0.26500
11305552;-0.27000
11308330;-0.26500
11311108;-0.25500
11313886;-0.26500
11316663;-0.25500
11319441;-0.25000
11322219;-0.26000
11324997;-0.26000
11327775;-0.24000
11330552;-0.22000
11333330;-0.20500
11336108;-0.19500
11338886;-0.21000
11341663;-0.20500
11344441;-0.19000
11347219;-0.19000
11349997;-0.16500
11352775;-0.17500
11355552;-0.18000
11358330;-0.17000
11361108;-0.16500
11363886;-0.14500
11366663;-0.15000
11369441;-0.15500
11372219;-0.16500
11374997;-0.19000
11377775;-0.19000
11380552;-0.17500
11383330;-0.16500
11386108;-0.18500
11388886;-0.19000
11391663;-0.18500
11394441;-0.16000
11397219;-0.13500
11399997;-0.15500
11402775;-0.19500
11405552;-0.21500
11408330;-0.23500
11411108;-0.24500
11413886;-0.25000
11416663;-0.25500
11419441;-0.27000
11422219;-0.28500
11424997;-0.30000
11427775;-0.29500
11430552;-0.27500
11433330;-0.27500
11436108;-0.28500
11438886;-0.28500
11441663;-0.28500
11444441;-0.29000
11447219;-0.28500
11449997;-0.29000
11452775;-0.29500
11455552;-0.29500
11458330;-0.30500
11461108;-0.30500
11463886;-0.29000
11466663;-0.29000
11469441;-0.28500
11472219;-0.29000
11474997;-0.31500
11477775;-0.31000
11480552;-0.30500
11483330;-0.30000
11486108;-0.30000
11488886;-0.32000
11491663;-0.33500
11494441;-0.36000
11497219;-0.39000
11499997;-0.42500
11502775;-0.44500
11505552;-0.48500
11508330;-0.52500
11511108;-0.48500
11513886;-0.37000
11516663;-0.19000
11519441;0.00000
11522219;0.22000
11524997;0.49500
11527775;0.80000
11530552;1.04000
11533330;1.13000
11536108;1.07000
11538886;0.78500
11541663;0.31500
11544441;-0.15000
11547219;-0.40000
11549997;-0.42500
11552775;-0.36000
11555552;-0.31500
11558330;-0.30500
11561108;-0.31000
11563886;-0.33000
11566663;-0.32000
11569441;-0.30500
11572219;-0.32000
11574997;-0.33000
11577775;-0.33000
11580552;-0.32000
11583330;-0.32500
11586108;-0.32000
11588886;-0.34500
11591663;-0.35000
11594441;-0.34500
11597219;-0.34500
11599997;-0.33500
11602775;-0.33000
11605552;-0.34000
11608330;-0.34000
11611108;-0.35000
11613886;-0.33500
11616663;-0.33500
11619441;-0.33500
11622219;-0.35000
11624997;-0.35500
11627775;-0.35500
11630552;-0.34500
11633330;-0.33000
11636108;-0.34000
11638886;-0.35000
11641663;-0.35000
11644441;-0.33500
11647219;-0.34000
11649997;-0.33000
11652775;-0.33000
11655552;-0.34000
11658330;-0.35000
11661108;-0.34500
11663886;-0.33500
11666663;-0.33500
11669441;-0.33500
11672219;-0.33500
11674997;-0.34000
11677775;-0.34500
11680552;-0.34000
11683330;-0.32000
11686108;-0.32500
11688886;-0.33500
11691663;-0.35000
11694441;-0.34000
11697219;-0.33500
11699997;-0.33000
11702775;-0.33500
11705552;-0.34000
11708330;-0.34500
11711108;-0.34000
11713886;-0.33500
11716663;-0.32500
11719441;-0.34000
11722219;-0.35000
11724997;-0.34500
11727774;-0.33500
11730552;-0.33000
11733330;-0.32000
11736108;-0.32000
11738886;-0.33500
11741663;-0.33500
11744441;-0.34000
11747219;-0.34000
11749997;-0.33500
11752774;-0.32500
11755552;-0.34000
11758330;-0.35500
11761108;-0.34500
11763886;-0.35000
11766663;-0.33500
11769441;-0.33000
11772219;-0.34500
11774997;-0.35000
11777774;-0.34500
11780552;-0.35000
11783330;-0.34500
11786108;-0.34500
11788886;-0.36000
11791663;-0.34500
11794441;-0.35500
11797219;-0.35000
11799997;-0.34500
11802774;-0.35000
11805552;-0.35500
11808330;-0.35000
11811108;-0.34500
11813886;-0.34000
11816663;-0.32000
11819441;-0.32500
11822219;-0.31500
11824997;-0.32500
11827774;-0.31000
11830552;-0.29000
11833330;-0.27000
11836108;-0.26500
11838886;-0.26000
11841663;-0.26000
11844441;-0.25000
11847219;-0.23000
11849997;-0.22500
11852774;-0.23000
11855552;-0.23000
11858330;-0.23500
11861108;-0.22500
11863886;-0.21500
11866663;-0.21000
11869441;-0.22500
11872219;-0.23500
11874997;-0.23500
11877774;-0.24000
11880552;-0.23500
11883330;-0.21000
11886108;-0.20500
11888886;-0.22000
11891663;-0.22500
11894441;-0.22500
11897219;-0.20500
11899997;-0.21000
11902774;-0.20500
11905552;-0.21000
11908330;-0.22500
11911108;-0.22500
11913886;-0.21500
11916663;-0.21000
11919441;-0.22500
11922219;-0.23000
11924997;-0.24000
11927774;-0.23500
11930552;-0.23000
11933330;-0.22000
11936108;-0.22000
11938886;-0.23000
11941663;-0.24000
11944441;-0.23000
11947219;-0.22500
11949997;-0.21000
11952774;-0.21500
11955552;-0.23500
11958330;-0.24500
11961108;-0.24500
11963886;-0.23500
11966663;-0.22000
11969441;-0.22500
11972219;-0.21500
11974997;-0.23000
11977774;-0.23500
11980552;-0.24000
11983330;-0.23000
11986108;-0.23500
11988886;-0.24500
11991663;-0.25500
11994441;-0.27000
11997219;-0.25500
11999997;-0.24500
12002774;-0.24000
12005552;-0.25000
12008330;-0.25500
12011108;-0.25500
12013886;-0.24500
12016663;-0.23500
12019441;-0.25000
12022219;-0.26500
12024997;-0.27500
12027774;-0.26500
12030552;-0.25500
12033330;-0.24500
12036108;-0.25000
12038886;-0.25500
12041663;-0.26000
12044441;-0.26500
12047219;-0.25500
12049997;-0.24000
12052774;-0.24500
12055552;-0.26000
12058330;-0.26500
12061108;-0.27000
12063886;-0.25500
12066663;-0.25000
12069441;-0.24500
12072219;-0.25000
12074997;-0.26000
12077774;-0.25500
12080552;-0.26000
12083330;-0.24500
12086108;-0.25500
12088886;-0.25500
12091663;-0.26500
12094441;-0.25500
12097219;-0.25500
12099997;-0.23000
12102774;-0.24000
12105552;-0.24000
12108330;-0.24500
12111108;-0.23500
12113885;-0.22500
12116663;-0.20500
12119441;-0.20500
12122219;-0.19500
12124997;-0.19500
12127774;-0.18500
12130552;-0.18000
12133330;-0.17500
12136108;-0.17000
12138885;-0.18000
12141663;-0.18000
12144441;-0.17500
12147219;-0.15000
12149997;-0.13500
12152774;-0.13500
12155552;-0.15000
12158330;-0.14500
12161108;-0.15000
12163885;-0.14500
12166663;-0.16000
12169441;-0.15500
12172219;-0.16000
12174997;-0.17500
12177774;-0.18500
12180552;-0.18000
12183330;-0.16500
12186108;-0.15000
12188885;-0.12000
12191663;-0.13500
12194441;-0.14500
12197219;-0.16500
12199997;-0.17000
12202774;-0.18500
12205552;-0.20500
12208330;-0.24000
12211108;-0.24500
12213885;-0.25000
12216663;-0.24500
12219441;-0.26000
12222219;-0.26500
12224997;-0.28000
12227774;-0.27000
12230552;-0.26500
12233330;-0.26500
12236108;-0.26000
12238885;-0.26000
12241663;-0.28500
12244441;-0.28000
12247219;-0.28500
12249997;-0.27500
12252774;-0.27500
12255552;-0.28500
12258330;-0.28500
12261108;-0.28500
12263885;-0.27500
12266663;-0.29000
12269441;-0.29000
12272219;-0.30000
12274997;-0.29500
12277774;-0.29000
12280552;-0.28500
12283330;-0.29500
12286108;-0.34000
12288885;-0.38500
12291663;-0.41500
12294441;-0.44500
12297219;-0.48500
12299997;-0.48500
12302774;-0.42500
12305552;-0.31000
12308330;-0.16000
12311108;0.02500
12313885;0.26000
12316663;0.55000
12319441;0.80500
12322219;0.96500
12324997;1.02000
12327774;0.91000
12330552;0.62500
12333330;0.21500
12336108;-0.16000
12338885;-0.36500
12341663;-0.42500
12344441;-0.40500
12347219;-0.35500
12349997;-0.32000
12352774;-0.32000
12355552;-0.32500
12358330;-0.33500
12361108;-0.32500
12363885;-0.30000
12366663;-0.30500
12369441;-0.32500
12372219;-0.33000
12374997;-0.34500
12377774;-0.32500
12380552;-0.31000
12383330;-0.30500
12386108;-0.31500
12388885;-0.32000
12391663;-0.31500
12394441;-0.31000
12397219;-0.31000
12399997;-0.31000
12402774;-0.31500
12405552;-0.33000
12408330;-0.33500
12411108;-0.33500
12413885;-0.32000
12416663;-0.31500
12419441;-0.32500
12422219;-0.34000
12424997;-0.35500
12427774;-0.34500
12430552;-0.33500
12433330;-0.33000
12436108;-0.34000
12438885;-0.34500
12441663;-0.34000
12444441;-0.34000
12447219;-0.32000
12449997;-0.31000
12452774;-0.34500
12455552;-0.33500
12458330;-0.34500
12461108;-0.33500
12463885;-0.33000
12466663;-0.32000
12469441;-0.31500
12472219;-0.32500
12474997;-0.33000
12477774;-0.34500
12480552;-0.33500
12483330;-0.33000
12486108;-0.34000
12488885;-0.34000
12491663;-0.34000
12494441;-0.34000
12497219;-0.33500
12499996;-0.34000
12502774;-0.33000
12505552;-0.32500
12508330;-0.33000
12511108;-0.32000
12513885;-0.32500
12516663;-0.32500
12519441;-0.32500
12522219;-0.33000
12524996;-0.33500
12527774;-0.32500
12530552;-0.32500
12533330;-0.32000
12536108;-0.32000
12538885;-0.33000
12541663;-0.34500
12544441;-0.35500
12547219;-0.35000
12549996;-0.34000
12552774;-0.34000
12555552;-0.34000
12558330;-0.35000
12561108;-0.34000
12563885;-0.34500
12566663;-0.34000
12569441;-0.34000
12572219;-0.35500
12574996;-0.38000
12577774;-0.37000
12580552;-0.37000
12583330;-0.37000
12586108;-0.37500
12588885;-0.40000
12591663;-0.40500
12594441;-0.39000
12597219;-0.38500
12599996;-0.37500
12602774;-0.37500
12605552;-0.38500
12608330;-0.41000
12611108;-0.39500
12613885;-0.37500
12616663;-0.36000
12619441;-0.35000
12622219;-0.34500
12624996;-0.34000
12627774;-0.32500
12630552;-0.31000
12633330;-0.28500
12636108;-0.28000
12638885;-0.28500
12641663;-0.29000
12644441;-0.28500
12647219;-0.28000
12649996;-0.25500
12652774;-0.24000
12655552;-0.24500
12658330;-0.22500
12661108;-0.22000
12663885;-0.21000
12666663;-0.20500
12669441;-0.22000
12672219;-0.23000
12674996;-0.23000
12677774;-0.22000
12680552;-0.22000
12683330;-0.21000
12686108;-0.21000
12688885;-0.21000
12691663;-0.22500
12694441;-0.23500
12697219;-0.22500
12699996;-0.22500
12702774;-0.23000
12705552;-0.24500
12708330;-0.24500
12711108;-0.24000
12713885;-0.23000
12716663;-0.22500
12719441;-0.23500
12722219;-0.24500
12724996;-0.25000
12727774;-0.24500
12730552;-0.23500
12733330;-0.23500
12736108;-0.23500
12738885;-0.24000
12741663;-0.26000
12744441;-0.24500
12747219;-0.23000
12749996;-0.23500
12752774;-0.24500
12755552;-0.26000
12758330;-0.27000
12761108;-0.26500
12763885;-0.24500
12766663;-0.23500
12769441;-0.24000
12772219;-0.25500
12774996;-0.27000
12777774;-0.26000
12780552;-0.25500
12783330;-0.25500
12786108;-0.24000
12788885;-0.25500
12791663;-0.27000
12794441;-0.29000
12797219;-0.27500
12799996;-0.26000
12802774;-0.26000
12805552;-0.28000
12808330;-0.29000
12811108;-0.29500
12813885;-0.26000
12816663;-0.25000
12819441;-0.25500
12822219;-0.27500
12824996;-0.29000
12827774;-0.29500
12830552;-0.28000
12833330;-0.27000
12836108;-0.25500
12838885;-0.26000
12841663;-0.27000
12844441;-0.26500
12847219;-0.27000
12849996;-0.26000
12852774;-0.26500
12855552;-0.27500
12858330;-0.28500
12861108;-0.29500
12863885;-0.28000
12866663;-0.27000
12869441;-0.26500
12872219;-0.27500
12874996;-0.28500
12877774;-0.27500
12880552;-0.27000
12883330;-0.26000
12886108;-0.26000
12888885;-0.26000
12891663;-0.27500
12894441;-0.27500
12897219;-0.26000
12899996;-0.26500
12902774;-0.26000
12905552;-0.26500
12908330;-0.26500
12911107;-0.27000
12913885;-0.27500
12916663;-0.27000
12919441;-0.26500
12922219;-0.26500
12924996;-0.26000
12927774;-0.26000
12930552;-0.24500
12933330;-0.24000
12936107;-0.24000
12938885;-0.23500
12941663;-0.23000
12944441;-0.22000
12947219;-0.20500
12949996;-0.20000
12952774;-0.19000
12955552;-0.19500
12958330;-0.19500
12961107;-0.19500
12963885;-0.18000
12966663;-0.17500
12969441;-0.15500
12972219;-0.15000
12974996;-0.16500
12977774;-0.17000
12980552;-0.17500
12983330;-0.17000
12986107;-0.18000
12988885;-0.18500
12991663;-0.19500
12994441;-0.20000
12997219;-0.19000
12999996;-0.19000
13002774;-0.19000
13005552;-0.18500
13008330;-0.18000
13011107;-0.16500
13013885;-0.17500
13016663;-0.19500
13019441;-0.22500
13022219;-0.23000
13024996;-0.26000
13027774;-0.28000
13030552;-0.29000
13033330;-0.29500
13036107;-0.30000
13038885;-0.30000
13041663;-0.30500
13044441;-0.30000
13047219;-0.30000
13049996;-0.28500
13052774;-0.30500
13055552;-0.30500
13058330;-0.32500
13061107;-0.32500
13063885;-0.31000
13066663;-0.30500
13069441;-0.30000
13072219;-0.31500
13074996;-0.32000
13077774;-0.32000
13080552;-0.30500
13083330;-0.30500
13086107;-0.31000
13088885;-0.31500
13091663;-0.31500
13094441;-0.32000
13097219;-0.31000
13099996;-0.30000
13102774;-0.32000
13105552;-0.33500
13108330;-0.39000
13111107;-0.40500
13113885;-0.41000
13116663;-0.41500
13119441;-0.44500
13122219;-0.50000
13124996;-0.52500
13127774;-0.49000
13130552;-0.40000
13133330;-0.27500
13136107;-0.13000
13138885;0.01500
13141663;0.21500
13144441;0.47500
13147219;0.71000
13149996;0.91500
13152774;1.04500
13155552;1.05500
13158330;0.88500
13161107;0.55000
13163885;0.15000
13166663;-0.16000
13169441;-0.33000
13172219;-0.40500
13174996;-0.42500
13177774;-0.40000
13180552;-0.35500
13183330;-0.33000
13186107;-0.33500
13188885;-0.34000
13191663;-0.34500
13194441;-0.35500
13197219;-0.33500
13199996;-0.31500
13202774;-0.31500
13205552;-0.33500
13208330;-0.35500
13211107;-0.35000
13213885;-0.33500
13216663;-0.33000
13219441;-0.32500
13222219;-0.33500
13224996;-0.34000
13227774;-0.34500
13230552;-0.34000
13233330;-0.33500
13236107;-0.32500
13238885;-0.32500
13241663;-0.33500
13244441;-0.32500
13247219;-0.32000
13249996;-0.31500
13252774;-0.32500
13255552;-0.33500
13258330;-0.35000
13261107;-0.34000
13263885;-0.34000
13266663;-0.33000
13269441;-0.33500
13272219;-0.35000
13274996;-0.35500
13277774;-0.35500
13280552;-0.34000
13283330;-0.33500
13286107;-0.34500
13288885;-0.34500
13291663;-0.36000
13294441;-0.36500
13297218;-0.35500
13299996;-0.35000
13302774;-0.34500
13305552;-0.35000
13308330;-0.36000
13311107;-0.35500
13313885;-0.34500
13316663;-0.33500
13319441;-0.33500
13322218;-0.34500
13324996;-0.36500
13327774;-0.36500
13330552;-0.34000
13333330;-0.34000
13336107;-0.34500
13338885;-0.34000
13341663;-0.35500
13344441;-0.34000
13347218;-0.34000
13349996;-0.32500
13352774;-0.33000
13355552;-0.33500
13358330;-0.35500
13361107;-0.34500
13363885;-0.34500
13366663;-0.33000
13369441;-0.34000
13372218;-0.35000
13374996;-0.35000
13377774;-0.36500
13380552;-0.35500
13383330;-0.35500
13386107;-0.36000
13388885;-0.37000
13391663;-0.39000
13394441;-0.38000
13397218;-0.37000
13399996;-0.37000
13402774;-0.37000
13405552;-0.38500
13408330;-0.39500
13411107;-0.39500
13413885;-0.39000
13416663;-0.39000
13419441;-0.40000
13422218;-0.39500
13424996;-0.41000
13427774;-0.43000
13430552;-0.41500
13433330;-0.41000
13436107;-0.41500
13438885;-0.42000
13441663;-0.42500
13444441;-0.41500
13447218;-0.41000
13449996;-0.40000
13452774;-0.39000
13455552;-0.39500
13458330;-0.40500
13461107;-0.38500
13463885;-0.36500
13466663;-0.35500
13469441;-0.36000
13472218;-0.36000
13474996;-0.35500
13477774;-0.34000
13480552;-0.32000
13483330;-0.31500
13486107;-0.30500
13488885;-0.30000
13491663;-0.30500
13494441;-0.29000
13497218;-0.27500
13499996;-0.25000
13502774;-0.25500
13505552;-0.26000
13508330;-0.25500
13511107;-0.23500
13513885;-0.23500
13516663;-0.23000
13519441;-0.23000
13522218;-0.22500
13524996;-0.23500
13527774;-0.24000
13530552;-0.21500
13533330;-0.22000
13536107;-0.22000
13538885;-0.22500
13541663;-0.22500
13544441;-0.22500
13547218;-0.22500
13549996;-0.21500
13552774;-0.21000
13555552;-0.22500
13558330;-0.23000
13561107;-0.23000
13563885;-0.22500
13566663;-0.21000
13569441;-0.21500
13572218;-0.22000
13574996;-0.23000
13577774;-0.22500
13580552;-0.22000
13583330;-0.22500
13586107;-0.22500
13588885;-0.24000
13591663;-0.24500
13594441;-0.25000
13597218;-0.23000
13599996;-0.22500
13602774;-0.23000
13605552;-0.23500
13608330;-0.24500
13611107;-0.24500
13613885;-0.23500
13616663;-0.23000
13619441;-0.24000
13622218;-0.25000
13624996;-0.26000
13627774;-0.24500
13630552;-0.24500
13633330;-0.23500
13636107;-0.24000
13638885;-0.24500
13641663;-0.25500
13644441;-0.26500
13647218;-0.25500
13649996;-0.24500
13652774;-0.23500
13655552;-0.25000
13658330;-0.26000
13661107;-0.26000
13663885;-0.26000
13666663;-0.25500
13669441;-0.26000
13672218;-0.26500
13674996;-0.26500
13677774;-0.26000
13680552;-0.25500
13683330;-0.25500
13686107;-0.25000
13688885;-0.26500
13691663;-0.28000
13694441;-0.26500
13697218;-0.26000
13699996;-0.25000
13702774;-0.25500
13705552;-0.25000
13708329;-0.26000
13711107;-0.25500
13713885;-0.24500
13716663;-0.24000
13719441;-0.24500
13722218;-0.26500
13724996;-0.26500
13727774;-0.26000
13730552;-0.25000
13733329;-0.25000
13736107;-0.25500
13738885;-0.25000
13741663;-0.26000
13744441;-0.26500
13747218;-0.25500
13749996;-0.24500
13752774;-0.25000
13755552;-0.25500
13758329;-0.25500
13761107;-0.25500
13763885;-0.24000
13766663;-0.23500
13769441;-0.22500
13772218;-0.23500
13774996;-0.24500
13777774;-0.24500
13780552;-0.24000
13783329;-0.22500
13786107;-0.22000
13788885;-0.23500
13791663;-0.25500
13794441;-0.24000
13797218;-0.22000
13799996;-0.20500
13802774;-0.20000
13805552;-0.19500
13808329;-0.19500
13811107;-0.17000
13813885;-0.16500
13816663;-0.16500
13819441;-0.16500
13822218;-0.17500
13824996;-0.19000
13827774;-0.18000
13830552;-0.15500
13833329;-0.14000
13836107;-0.14000
13838885;-0.15000
13841663;-0.15500
13844441;-0.14000
13847218;-0.13000
13849996;-0.12000
13852774;-0.12000
13855552;-0.13500
13858329;-0.15000
13861107;-0.14500
13863885;-0.14500
13866663;-0.14500
13869441;-0.13500
13872218;-0.15000
13874996;-0.16000
13877774;-0.15500
13880552;-0.16000
13883329;-0.13500
13886107;-0.11500
13888885;-0.10500
13891663;-0.13000
13894441;-0.16000
13897218;-0.18000
13899996;-0.17500
13902774;-0.19500
13905552;-0.22000
13908329;-0.24500
13911107;-0.25500
13913885;-0.24500
13916663;-0.24000
13919441;-0.25000
13922218;-0.26000
13924996;-0.26500
13927774;-0.26500
13930552;-0.25500
13933329;-0.25500
13936107;-0.26500
13938885;-0.26500
13941663;-0.27500
13944441;-0.27500
13947218;-0.27500
13949996;-0.26000
13952774;-0.25500
13955552;-0.27000
13958329;-0.28500
13961107;-0.28000
13963885;-0.26500
13966663;-0.28000
13969441;-0.28000
13972218;-0.27000
13974996;-0.28500
13977774;-0.29500
13980552;-0.31500
13983329;-0.34000
13986107;-0.39500
13988885;-0.42000
13991663;-0.45500
13994441;-0.48500
13997218;-0.51500
13999996;-0.50000
14002774;-0.42000
14005552;-0.30000
14008329;-0.15500
14011107;0.00500
14013885;0.20000
14016663;0.45500
14019441;0.76500
14022218;1.02000
14024996;1.18000
14027774;1.23500
14030552;1.14000
14033329;0.78500
14036107;0.29000
14038885;-0.15000
14041663;-0.37000
14044441;-0.40500
14047218;-0.33000
14049996;-0.27000
14052774;-0.27000
14055552;-0.27000
14058329;-0.29500
14061107;-0.29000
14063885;-0.30000
14066663;-0.28500
14069441;-0.28500
14072218;-0.29500
14074996;-0.32000
14077774;-0.31500
14080552;-0.31000
14083329;-0.30500
14086107;-0.30000
14088885;-0.31000
14091663;-0.31000
14094440;-0.30500
14097218;-0.30500
14099996;-0.29000
14102774;-0.30500
14105552;-0.31000
14108329;-0.31500
14111107;-0.30500
14113885;-0.30000
14116663;-0.29500
14119440;-0.29000
14122218;-0.30000
14124996;-0.31500
14127774;-0.31500
14130552;-0.31000
14133329;-0.30500
14136107;-0.30000
14138885;-0.30500
14141663;-0.32000
14144440;-0.32000
14147218;-0.31000
14149996;-0.30500
14152774;-0.29500
14155552;-0.30500
14158329;-0.32500
14161107;-0.31000
14163885;-0.30500
14166663;-0.29000
14169440;-0.29500
14172218;-0.30500
14174996;-0.30500
14177774;-0.31000
14180552;-0.29500
14183329;-0.29000
14186107;-0.29500
14188885;-0.30000
14191663;-0.31000
14194440;-0.31500
14197218;-0.30500
14199996;-0.28500
14202774;-0.29500
14205552;-0.30000
14208329;-0.32000
14211107;-0.29500
14213885;-0.29500
14216663;-0.29000
14219440;-0.28500
14222218;-0.31000
14224996;-0.32000
14227774;-0.32000
14230552;-0.30500
14233329;-0.30000
14236107;-0.30500
14238885;-0.31000
14241663;-0.33500
14244440;-0.32000
14247218;-0.31000
14249996;-0.31000
14252774;-0.32000
14255552;-0.31500
14258329;-0.33000
14261107;-0.32000
14263885;-0.32500
14266663;-0.31500
14269440;-0.31500
14272218;-0.32500
14274996;-0.34000
14277774;-0.34000
14280552;-0.33000
14283329;-0.32000
14286107;-0.32000
14288885;-0.33000
14291663;-0.34000
14294440;-0.34000
14297218;-0.33500
14299996;-0.33000
14302774;-0.32000
14305552;-0.33500
14308329;-0.33500
14311107;-0.32000
14313885;-0.31000
14316663;-0.29500
14319440;-0.29000
14322218;-0.28500
14324996;-0.28500
14327774;-0.26500
14330552;-0.25000
14333329;-0.23500
14336107;-0.23000
14338885;-0.22500
14341663;-0.22000
14344440;-0.19500
14347218;-0.19000
14349996;-0.19000
14352774;-0.19000
14355552;-0.19500
14358329;-0.20000
14361107;-0.19000
14363885;-0.18000
14366663;-0.17500
14369440;-0.17500
14372218;-0.18500
14374996;-0.20500
14377774;-0.19500
14380552;-0.19500
14383329;-0.18500
14386107;-0.18500
14388885;-0.19000
14391663;-0.20000
14394440;-0.19500
14397218;-0.19500
14399996;-0.18000
14402774;-0.18500
14405552;-0.18500
14408329;-0.20000
14411107;-0.19500
14413885;-0.20000
14416663;-0.19000
14419440;-0.19000
14422218;-0.18500
14424996;-0.20000
14427774;-0.19500
14430552;-0.20000
14433329;-0.19000
14436107;-0.19000
14438885;-0.20000
14441663;-0.21000
14444440;-0.21000
14447218;-0.21000
14449996;-0.20500
14452774;-0.20500
14455552;-0.21500
14458329;-0.22000
14461107;-0.22500
14463885;-0.22500
14466663;-0.21000
14469440;-0.22000
14472218;-0.22000
14474996;-0.24000
14477774;-0.23000
14480552;-0.22500
14483329;-0.22000
14486107;-0.22000
14488885;-0.23000
14491663;-0.24500
14494440;-0.24500
14497218;-0.23000
14499996;-0.22500
14502774;-0.24000
14505551;-0.25000
14508329;-0.24500
14511107;-0.24500
14513885;-0.23500
14516663;-0.24000
14519440;-0.23000
14522218;-0.25500
14524996;-0.25500
14527774;-0.26500
14530551;-0.24500
14533329;-0.23500
14536107;-0.24500
14538885;-0.25500
14541663;-0.27000
14544440;-0.26500
14547218;-0.25500
14549996;-0.24000
14552774;-0.25500
14555551;-0.26000
14558329;-0.26500
14561107;-0.26000
14563885;-0.25500
14566663;-0.24500
14569440;-0.24000
14572218;-0.25500
14574996;-0.26500
14577774;-0.25000
14580551;-0.25000
14583329;-0.25000
14586107;-0.24500
14588885;-0.24500
14591663;-0.26000
14594440;-0.25500
14597218;-0.24500
14599996;-0.24500
14602774;-0.25000
14605551;-0.25500
14608329;-0.26500
14611107;-0.25000
14613885;-0.23500
14616663;-0.24000
14619440;-0.23000
14622218;-0.24000
14624996;-0.25500
14627774;-0.24500
14630551;-0.23000
14633329;-0.20500
14636107;-0.19000
14638885;-0.18500
14641663;-0.19500
14644440;-0.19000
14647218;-0.17000
14649996;-0.16500
14652774;-0.16000
14655551;-0.16500
14658329;-0.17000
14661107;-0.18000
14663885;-0.14500
14666663;-0.15000
14669440;-0.13000
14672218;-0.13000
14674996;-0.13000
14677774;-0.12000
14680551;-0.10500
14683329;-0.12000
14686107;-0.12500
14688885;-0.14000
14691663;-0.16000
14694440;-0.15500
14697218;-0.15000
14699996;-0.13500
14702774;-0.15000
14705551;-0.16500
14708329;-0.18000
14711107;-0.15500
14713885;-0.12500
14716663;-0.10500
14719440;-0.12500
14722218;-0.17000
14724996;-0.20000
14727774;-0.23000
14730551;-0.22000
14733329;-0.22500
14736107;-0.23500
14738885;-0.26000
14741663;-0.27000
14744440;-0.28000
14747218;-0.26500
14749996;-0.26500
14752774;-0.25000
14755551;-0.27000
14758329;-0.27000
14761107;-0.27500
14763885;-0.27000
14766663;-0.25000
14769440;-0.26500
14772218;-0.27000
14774996;-0.28000
14777774;-0.29000
14780551;-0.27500
14783329;-0.27000
14786107;-0.27000
14788885;-0.28000
14791663;-0.29000
14794440;-0.29500
14797218;-0.27000
14799996;-0.27000
14802774;-0.27000
14805551;-0.28500
14808329;-0.30000
14811107;-0.32000
14813885;-0.35500
14816663;-0.39500
14819440;-0.42500
14822218;-0.46000
14824996;-0.50500
14827774;-0.49000
14830551;-0.39000
14833329;-0.21000
14836107;-0.02000
14838885;0.17000
14841663;0.41500
14844440;0.73000
14847218;1.00500
14849996;1.17000
14852774;1.20000
14855551;1.07000
14858329;0.74500
14861107;0.31000
14863885;-0.06000
14866663;-0.29000
14869440;-0.40000
14872218;-0.44000
14874996;-0.41500
14877774;-0.37000
14880551;-0.32500
14883329;-0.29500
14886107;-0.29000
14888885;-0.30500
14891662;-0.31500
14894440;-0.32000
14897218;-0.32000
14899996;-0.30500
14902774;-0.31500
14905551;-0.32500
14908329;-0.33500
14911107;-0.33500
14913885;-0.32500
14916662;-0.32500
14919440;-0.32000
14922218;-0.32500
14924996;-0.34000
14927774;-0.33500
14930551;-0.32500
14933329;-0.32000
14936107;-0.31500
14938885;-0.33500
14941662;-0.34500
14944440;-0.33500
14947218;-0.33000
14949996;-0.31500
14952774;-0.31500
14955551;-0.31500
14958329;-0.34500
14961107;-0.34000
14963885;-0.31500
14966662;-0.30500
14969440;-0.32000
14972218;-0.33000
14974996;-0.33000
14977774;-0.32000
14980551;-0.31500
14983329;-0.31000
14986107;-0.31500
14988885;-0.32500
14991662;-0.34500
14994440;-0.34500
14997218;-0.32500
14999996;-0.32000
15002774;-0.32000
15005551;-0.32500
15008329;-0.33000
15011107;-0.33000
15013885;-0.33000
15016662;-0.32000
15019440;-0.31500
15022218;-0.33000
15024996;-0.34000
15027774;-0.34500
15030551;-0.33500
15033329;-0.32000
15036107;-0.32500
15038885;-0.33000
15041662;-0.35500
15044440;-0.34000
15047218;-0.33500
15049996;-0.32000
15052774;-0.32500
15055551;-0.34000
15058329;-0.35500
15061107;-0.34000
15063885;-0.34500
15066662;-0.34500
15069440;-0.34500
15072218;-0.35500
15074996;-0.36500
15077774;-0.35500
15080551;-0.34500
15083329;-0.33000
15086107;-0.34000
15088885;-0.34000
15091662;-0.36500
15094440;-0.35500
15097218;-0.35000
15099996;-0.33500
15102774;-0.34000
15105551;-0.34000
15108329;-0.37000
15111107;-0.35500
15113885;-0.35000
15116662;-0.35000
15119440;-0.36000
15122218;-0.35000
15124996;-0.36500
15127774;-0.35500
15130551;-0.35000
15133329;-0.33500
15136107;-0.34000
15138885;-0.33500
15141662;-0.33000
15144440;-0.31500
15147218;-0.30500
15149996;-0.29000
15152774;-0.28500
15155551;-0.28000
15158329;-0.27000
15161107;-0.26000
15163885;-0.23500
15166662;-0.21500
15169440;-0.21500
15172218;-0.22000
15174996;-0.23500
15177774;-0.22000
15180551;-0.21500
15183329;-0.20000
15186107;-0.20500
15188885;-0.21500
15191662;-0.23000
15194440;-0.22000
15197218;-0.21000
15199996;-0.19500
15202774;-0.19500
15205551;-0.21000
15208329;-0.22500
15211107;-0.23500
15213885;-0.22000
15216662;-0.21500
15219440;-0.20500
15222218;-0.21000
15224996;-0.22000
15227774;-0.22500
15230551;-0.21000
15233329;-0.20000
15236107;-0.21500
15238885;-0.21500
15241662;-0.22500
15244440;-0.23000
15247218;-0.22500
15249996;-0.21000
15252774;-0.22000
15255551;-0.22000
15258329;-0.23000
15261107;-0.23500
15263885;-0.22500
15266662;-0.22000
15269440;-0.22500
15272218;-0.23500
15274996;-0.24500
15277774;-0.23500
15280551;-0.23500
15283329;-0.22500
15286107;-0.23000
15288885;-0.22500
15291662;-0.24500
15294440;-0.23500
15297218;-0.23500
15299996;-0.24000
15302773;-0.25000
15305551;-0.25500
15308329;-0.27000
15311107;-0.26500
15313885;-0.26000
15316662;-0.25000
15319440;-0.25500
15322218;-0.26500
15324996;-0.27000
15327773;-0.27000
15330551;-0.26000
15333329;-0.25500
15336107;-0.26500
15338885;-0.26000
15341662;-0.27500
15344440;-0.26500
15347218;-0.25500
15349996;-0.25000
15352773;-0.25000
15355551;-0.26500
15358329;-0.26500
15361107;-0.26500
15363885;-0.24500
15366662;-0.24500
15369440;-0.23500
15372218;-0.24000
15374996;-0.26500
15377773;-0.26000
15380551;-0.25500
15383329;-0.25500
15386107;-0.25000
15388885;-0.25500
15391662;-0.28000
15394440;-0.28000
15397218;-0.27000
15399996;-0.27000
15402773;-0.26000
15405551;-0.27500
15408329;-0.26000
15411107;-0.26500
15413885;-0.26000
15416662;-0.24500
15419440;-0.25500
15422218;-0.27000
15424996;-0.26500
15427773;-0.26000
15430551;-0.23500
15433329;-0.24000
15436107;-0.24500
15438885;-0.24500
15441662;-0.26000
15444440;-0.26500
15447218;-0.25000
15449996;-0.22000
15452773;-0.22000
15455551;-0.20500
15458329;-0.21500
15461107;-0.20000
15463885;-0.19500
15466662;-0.19000
15469440;-0.18000
15472218;-0.17500
15474996;-0.18500
15477773;-0.17000
15480551;-0.15500
15483329;-0.13500
15486107;-0.15000
15488885;-0.16500
15491662;-0.17000
15494440;-0.16500
15497218;-0.16500
15499996;-0.15500
15502773;-0.17000
15505551;-0.16500
15508329;-0.19000
15511107;-0.20000
15513885;-0.18500
15516662;-0.17000
15519440;-0.16500
15522218;-0.15500
15524996;-0.15500
15527773;-0.18000
15530551;-0.21000
15533329;-0.21500
15536107;-0.24000
15538885;-0.27000
15541662;-0.28000
15544440;-0.28500
15547218;-0.28000
15549996;-0.29000
15552773;-0.28000
15555551;-0.29000
15558329;-0.29500
15561107;-0.28500
15563885;-0.28000
15566662;-0.28500
15569440;-0.28500
15572218;-0.29500
15574996;-0.30500
15577773;-0.30000
15580551;-0.29500
15583329;-0.30500
15586107;-0.30000
15588885;-0.31000
15591662;-0.30500
15594440;-0.31000
15597218;-0.30500
15599996;-0.30500
15602773;-0.30000
15605551;-0.30500
15608329;-0.32000
15611107;-0.33500
15613885;-0.35500
15616662;-0.37500
15619440;-0.39000
15622218;-0.41500
15624996;-0.42500
15627773;-0.44000
15630551;-0.50000
15633329;-0.55500
15636107;-0.59000
15638885;-0.57000
15641662;-0.54000
15644440;-0.46500
15647218;-0.35000
15649996;-0.22500
15652773;-0.05500
15655551;0.14500
15658329;0.42000
15661107;0.70500
15663885;0.91500
15666662;0.99500
15669440;0.88000
15672218;0.56000
15674996;0.13500
15677773;-0.22500
15680551;-0.42000
15683329;-0.44000
15686107;-0.42000
15688884;-0.38000
15691662;-0.37000
15694440;-0.35500
15697218;-0.35500
15699996;-0.34500
15702773;-0.34000
15705551;-0.35000
15708329;-0.36000
15711107;-0.35500
15713884;-0.35000
15716662;-0.34500
15719440;-0.35000
15722218;-0.37500
15724996;-0.38500
15727773;-0.36000
15730551;-0.35000
15733329;-0.33500
15736107;-0.33500
15738884;-0.35500
15741662;-0.35500
15744440;-0.35500
15747218;-0.35500
15749996;-0.35500
15752773;-0.35000
15755551;-0.36500
15758329;-0.37500
15761107;-0.38000
15763884;-0.37500
15766662;-0.34500
15769440;-0.34500
15772218;-0.34500
15774996;-0.35000
15777773;-0.36000
15780551;-0.36500
15783329;-0.35500
15786107;-0.36000
15788884;-0.37500
15791662;-0.38500
15794440;-0.38000
15797218;-0.37500
15799996;-0.36000
15802773;-0.35500
15805551;-0.36500
15808329;-0.37000
15811107;-0.37000
15813884;-0.36000
15816662;-0.36500
15819440;-0.37000
15822218;-0.37500
15824996;-0.38000
15827773;-0.37500
15830551;-0.38000
15833329;-0.35500
15836107;-0.34500
15838884;-0.36500
15841662;-0.38500
15844440;-0.39000
15847218;-0.38000
15849996;-0.37000
15852773;-0.37500
15855551;-0.38000
15858329;-0.37500
15861107;-0.39000
15863884;-0.37500
15866662;-0.37000
15869440;-0.38000
15872218;-0.40000
15874996;-0.41000
15877773;-0.40500
15880551;-0.40000
15883329;-0.39500
15886107;-0.41000
15888884;-0.43000
15891662;-0.45000
15894440;-0.44500
15897218;-0.43500
15899996;-0.41500
15902773;-0.41000
15905551;-0.42500
15908329;-0.43500
15911107;-0.46000
15913884;-0.47000
15916662;-0.46000
15919440;-0.44000
15922218;-0.44000
15924996;-0.43000
15927773;-0.42500
15930551;-0.40000
15933329;-0.40500
15936107;-0.41000
15938884;-0.43500
15941662;-0.43000
15944440;-0.40500
15947218;-0.41000
15949996;-0.39000
15952773;-0.37000
15955551;-0.37000
15958329;-0.36500
15961107;-0.34500
15963884;-0.32500
15966662;-0.31000
15969440;-0.30000
15972218;-0.30500
15974996;-0.32000
15977773;-0.32000
15980551;-0.31500
15983329;-0.30000
15986107;-0.29500
15988884;-0.29500
15991662;-0.30500
15994440;-0.29000
15997218;-0.27500
15999996;-0.25500
16002773;-0.26500
16005551;-0.27000
16008329;-0.28500
16011107;-0.30000
16013884;-0.30000
16016662;-0.29500
16019440;-0.29500
16022218;-0.28000
16024996;-0.29000
16027773;-0.29500
16030551;-0.29000
16033329;-0.28500
16036107;-0.29500
16038884;-0.29000
16041662;-0.28500
16044440;-0.29000
16047218;-0.28500
16049996;-0.29500
16052773;-0.30000
16055551;-0.30500
16058329;-0.30500
16061107;-0.31500
16063884;-0.30500
16066662;-0.29500
16069440;-0.30500
16072218;-0.31500
16074995;-0.33500
16077773;-0.33500
16080551;-0.33000
16083329;-0.31500
16086107;-0.32000
16088884;-0.33000
16091662;-0.33500
16094440;-0.33000
16097218;-0.31500
16099995;-0.31000
16102773;-0.32500
16105551;-0.34000
16108329;-0.35000
16111107;-0.34000
16113884;-0.33000
16116662;-0.32000
16119440;-0.33000
16122218;-0.33500
16124995;-0.36000
16127773;-0.36000
16130551;-0.34000
16133329;-0.32000
16136107;-0.33000
16138884;-0.35000
16141662;-0.36000
16144440;-0.36500
16147218;-0.35000
16149995;-0.33500
16152773;-0.32500
16155551;-0.33500
16158329;-0.34500
16161107;-0.34500
16163884;-0.34000
16166662;-0.33500
16169440;-0.33000
16172218;-0.34500
16174995;-0.35500
16177773;-0.35500
16180551;-0.35000
16183329;-0.33000
16186107;-0.33500
16188884;-0.33500
16191662;-0.35000
16194440;-0.35500
16197218;-0.34000
16199995;-0.33000
16202773;-0.33500
16205551;-0.35500
16208329;-0.36500
16211107;-0.35500
16213884;-0.33000
16216662;-0.33000
16219440;-0.33000
16222218;-0.33000
16224995;-0.33000
16227773;-0.35000
16230551;-0.33000
16233329;-0.32500
16236107;-0.31000
16238884;-0.31000
16241662;-0.32000
16244440;-0.32000
16247218;-0.30000
16249995;-0.29000
16252773;-0.28000
16255551;-0.29500
16258329;-0.29000
16261107;-0.28000
16263884;-0.26500
16266662;-0.25000
16269440;-0.24500
16272218;-0.25500
16274995;-0.25000
16277773;-0.24000
16280551;-0.24000
16283329;-0.24000
16286107;-0.25000
16288884;-0.26000
16291662;-0.27500
16294440;-0.29000
16297218;-0.28000
16299995;-0.28000
16302773;-0.28500
16305551;-0.30000
16308329;-0.30500
16311107;-0.28500
16313884;-0.24500
16316662;-0.23000
16319440;-0.23000
16322218;-0.27500
16324995;-0.31500
16327773;-0.32500
16330551;-0.33000
16333329;-0.34500
16336107;-0.35000
16338884;-0.37500
16341662;-0.39000
16344440;-0.40500
16347218;-0.39500
16349995;-0.37500
16352773;-0.38000
16355551;-0.38000
16358329;-0.38000
16361107;-0.39000
16363884;-0.38000
16366662;-0.37500
16369440;-0.39000
16372218;-0.39500
16374995;-0.41500
16377773;-0.41500
16380551;-0.40500
16383329;-0.39000
16386107;-0.39500
16388884;-0.39500
16391662;-0.40500
16394440;-0.40000
16397218;-0.39500
16399995;-0.40000
16402773;-0.42500
16405551;-0.44000
16408329;-0.47500
16411107;-0.50000
16413884;-0.51000
16416662;-0.49000
16419440;-0.50500
16422218;-0.56000
16424995;-0.59500
16427773;-0.55500
16430551;-0.42500
16433329;-0.26000
16436107;-0.07500
16438884;0.12500
16441662;0.38500
16444440;0.64500
16447218;0.85500
16449995;0.96000
16452773;0.86000
16455551;0.53500
16458329;0.09000
16461107;-0.30000
16463884;-0.48500
16466662;-0.51500
16469440;-0.49000
16472218;-0.45500
16474995;-0.44000
16477773;-0.43500
16480551;-0.42500
16483329;-0.40500
16486106;-0.42500
16488884;-0.42000
16491662;-0.42500
16494440;-0.42500
16497218;-0.41500
16499995;-0.40500
16502773;-0.41500
16505551;-0.42000
16508329;-0.43000
16511106;-0.42500
16513884;-0.42000
16516662;-0.41500
16519440;-0.41500
16522218;-0.42500
16524995;-0.44000
16527773;-0.43500
16530551;-0.43500
16533329;-0.42500
16536106;-0.43500
16538884;-0.44500
16541662;-0.45500
16544440;-0.43500
16547218;-0.43000
16549995;-0.43000
16552773;-0.43000
16555551;-0.44000
16558329;-0.44000
16561106;-0.45000
16563884;-0.43000
16566662;-0.42500
16569440;-0.43500
16572218;-0.43500
16574995;-0.44500
16577773;-0.45000
16580551;-0.43500
16583329;-0.41500
16586106;-0.43000
16588884;-0.43500
16591662;-0.44500
16594440;-0.44000
16597218;-0.43000
16599995;-0.42500
16602773;-0.42500
16605551;-0.43000
16608329;-0.44000
16611106;-0.43500
16613884;-0.44000
16616662;-0.42500
16619440;-0.44000
16622218;-0.43500
16624995;-0.45000
16627773;-0.44000
16630551;-0.43500
16633329;-0.42500
16636106;-0.43500
16638884;-0.43000
16641662;-0.44500
16644440;-0.45500
16647218;-0.43500
16649995;-0.42500
16652773;-0.44500
16655551;-0.44500
16658329;-0.45500
16661106;-0.46000
16663884;-0.45000
16666662;-0.45500
16669440;-0.47000
16672218;-0.47000
16674995;-0.48500
16677773;-0.47500
16680551;-0.48500
16683329;-0.48000
16686106;-0.48000
16688884;-0.49500
16691662;-0.49500
16694440;-0.49500
16697218;-0.49500
16699995;-0.48000
16702773;-0.49500
16705551;-0.48500
16708329;-0.50000
16711106;-0.50000
16713884;-0.48500
16716662;-0.46500
16719440;-0.46000
16722218;-0.45500
16724995;-0.45000
16727773;-0.43500
16730551;-0.41500
16733329;-0.38500
16736106;-0.37500
16738884;-0.37000
16741662;-0.36500
16744440;-0.36500
16747218;-0.33500
16749995;-0.32000
16752773;-0.33000
16755551;-0.32500
16758329;-0.32000
16761106;-0.32500
16763884;-0.30500
16766662;-0.30000
16769440;-0.30500
16772218;-0.30500
16774995;-0.31500
16777773;-0.32000
16780551;-0.32000
16783329;-0.31000
16786106;-0.30500
16788884;-0.31500
16791662;-0.32500
16794440;-0.32500
16797218;-0.31500
16799995;-0.30500
16802773;-0.30500
16805551;-0.30500
16808329;-0.31000
16811106;-0.32000
16813884;-0.32000
16816662;-0.30500
16819440;-0.30500
16822218;-0.31500
16824995;-0.32500
16827773;-0.32500
16830551;-0.31500
16833329;-0.29500
16836106;-0.31000
16838884;-0.32000
16841662;-0.32000
16844440;-0.32500
16847218;-0.31500
16849995;-0.31000
16852773;-0.31500
16855551;-0.32500
16858329;-0.33500
16861106;-0.34000
16863884;-0.32500
16866662;-0.33000
16869440;-0.32500
16872217;-0.34000
16874995;-0.35500
16877773;-0.35000
16880551;-0.35000
16883329;-0.33000
16886106;-0.34000
16888884;-0.34000
16891662;-0.35500
16894440;-0.36000
16897217;-0.34000
16899995;-0.34000
16902773;-0.34500
16905551;-0.36000
16908329;-0.35500
16911106;-0.36500
16913884;-0.35000
16916662;-0.34500
16919440;-0.35500
16922217;-0.36000
16924995;-0.37000
16927773;-0.37000
16930551;-0.36000
16933329;-0.35000
16936106;-0.34000
16938884;-0.35000
16941662;-0.36500
16944440;-0.37000
16947217;-0.36000
16949995;-0.33500
16952773;-0.34500
16955551;-0.34500
16958329;-0.36000
16961106;-0.36000
16963884;-0.35500
16966662;-0.34500
16969440;-0.35000
16972217;-0.35500
16974995;-0.36000
16977773;-0.36000
16980551;-0.35500
16983329;-0.35000
16986106;-0.35000
16988884;-0.35500
16991662;-0.35500
16994440;-0.35500
16997217;-0.35500
16999995;-0.33500
17002773;-0.35000
17005551;-0.34500
17008329;-0.35000
17011106;-0.35000
17013884;-0.34500
17016662;-0.33500
17019440;-0.33500
17022217;-0.33500
17024995;-0.34000
17027773;-0.33000
17030551;-0.31500
17033329;-0.30000
17036106;-0.30000
17038884;-0.28500
17041662;-0.29500
17044440;-0.29000
17047217;-0.28000
17049995;-0.27000
17052773;-0.26500
17055551;-0.27000
17058329;-0.27000
17061106;-0.26500
17063884;-0.25000
17066662;-0.24500
17069440;-0.24000
17072217;-0.24500
17074995;-0.24500
17077773;-0.25000
17080551;-0.25000
17083329;-0.24500
17086106;-0.24500
17088884;-0.26500
17091662;-0.27000
17094440;-0.26000
17097217;-0.27000
17099995;-0.26000
17102773;-0.26500
17105551;-0.25000
17108329;-0.23500
17111106;-0.22000
17113884;-0.23000
17116662;-0.25000
17119440;-0.28500
17122217;-0.30500
17124995;-0.32500
17127773;-0.34500
17130551;-0.34500
17133329;-0.35000
17136106;-0.36000
17138884;-0.37500
17141662;-0.38000
17144440;-0.38000
17147217;-0.38000
17149995;-0.36500
17152773;-0.37000
17155551;-0.37500
17158329;-0.39000
17161106;-0.38500
17163884;-0.38000
17166662;-0.37500
17169440;-0.37500
17172217;-0.38000
17174995;-0.39000
17177773;-0.39500
17180551;-0.37500
17183329;-0.37500
17186106;-0.37000
17188884;-0.38500
17191662;-0.39500
17194440;-0.39000
17197217;-0.39000
17199995;-0.40000
17202773;-0.43500
17205551;-0.48500
17208329;-0.52500
17211106;-0.56000
17213884;-0.56500
17216662;-0.60500
