time_ms;ecg_value
0;0.98500
2778;0.99500
5556;0.82000
8333;0.44500
11111;0.00000
13889;-0.33000
16667;-0.46500
19444;-0.45500
22222;-0.41000
25000;-0.35500
27778;-0.34000
30556;-0.34000
33333;-0.36500
36111;-0.37500
38889;-0.37000
41667;-0.36500
44444;-0.36000
47222;-0.36500
50000;-0.37500
52778;-0.38000
55556;-0.39500
58333;-0.38500
61111;-0.37500
63889;-0.38000
66667;-0.38000
69444;-0.38000
72222;-0.39500
75000;-0.38500
77778;-0.37000
80556;-0.36500
83333;-0.36500
86111;-0.37500
88889;-0.38000
91667;-0.38500
94444;-0.38500
97222;-0.38000
100000;-0.37500
102778;-0.39000
105556;-0.38500
108333;-0.39000
111111;-0.38500
113889;-0.38500
116667;-0.37000
119444;-0.38000
122222;-0.39000
125000;-0.38000
127778;-0.37500
130556;-0.35500
133333;-0.36000
136111;-0.37500
138889;-0.39500
141667;-0.39500
144444;-0.40000
147222;-0.38500
150000;-0.38000
152778;-0.38500
155556;-0.39500
158333;-0.38500
161111;-0.37000
163889;-0.37000
166667;-0.37500
169444;-0.38500
172222;-0.39000
175000;-0.38000
177778;-0.38500
180556;-0.37500
183333;-0.37000
186111;-0.38500
188889;-0.38500
191667;-0.38000
194444;-0.37000
197222;-0.37000
200000;-0.36500
202778;-0.37000
205555;-0.37500
208333;-0.38000
211111;-0.37000
213889;-0.36000
216667;-0.37000
219444;-0.38500
222222;-0.40000
225000;-0.40000
227778;-0.39000
230555;-0.38500
233333;-0.39000
236111;-0.39000
238889;-0.41500
241667;-0.40500
244444;-0.39000
247222;-0.38000
250000;-0.38000
252778;-0.39000
255555;-0.39500
258333;-0.38500
261111;-0.38000
263889;-0.38500
266667;-0.39000
269444;-0.39500
272222;-0.40000
275000;-0.39500
277778;-0.38500
280555;-0.36000
283333;-0.37500
286111;-0.38000
288889;-0.38000
291667;-0.37000
294444;-0.35000
297222;-0.32500
300000;-0.32000
302778;-0.32500
305555;-0.33000
308333;-0.32000
311111;-0.31000
313889;-0.29000
316667;-0.28500
319444;-0.27500
322222;-0.29500
325000;-0.28500
327778;-0.27000
330555;-0.26500
333333;-0.26500
336111;-0.27000
338889;-0.27000
341667;-0.26500
344444;-0.26000
347222;-0.26000
350000;-0.25000
352778;-0.27000
355555;-0.27500
358333;-0.27500
361111;-0.26000
363889;-0.26000
366667;-0.26500
369444;-0.27000
372222;-0.28000
375000;-0.27500
377778;-0.27500
380555;-0.27000
383333;-0.27500
386111;-0.28000
388889;-0.30000
391667;-0.29500
394444;-0.29000
397222;-0.28500
400000;-0.29000
402778;-0.30500
405555;-0.32000
408333;-0.30500
411111;-0.30000
413889;-0.28500
416667;-0.28000
419444;-0.28000
422222;-0.29000
425000;-0.29000
427778;-0.29000
430555;-0.29000
433333;-0.30000
436111;-0.31500
438889;-0.31500
441667;-0.31500
444444;-0.32000
447222;-0.32500
450000;-0.32500
452778;-0.34000
455555;-0.34500
458333;-0.34000
461111;-0.33000
463889;-0.32000
466667;-0.31500
469444;-0.32500
472222;-0.32500
475000;-0.32500
477778;-0.31500
480555;-0.31500
483333;-0.32000
486111;-0.32000
488889;-0.33000
491667;-0.32000
494444;-0.32500
497222;-0.32500
500000;-0.34000
502778;-0.33500
505555;-0.36000
508333;-0.35500
511111;-0.35500
513889;-0.34500
516667;-0.34500
519444;-0.35000
522222;-0.35000
525000;-0.34500
527778;-0.34000
530555;-0.33500
533333;-0.34500
536111;-0.35000
538889;-0.35000
541667;-0.34000
544444;-0.33000
547222;-0.33000
550000;-0.33000
552778;-0.33000
555555;-0.34500
558333;-0.34500
561111;-0.32500
563889;-0.32500
566667;-0.31500
569444;-0.31000
572222;-0.30000
575000;-0.29000
577778;-0.27500
580555;-0.27000
583333;-0.26000
586111;-0.27000
588889;-0.27500
591667;-0.28500
594444;-0.27500
597222;-0.26000
600000;-0.26500
602778;-0.26500
605555;-0.27000
608333;-0.24500
611111;-0.24000
613889;-0.22500
616666;-0.22000
619444;-0.23000
622222;-0.25500
625000;-0.25500
627778;-0.25000
630555;-0.24500
633333;-0.23000
636111;-0.24500
638889;-0.28500
641666;-0.28500
644444;-0.27000
647222;-0.22500
650000;-0.24000
652778;-0.26000
655555;-0.29000
658333;-0.30500
661111;-0.30500
663889;-0.32500
666666;-0.35000
669444;-0.37500
672222;-0.38000
675000;-0.38500
677778;-0.36500
680555;-0.36500
683333;-0.37000
686111;-0.36500
688889;-0.36000
691666;-0.37000
694444;-0.35000
697222;-0.35500
700000;-0.35500
702778;-0.37500
705555;-0.38500
708333;-0.37500
711111;-0.38000
713889;-0.37000
716666;-0.37500
719444;-0.39000
722222;-0.38500
725000;-0.38000
727778;-0.37000
730555;-0.36000
733333;-0.38500
736111;-0.41500
738889;-0.46000
741666;-0.48500
744444;-0.51500
747222;-0.55500
750000;-0.58500
752778;-0.55000
755555;-0.44000
758333;-0.28500
761111;-0.11500
763889;0.07000
766666;0.33000
769444;0.60000
772222;0.80500
775000;0.94500
777778;1.00000
780555;0.96000
783333;0.74500
786111;0.39000
788889;0.00000
791666;-0.28500
794444;-0.43500
797222;-0.50000
800000;-0.49500
802778;-0.47000
805555;-0.44500
808333;-0.42500
811111;-0.42500
813889;-0.42500
816666;-0.41500
819444;-0.42500
822222;-0.44000
825000;-0.44000
827778;-0.43500
830555;-0.44000
833333;-0.43500
836111;-0.44500
838889;-0.45500
841666;-0.46000
844444;-0.43500
847222;-0.42000
850000;-0.43000
852778;-0.44500
855555;-0.43000
858333;-0.43500
861111;-0.41500
863889;-0.41000
866666;-0.42500
869444;-0.43500
872222;-0.46000
875000;-0.44500
877778;-0.44500
880555;-0.43000
883333;-0.45000
886111;-0.45500
888889;-0.46500
891666;-0.45500
894444;-0.45000
897222;-0.44500
900000;-0.43500
902778;-0.45000
905555;-0.46000
908333;-0.45500
911111;-0.45000
913889;-0.45000
916666;-0.44500
919444;-0.45500
922222;-0.48000
925000;-0.47500
927778;-0.46500
930555;-0.45000
933333;-0.45500
936111;-0.46500
938889;-0.46000
941666;-0.46000
944444;-0.43500
947222;-0.43500
950000;-0.44500
952778;-0.45500
955555;-0.47500
958333;-0.46500
961111;-0.44500
963889;-0.43500
966666;-0.44000
969444;-0.45000
972222;-0.45500
975000;-0.44500
977778;-0.45000
980555;-0.44500
983333;-0.43500
986111;-0.44500
988889;-0.47500
991666;-0.47000
994444;-0.47500
997222;-0.46500
1000000;-0.47000
1002777;-0.48000
1005555;-0.49000
1008333;-0.48500
1011111;-0.46500
1013889;-0.47000
1016666;-0.47000
1019444;-0.47500
1022222;-0.48000
1025000;-0.48000
1027777;-0.48000
1030555;-0.47500
1033333;-0.50000
1036111;-0.50500
1038889;-0.51000
1041666;-0.51500
1044444;-0.52000
1047222;-0.50500
1050000;-0.51500
1052777;-0.52000
1055555;-0.52000
1058333;-0.51000
1061111;-0.49500
1063889;-0.50000
1066666;-0.48500
1069444;-0.48500
1072222;-0.47500
1075000;-0.46000
1077777;-0.43000
1080555;-0.40500
1083333;-0.40000
1086111;-0.40000
1088889;-0.41500
1091666;-0.40000
1094444;-0.39000
1097222;-0.37500
1100000;-0.35000
1102777;-0.34500
1105555;-0.36000
1108333;-0.34000
1111111;-0.36000
1113889;-0.35000
1116666;-0.34500
1119444;-0.33000
1122222;-0.32500
1125000;-0.32500
1127777;-0.31500
1130555;-0.31500
1133333;-0.33000
1136111;-0.33000
1138889;-0.34500
1141666;-0.32500
1144444;-0.32000
1147222;-0.31500
1150000;-0.32500
1152777;-0.34000
1155555;-0.34500
1158333;-0.33000
1161111;-0.32000
1163889;-0.31000
1166666;-0.31000
1169444;-0.33000
1172222;-0.34500
1175000;-0.35500
1177777;-0.34000
1180555;-0.33000
1183333;-0.33000
1186111;-0.33000
1188889;-0.35000
1191666;-0.35000
1194444;-0.34500
1197222;-0.35000
1200000;-0.34500
1202777;-0.35500
1205555;-0.36500
1208333;-0.36000
1211111;-0.36000
1213889;-0.36000
1216666;-0.35500
1219444;-0.36500
1222222;-0.38000
1225000;-0.37500
1227777;-0.37000
1230555;-0.36500
1233333;-0.36500
1236111;-0.36500
1238889;-0.38000
1241666;-0.38000
1244444;-0.37000
1247222;-0.36000
1250000;-0.37000
1252777;-0.38500
1255555;-0.40000
1258333;-0.40000
1261111;-0.39000
1263889;-0.38000
1266666;-0.39000
1269444;-0.40000
1272222;-0.41000
1275000;-0.39000
1277777;-0.38500
1280555;-0.36500
1283333;-0.37000
1286111;-0.37000
1288889;-0.38000
1291666;-0.37000
1294444;-0.35000
1297222;-0.35500
1300000;-0.35500
1302777;-0.36500
1305555;-0.37000
1308333;-0.36500
1311111;-0.37000
1313889;-0.35000
1316666;-0.36500
1319444;-0.38000
1322222;-0.38000
1325000;-0.38500
1327777;-0.37000
1330555;-0.37500
1333333;-0.37500
1336111;-0.38000
1338889;-0.39500
1341666;-0.38500
1344444;-0.39000
1347222;-0.37000
1350000;-0.36500
1352777;-0.37000
1355555;-0.37500
1358333;-0.35000
1361111;-0.34500
1363889;-0.33000
1366666;-0.32000
1369444;-0.31500
1372222;-0.31500
1375000;-0.30500
1377777;-0.29500
1380555;-0.29000
1383333;-0.29500
1386111;-0.29500
1388888;-0.29500
1391666;-0.27500
1394444;-0.26000
1397222;-0.26000
1400000;-0.25000
1402777;-0.25000
1405555;-0.26000
1408333;-0.25000
1411111;-0.25000
1413888;-0.25000
1416666;-0.25500
1419444;-0.25000
1422222;-0.26500
1425000;-0.27000
1427777;-0.27500
1430555;-0.27000
1433333;-0.25000
1436111;-0.24500
1438888;-0.25000
1441666;-0.28000
1444444;-0.30000
1447222;-0.30000
1450000;-0.31500
1452777;-0.34000
1455555;-0.36000
1458333;-0.37500
1461111;-0.37000
1463888;-0.37000
1466666;-0.37500
1469444;-0.38500
1472222;-0.39500
1475000;-0.38500
1477777;-0.38000
1480555;-0.37500
1483333;-0.37000
1486111;-0.38000
1488888;-0.38000
1491666;-0.37500
1494444;-0.38000
1497222;-0.36000
1500000;-0.36500
1502777;-0.37500
1505555;-0.38000
1508333;-0.38000
1511111;-0.38000
1513888;-0.38000
1516666;-0.37000
1519444;-0.37500
1522222;-0.39000
1525000;-0.39000
1527777;-0.38000
1530555;-0.38500
1533333;-0.40500
1536111;-0.44500
1538888;-0.49000
1541666;-0.50000
1544444;-0.50500
1547222;-0.53500
1550000;-0.57500
1552777;-0.56500
1555555;-0.49000
1558333;-0.34500
1561111;-0.15500
1563888;0.01500
1566666;0.25500
1569444;0.50500
1572222;0.74000
1575000;0.91500
1577777;1.00000
1580555;0.93000
1583333;0.65500
1586111;0.23500
1588888;-0.18000
1591666;-0.45000
1594444;-0.51500
1597222;-0.49500
1600000;-0.45000
1602777;-0.42500
1605555;-0.42500
1608333;-0.42500
1611111;-0.43000
1613888;-0.41500
1616666;-0.43000
1619444;-0.42000
1622222;-0.43500
1625000;-0.43500
1627777;-0.42500
1630555;-0.40500
1633333;-0.42500
1636111;-0.43000
1638888;-0.43000
1641666;-0.43500
1644444;-0.43000
1647222;-0.41500
1650000;-0.41500
1652777;-0.42500
1655555;-0.43500
1658333;-0.43000
1661111;-0.42000
1663888;-0.41500
1666666;-0.43000
1669444;-0.42000
1672222;-0.43000
1675000;-0.41500
1677777;-0.42000
1680555;-0.40500
1683333;-0.41500
1686111;-0.42000
1688888;-0.42500
1691666;-0.44000
1694444;-0.43000
1697222;-0.42000
1700000;-0.42000
1702777;-0.43000
1705555;-0.44000
1708333;-0.43000
1711111;-0.42000
1713888;-0.42000
1716666;-0.42000
1719444;-0.42500
1722222;-0.42500
1725000;-0.42500
1727777;-0.40000
1730555;-0.40000
1733333;-0.40500
1736111;-0.41000
1738888;-0.42500
1741666;-0.42000
1744444;-0.40000
1747222;-0.39500
1750000;-0.40500
1752777;-0.41000
1755555;-0.42000
1758333;-0.41000
1761111;-0.40500
1763888;-0.40500
1766666;-0.41500
1769444;-0.42000
1772222;-0.43000
1775000;-0.42500
1777777;-0.42000
1780555;-0.41000
1783333;-0.41500
1786111;-0.42000
1788888;-0.43500
1791666;-0.44000
1794444;-0.43000
1797222;-0.42500
1799999;-0.43000
1802777;-0.43500
1805555;-0.44500
1808333;-0.44000
1811111;-0.42500
1813888;-0.42500
1816666;-0.43500
1819444;-0.44500
1822222;-0.46000
1824999;-0.46000
1827777;-0.45000
1830555;-0.45000
1833333;-0.45000
1836111;-0.46500
1838888;-0.47000
1841666;-0.46500
1844444;-0.46000
1847222;-0.46000
1849999;-0.46500
1852777;-0.47000
1855555;-0.48000
1858333;-0.49000
1861111;-0.47000
1863888;-0.46000
1866666;-0.47000
1869444;-0.46000
1872222;-0.46500
1874999;-0.44500
1877777;-0.44000
1880555;-0.42000
1883333;-0.39500
1886111;-0.39500
1888888;-0.40000
1891666;-0.37000
1894444;-0.35500
1897222;-0.34000
1899999;-0.32500
1902777;-0.32500
1905555;-0.32500
1908333;-0.32000
1911111;-0.30000
1913888;-0.28500
1916666;-0.28000
1919444;-0.29000
1922222;-0.29500
1924999;-0.29000
1927777;-0.28500
1930555;-0.28500
1933333;-0.27500
1936111;-0.28500
1938888;-0.29000
1941666;-0.28500
1944444;-0.28500
1947222;-0.27000
1949999;-0.27500
1952777;-0.29000
1955555;-0.30000
1958333;-0.30000
1961111;-0.28500
1963888;-0.29000
1966666;-0.28000
1969444;-0.29500
1972222;-0.31500
1974999;-0.31000
1977777;-0.29500
1980555;-0.29000
1983333;-0.28000
1986111;-0.27500
1988888;-0.30000
1991666;-0.30000
1994444;-0.28500
1997222;-0.29000
1999999;-0.28000
2002777;-0.29000
2005555;-0.30000
2008333;-0.30000
2011111;-0.28500
2013888;-0.28500
2016666;-0.30000
2019444;-0.28500
2022222;-0.30500
2024999;-0.30000
2027777;-0.30500
2030555;-0.29500
2033333;-0.30000
2036111;-0.31000
2038888;-0.32000
2041666;-0.31500
2044444;-0.31500
2047222;-0.30000
2049999;-0.31000
2052777;-0.32500
2055555;-0.33000
2058333;-0.33000
2061111;-0.31000
2063888;-0.30500
2066666;-0.30000
2069444;-0.32000
2072222;-0.32500
2074999;-0.33000
2077777;-0.31500
2080555;-0.30500
2083333;-0.30500
2086111;-0.32000
2088888;-0.33500
2091666;-0.33000
2094444;-0.31500
2097222;-0.31500
2099999;-0.31500
2102777;-0.32000
2105555;-0.32500
2108333;-0.32000
2111111;-0.31000
2113888;-0.30500
2116666;-0.31000
2119444;-0.32500
2122222;-0.32500
2124999;-0.32500
2127777;-0.31500
2130555;-0.31000
2133333;-0.30000
2136111;-0.31000
2138888;-0.32000
2141666;-0.32500
2144444;-0.31000
2147222;-0.29000
2149999;-0.30500
2152777;-0.31000
2155555;-0.33500
2158333;-0.31000
2161111;-0.31500
2163888;-0.30500
2166666;-0.31500
2169444;-0.31500
2172222;-0.33000
2174999;-0.31500
2177777;-0.31500
2180555;-0.32000
2183333;-0.32000
2186110;-0.31500
2188888;-0.32000
2191666;-0.31000
2194444;-0.30000
2197222;-0.28500
2199999;-0.27000
2202777;-0.28000
2205555;-0.28000
2208333;-0.25500
2211110;-0.24500
2213888;-0.22000
2216666;-0.22500
2219444;-0.23500
2222222;-0.24000
2224999;-0.22500
2227777;-0.20500
2230555;-0.20000
2233333;-0.19000
2236110;-0.19000
2238888;-0.21500
2241666;-0.23000
2244444;-0.20500
2247222;-0.21000
2249999;-0.21500
2252777;-0.23500
2255555;-0.24500
2258333;-0.24500
2261110;-0.23000
2263888;-0.23500
2266666;-0.24500
2269444;-0.24500
2272222;-0.24500
2274999;-0.22000
2277777;-0.19000
2280555;-0.18500
2283333;-0.21500
2286110;-0.24000
2288888;-0.27500
2291666;-0.28500
2294444;-0.28500
2297222;-0.29500
2299999;-0.31000
2302777;-0.32000
2305555;-0.33500
2308333;-0.34500
2311110;-0.33000
2313888;-0.31000
2316666;-0.31500
2319444;-0.33000
2322222;-0.33500
2324999;-0.33500
2327777;-0.31500
2330555;-0.31500
2333333;-0.33000
2336110;-0.34000
2338888;-0.35000
2341666;-0.34500
2344444;-0.34000
2347222;-0.33500
2349999;-0.33000
2352777;-0.35000
2355555;-0.36500
2358333;-0.35000
2361110;-0.35000
2363888;-0.33500
2366666;-0.33500
2369444;-0.34500
2372222;-0.37000
2374999;-0.36000
2377777;-0.36000
2380555;-0.38000
2383333;-0.41500
2386110;-0.46000
2388888;-0.49500
2391666;-0.50500
2394444;-0.53000
2397222;-0.56000
2399999;-0.52000
2402777;-0.42000
2405555;-0.27500
2408333;-0.11000
2411110;0.05500
2413888;0.26000
2416666;0.51000
2419444;0.77500
2422222;0.96000
2424999;1.09000
2427777;1.16000
2430555;1.12000
2433333;0.87500
2436110;0.43500
2438888;-0.04000
2441666;-0.37500
2444444;-0.48500
2447222;-0.45500
2449999;-0.40000
2452777;-0.36500
2455555;-0.37000
2458333;-0.37500
2461110;-0.37000
2463888;-0.37000
2466666;-0.39000
2469444;-0.39000
2472222;-0.41000
2474999;-0.41000
2477777;-0.41500
2480555;-0.40500
2483333;-0.40000
2486110;-0.41500
2488888;-0.43000
2491666;-0.42500
2494444;-0.42000
2497222;-0.40500
2499999;-0.40500
2502777;-0.41000
2505555;-0.43500
2508333;-0.42000
2511110;-0.41000
2513888;-0.40500
2516666;-0.41000
2519444;-0.41500
2522222;-0.41500
2524999;-0.42500
2527777;-0.41000
2530555;-0.41500
2533333;-0.40500
2536110;-0.41000
2538888;-0.42000
2541666;-0.42500
2544444;-0.41500
2547222;-0.42000
2549999;-0.41000
2552777;-0.43000
2555555;-0.43000
2558333;-0.42500
2561110;-0.42000
2563888;-0.41500
2566666;-0.41000
2569444;-0.41000
2572222;-0.42500
2574999;-0.41500
2577777;-0.40500
2580555;-0.40500
2583333;-0.40500
2586110;-0.40500
2588888;-0.42000
2591666;-0.41000
2594444;-0.41000
2597221;-0.40500
2599999;-0.40500
2602777;-0.40500
2605555;-0.43000
2608333;-0.42500
2611110;-0.40500
2613888;-0.41000
2616666;-0.40500
2619444;-0.41500
2622221;-0.43000
2624999;-0.43500
2627777;-0.43000
2630555;-0.41000
2633333;-0.40500
2636110;-0.42000
2638888;-0.43000
2641666;-0.43000
2644444;-0.40500
2647221;-0.41500
2649999;-0.40500
2652777;-0.41000
2655555;-0.42500
2658333;-0.42000
2661110;-0.41500
2663888;-0.40500
2666666;-0.40500
2669444;-0.41500
2672221;-0.43000
2674999;-0.43000
2677777;-0.41500
2680555;-0.42000
2683333;-0.42500
2686110;-0.42500
2688888;-0.45000
2691666;-0.44000
2694444;-0.42500
2697221;-0.42000
2699999;-0.42500
2702777;-0.42500
2705555;-0.44000
2708333;-0.42500
2711110;-0.40500
2713888;-0.40000
2716666;-0.40000
2719444;-0.40000
2722221;-0.39500
2724999;-0.38500
2727777;-0.37500
2730555;-0.35500
2733333;-0.34500
2736110;-0.34500
2738888;-0.35000
2741666;-0.34000
2744444;-0.33500
2747221;-0.32000
2749999;-0.31000
2752777;-0.32000
2755555;-0.32500
2758333;-0.32000
2761110;-0.29500
2763888;-0.28500
2766666;-0.27500
2769444;-0.28000
2772221;-0.29500
2774999;-0.29000
2777777;-0.28000
2780555;-0.27500
2783333;-0.26500
2786110;-0.29000
2788888;-0.30000
2791666;-0.30000
2794444;-0.29000
2797221;-0.29000
2799999;-0.28500
2802777;-0.28500
2805555;-0.28500
2808333;-0.27500
2811110;-0.27000
2813888;-0.26500
2816666;-0.27500
2819444;-0.27500
2822221;-0.28500
2824999;-0.28000
2827777;-0.27500
2830555;-0.26500
2833333;-0.27000
2836110;-0.27500
2838888;-0.28500
2841666;-0.28500
2844444;-0.27500
2847221;-0.26500
2849999;-0.27000
2852777;-0.28500
2855555;-0.29500
2858333;-0.29500
2861110;-0.28500
2863888;-0.28000
2866666;-0.28500
2869444;-0.30500
2872221;-0.31500
2874999;-0.31500
2877777;-0.30500
2880555;-0.29500
2883333;-0.30000
2886110;-0.31000
2888888;-0.31500
2891666;-0.31500
2894444;-0.30500
2897221;-0.30500
2899999;-0.29500
2902777;-0.31500
2905555;-0.33000
2908333;-0.32000
2911110;-0.32000
2913888;-0.30500
2916666;-0.31000
2919444;-0.33000
2922221;-0.34000
2924999;-0.33500
2927777;-0.33000
2930555;-0.32500
2933333;-0.33500
2936110;-0.33500
2938888;-0.34500
2941666;-0.34500
2944444;-0.34000
2947221;-0.34000
2949999;-0.33500
2952777;-0.34500
2955555;-0.35500
2958333;-0.35000
2961110;-0.34000
2963888;-0.33500
2966666;-0.33000
2969444;-0.33000
2972221;-0.36000
2974999;-0.33500
2977777;-0.33500
2980555;-0.32500
2983332;-0.33500
2986110;-0.33000
2988888;-0.34000
2991666;-0.34500
2994444;-0.33000
2997221;-0.32500
2999999;-0.33500
3002777;-0.33500
3005555;-0.35000
3008332;-0.34000
3011110;-0.32500
3013888;-0.32500
3016666;-0.31500
3019444;-0.33500
3022221;-0.32500
3024999;-0.32000
3027777;-0.32500
3030555;-0.31500
3033332;-0.30500
3036110;-0.31500
3038888;-0.32000
3041666;-0.32500
3044444;-0.31500
3047221;-0.31500
3049999;-0.31500
3052777;-0.31000
3055555;-0.32500
3058332;-0.31000
3061110;-0.29000
3063888;-0.27000
3066666;-0.26000
3069444;-0.27500
3072221;-0.28000
3074999;-0.27500
3077777;-0.25500
3080555;-0.24500
3083332;-0.25500
3086110;-0.25000
3088888;-0.26000
3091666;-0.25000
3094444;-0.23500
3097221;-0.22500
3099999;-0.20500
3102777;-0.21000
3105555;-0.22500
3108332;-0.24000
3111110;-0.23500
3113888;-0.23000
3116666;-0.23500
3119444;-0.23000
3122221;-0.25000
3124999;-0.24000
3127777;-0.24000
3130555;-0.23500
3133332;-0.22500
3136110;-0.22000
3138888;-0.21500
3141666;-0.24000
3144444;-0.25500
3147221;-0.28000
3149999;-0.28000
3152777;-0.31000
3155555;-0.33000
3158332;-0.33500
3161110;-0.33000
3163888;-0.32500
3166666;-0.32000
3169444;-0.33500
3172221;-0.35000
3174999;-0.34000
3177777;-0.35000
3180555;-0.33000
3183332;-0.32500
3186110;-0.34000
3188888;-0.35500
3191666;-0.35000
3194444;-0.34000
3197221;-0.33500
3199999;-0.33500
3202777;-0.34500
3205555;-0.36000
3208332;-0.35000
3211110;-0.34500
3213888;-0.34500
3216666;-0.35000
3219444;-0.35500
3222221;-0.38000
3224999;-0.37500
3227777;-0.36500
3230555;-0.40500
3233332;-0.44500
3236110;-0.47000
3238888;-0.49500
3241666;-0.52000
3244444;-0.55000
3247221;-0.55000
3249999;-0.48500
3252777;-0.36500
3255555;-0.23000
3258332;-0.07500
3261110;0.10500
3263888;0.32000
3266666;0.58500
3269444;0.81500
3272221;0.97000
3274999;1.08000
3277777;1.17000
3280555;1.22000
3283332;1.22000
3286110;1.12500
3288888;0.94000
3291666;0.66000
3294444;0.33000
3297221;-0.03500
3299999;-0.32500
3302777;-0.47000
3305555;-0.50500
3308332;-0.46500
3311110;-0.41500
3313888;-0.38500
3316666;-0.38000
3319444;-0.38500
3322221;-0.40000
3324999;-0.40000
3327777;-0.39500
3330555;-0.39000
3333332;-0.39000
3336110;-0.41000
3338888;-0.41500
3341666;-0.42500
3344444;-0.42000
3347221;-0.41000
3349999;-0.40500
3352777;-0.41500
3355555;-0.43000
3358332;-0.42500
3361110;-0.41500
3363888;-0.41000
3366666;-0.40500
3369444;-0.41500
3372221;-0.42000
3374999;-0.41000
3377777;-0.40500
3380555;-0.40000
3383332;-0.40000
3386110;-0.41500
3388888;-0.41500
3391666;-0.41000
3394443;-0.40500
3397221;-0.40000
3399999;-0.40500
3402777;-0.42000
3405555;-0.42500
3408332;-0.43500
3411110;-0.41000
3413888;-0.41500
3416666;-0.40500
3419443;-0.41000
3422221;-0.44000
3424999;-0.42500
3427777;-0.43000
3430555;-0.41000
3433332;-0.41500
3436110;-0.41500
3438888;-0.42500
3441666;-0.42500
3444443;-0.41000
3447221;-0.41000
3449999;-0.40500
3452777;-0.42000
3455555;-0.43500
3458332;-0.42500
3461110;-0.41500
3463888;-0.40500
3466666;-0.41500
3469443;-0.43000
3472221;-0.44500
3474999;-0.44000
3477777;-0.43000
3480555;-0.42000
3483332;-0.42000
3486110;-0.42000
3488888;-0.43500
3491666;-0.43500
3494443;-0.42500
3497221;-0.41500
3499999;-0.41500
3502777;-0.43000
3505555;-0.43500
3508332;-0.42000
3511110;-0.41500
3513888;-0.41500
3516666;-0.41500
3519443;-0.43500
3522221;-0.43000
3524999;-0.43000
3527777;-0.42500
3530555;-0.42500
3533332;-0.42500
3536110;-0.44000
3538888;-0.45000
3541666;-0.44500
3544443;-0.43500
3547221;-0.42000
3549999;-0.42000
3552777;-0.44000
3555555;-0.45000
3558332;-0.44500
3561110;-0.44000
3563888;-0.43500
3566666;-0.43500
3569443;-0.43500
3572221;-0.43500
3574999;-0.44000
3577777;-0.42500
3580555;-0.41000
3583332;-0.40500
3586110;-0.40000
3588888;-0.40000
3591666;-0.39500
3594443;-0.36000
3597221;-0.34500
3599999;-0.34500
3602777;-0.35000
3605555;-0.35500
3608332;-0.34500
3611110;-0.33000
3613888;-0.31500
3616666;-0.31000
3619443;-0.30500
3622221;-0.32500
3624999;-0.31500
3627777;-0.30500
3630555;-0.29500
3633332;-0.29500
3636110;-0.30500
3638888;-0.31500
3641666;-0.32000
3644443;-0.31500
3647221;-0.30000
3649999;-0.30500
3652777;-0.31000
3655555;-0.30500
3658332;-0.31000
3661110;-0.30000
3663888;-0.29500
3666666;-0.28500
3669443;-0.30000
3672221;-0.30000
3674999;-0.30500
3677777;-0.30000
3680555;-0.29000
3683332;-0.29500
3686110;-0.30000
3688888;-0.31000
3691666;-0.31000
3694443;-0.30000
3697221;-0.29500
3699999;-0.29500
3702777;-0.30500
3705555;-0.32500
3708332;-0.32000
3711110;-0.31500
3713888;-0.31000
3716666;-0.31000
3719443;-0.33000
3722221;-0.34500
3724999;-0.33000
3727777;-0.32500
3730555;-0.32000
3733332;-0.31500
3736110;-0.32500
3738888;-0.33500
3741666;-0.35000
3744443;-0.33500
3747221;-0.32000
3749999;-0.31500
3752777;-0.33000
3755555;-0.34500
3758332;-0.35000
3761110;-0.34000
3763888;-0.33000
3766666;-0.34500
3769443;-0.34000
3772221;-0.34500
3774999;-0.35000
3777777;-0.34500
3780554;-0.34000
3783332;-0.33500
3786110;-0.33500
3788888;-0.35500
3791666;-0.35000
3794443;-0.35000
3797221;-0.34000
3799999;-0.35000
3802777;-0.35500
3805554;-0.36000
3808332;-0.36500
3811110;-0.36000
3813888;-0.35500
3816666;-0.35000
3819443;-0.36500
3822221;-0.35500
3824999;-0.35500
3827777;-0.34500
3830554;-0.34500
3833332;-0.34500
3836110;-0.34000
3838888;-0.35500
3841666;-0.35000
3844443;-0.35000
3847221;-0.33000
3849999;-0.34000
3852777;-0.34500
3855554;-0.36000
3858332;-0.35500
3861110;-0.34500
3863888;-0.33500
3866666;-0.33500
3869443;-0.35000
3872221;-0.35000
3874999;-0.35000
3877777;-0.34000
3880554;-0.34500
3883332;-0.34000
3886110;-0.35000
3888888;-0.35500
3891666;-0.34500
3894443;-0.34000
3897221;-0.32500
3899999;-0.33000
3902777;-0.33000
3905554;-0.35500
3908332;-0.33500
3911110;-0.32000
3913888;-0.29000
3916666;-0.28500
3919443;-0.28000
3922221;-0.27500
3924999;-0.28500
3927777;-0.27500
3930554;-0.26000
3933332;-0.26000
3936110;-0.24500
3938888;-0.25500
3941666;-0.24500
3944443;-0.24000
3947221;-0.23500
3949999;-0.25000
3952777;-0.24500
3955554;-0.27000
3958332;-0.27000
3961110;-0.26000
3963888;-0.25000
3966666;-0.24500
3969443;-0.26000
3972221;-0.28000
3974999;-0.28500
3977777;-0.25000
3980554;-0.24500
3983332;-0.22500
3986110;-0.25000
3988888;-0.29000
3991666;-0.32000
3994443;-0.32500
3997221;-0.33000
3999999;-0.35500
4002777;-0.37500
4005554;-0.38000
4008332;-0.38500
4011110;-0.37500
4013888;-0.37000
4016666;-0.36000
4019443;-0.36500
4022221;-0.37500
4024999;-0.36500
4027777;-0.36000
4030554;-0.35500
4033332;-0.36000
4036110;-0.37500
4038888;-0.39000
4041666;-0.38500
4044443;-0.37500
4047221;-0.36500
4049999;-0.37500
4052777;-0.38500
4055554;-0.40500
4058332;-0.40000
4061110;-0.39500
4063888;-0.38500
4066666;-0.38000
4069443;-0.39000
4072221;-0.42000
4074999;-0.42000
4077777;-0.44000
4080554;-0.46500
4083332;-0.49500
4086110;-0.51500
4088888;-0.55000
4091666;-0.60000
4094443;-0.59500
4097221;-0.53500
4099999;-0.43000
4102777;-0.29500
4105554;-0.13500
4108332;0.07000
4111110;0.34500
4113888;0.61000
4116666;0.80500
4119443;0.86500
4122221;0.76000
4124999;0.46500
4127777;0.05000
4130554;-0.27500
4133332;-0.48500
4136110;-0.57000
4138888;-0.57500
4141666;-0.54000
4144443;-0.50000
4147221;-0.46000
4149999;-0.45000
4152777;-0.43500
4155554;-0.46000
4158332;-0.46000
4161110;-0.44500
4163888;-0.43500
4166666;-0.44000
4169443;-0.44000
4172221;-0.44500
4174999;-0.45500
4177777;-0.44000
4180554;-0.43500
4183332;-0.44500
4186110;-0.44000
4188888;-0.45000
4191665;-0.43500
4194443;-0.42500
4197221;-0.42000
4199999;-0.43000
4202777;-0.43500
4205554;-0.45000
4208332;-0.44500
4211110;-0.43500
4213888;-0.43000
4216665;-0.44000
4219443;-0.44500
4222221;-0.45500
4224999;-0.45000
4227777;-0.44500
4230554;-0.45000
4233332;-0.45500
4236110;-0.46500
4238888;-0.46500
4241665;-0.47000
4244443;-0.45500
4247221;-0.44000
4249999;-0.45500
4252777;-0.46500
4255554;-0.48500
4258332;-0.47500
4261110;-0.45000
4263888;-0.44500
4266665;-0.44000
4269443;-0.44000
4272221;-0.45000
4274999;-0.46000
4277777;-0.44500
4280554;-0.44500
4283332;-0.44500
4286110;-0.45000
4288888;-0.45500
4291665;-0.46000
4294443;-0.45500
4297221;-0.44500
4299999;-0.44500
4302777;-0.46000
4305554;-0.47000
4308332;-0.46500
4311110;-0.44500
4313888;-0.43500
4316665;-0.43500
4319443;-0.44500
4322221;-0.45500
4324999;-0.47000
4327777;-0.47000
4330554;-0.45500
4333332;-0.46000
4336110;-0.46500
4338888;-0.47500
4341665;-0.48000
4344443;-0.47000
4347221;-0.46000
4349999;-0.46000
4352777;-0.47000
4355554;-0.48000
4358332;-0.48000
4361110;-0.47500
4363888;-0.46500
4366665;-0.47000
4369443;-0.48500
4372221;-0.50000
4374999;-0.50500
4377777;-0.50500
4380554;-0.48500
4383332;-0.50500
4386110;-0.52000
4388888;-0.53500
4391665;-0.52000
4394443;-0.51000
4397221;-0.50500
4399999;-0.49500
4402777;-0.49500
4405554;-0.50500
4408332;-0.49000
4411110;-0.47500
4413888;-0.46500
4416665;-0.45000
4419443;-0.45000
4422221;-0.44000
4424999;-0.42500
4427777;-0.40500
4430554;-0.38500
4433332;-0.39500
4436110;-0.40500
4438888;-0.40500
4441665;-0.39500
4444443;-0.38000
4447221;-0.36000
4449999;-0.35000
4452777;-0.34500
4455554;-0.35500
4458332;-0.34000
4461110;-0.32500
4463888;-0.32500
4466665;-0.34000
4469443;-0.35500
4472221;-0.37000
4474999;-0.37000
4477777;-0.36000
4480554;-0.35000
4483332;-0.35000
4486110;-0.35500
4488888;-0.35000
4491665;-0.36500
4494443;-0.35500
4497221;-0.33000
4499999;-0.33000
4502777;-0.34000
4505554;-0.35000
4508332;-0.35000
4511110;-0.33500
4513888;-0.33000
4516665;-0.34500
4519443;-0.35000
4522221;-0.35500
4524999;-0.36500
4527777;-0.35000
4530554;-0.35500
4533332;-0.36000
4536110;-0.36500
4538888;-0.37000
4541665;-0.37000
4544443;-0.36000
4547221;-0.35500
4549999;-0.37000
4552777;-0.38000
4555554;-0.38500
4558332;-0.38500
4561110;-0.36500
4563888;-0.36500
4566665;-0.36000
4569443;-0.37000
4572221;-0.37000
4574999;-0.37500
4577776;-0.36000
4580554;-0.35500
4583332;-0.35500
4586110;-0.36500
4588888;-0.38000
4591665;-0.39000
4594443;-0.37500
4597221;-0.36000
4599999;-0.37500
4602776;-0.38500
4605554;-0.39500
4608332;-0.38500
4611110;-0.37500
4613888;-0.35500
4616665;-0.35500
4619443;-0.36500
4622221;-0.38000
4624999;-0.39000
4627776;-0.39000
4630554;-0.37500
4633332;-0.38000
4636110;-0.37500
4638888;-0.38000
4641665;-0.38000
4644443;-0.36000
4647221;-0.35500
4649999;-0.35500
4652776;-0.38500
4655554;-0.38000
4658332;-0.38500
4661110;-0.36000
4663888;-0.34500
4666665;-0.34000
4669443;-0.36500
4672221;-0.38500
4674999;-0.37500
4677776;-0.36500
4680554;-0.34500
4683332;-0.34500
4686110;-0.37500
4688888;-0.37000
4691665;-0.37500
4694443;-0.35500
4697221;-0.35000
4699999;-0.34000
4702776;-0.36500
4705554;-0.37500
4708332;-0.37500
4711110;-0.37000
4713888;-0.35500
4716665;-0.32000
4719443;-0.32000
4722221;-0.31500
4724999;-0.32000
4727776;-0.29500
4730554;-0.28500
4733332;-0.28500
4736110;-0.29000
4738888;-0.30000
4741665;-0.30000
4744443;-0.28000
4747221;-0.27000
4749999;-0.25500
4752776;-0.27500
4755554;-0.28500
4758332;-0.29000
4761110;-0.29000
4763888;-0.27500
4766665;-0.27500
4769443;-0.27500
4772221;-0.28500
4774999;-0.30000
4777776;-0.30500
4780554;-0.28500
4783332;-0.26000
4786110;-0.26000
4788888;-0.28500
4791665;-0.31000
4794443;-0.31500
4797221;-0.30000
4799999;-0.31500
4802776;-0.34000
4805554;-0.36500
4808332;-0.37000
4811110;-0.38500
4813888;-0.38500
4816665;-0.40000
4819443;-0.39500
4822221;-0.39000
4824999;-0.38000
4827776;-0.37500
4830554;-0.35500
4833332;-0.37000
4836110;-0.37000
4838888;-0.39000
4841665;-0.39000
4844443;-0.37000
4847221;-0.35500
4849999;-0.35500
4852776;-0.36000
4855554;-0.38000
4858332;-0.38500
4861110;-0.39000
4863888;-0.37000
4866665;-0.37500
4869443;-0.38500
4872221;-0.40500
4874999;-0.40500
4877776;-0.39000
4880554;-0.39000
4883332;-0.43000
4886110;-0.47500
4888888;-0.50000
4891665;-0.53000
4894443;-0.55500
4897221;-0.57000
4899999;-0.52500
4902776;-0.39000
4905554;-0.24000
4908332;-0.06500
4911110;0.14500
4913888;0.40500
4916665;0.65500
4919443;0.86000
4922221;0.94500
4924999;0.86000
4927776;0.55500
4930554;0.12500
4933332;-0.28000
4936110;-0.49000
4938888;-0.55500
4941665;-0.52500
4944443;-0.46000
4947221;-0.41000
4949999;-0.42500
4952776;-0.41500
4955554;-0.43000
4958332;-0.43000
4961110;-0.41500
4963887;-0.40500
4966665;-0.41500
4969443;-0.42000
4972221;-0.42500
4974999;-0.42500
4977776;-0.42000
4980554;-0.41000
4983332;-0.42000
4986110;-0.43000
4988887;-0.43000
4991665;-0.42500
4994443;-0.41500
4997221;-0.40000
4999999;-0.40500
5002776;-0.41500
5005554;-0.42000
5008332;-0.42500
5011110;-0.41500
5013887;-0.40000
5016665;-0.40500
5019443;-0.41000
5022221;-0.42500
5024999;-0.41500
5027776;-0.42500
5030554;-0.40500
5033332;-0.41500
5036110;-0.42000
5038887;-0.42500
5041665;-0.42500
5044443;-0.41500
5047221;-0.40500
5049999;-0.41000
5052776;-0.43000
5055554;-0.43500
5058332;-0.43500
5061110;-0.42500
5063887;-0.42000
5066665;-0.41000
5069443;-0.42000
5072221;-0.42500
5074999;-0.42500
5077776;-0.42000
5080554;-0.40000
5083332;-0.41000
5086110;-0.42000
5088887;-0.42500
5091665;-0.41500
5094443;-0.41500
5097221;-0.40000
5099999;-0.41000
5102776;-0.41500
5105554;-0.42000
5108332;-0.42500
5111110;-0.42000
5113887;-0.40500
5116665;-0.40000
5119443;-0.41000
5122221;-0.42000
5124999;-0.43500
5127776;-0.42500
5130554;-0.41500
5133332;-0.42500
5136110;-0.44000
5138887;-0.43500
5141665;-0.44000
5144443;-0.45000
5147221;-0.43000
5149999;-0.44500
5152776;-0.45000
5155554;-0.45500
5158332;-0.45500
5161110;-0.45000
5163887;-0.45500
5166665;-0.47000
5169443;-0.46000
5172221;-0.47500
5174999;-0.47500
5177776;-0.47000
5180554;-0.45000
5183332;-0.47000
5186110;-0.46000
5188887;-0.46500
5191665;-0.44500
5194443;-0.43000
5197221;-0.41500
5199999;-0.41000
5202776;-0.39000
5205554;-0.38500
5208332;-0.37000
5211110;-0.35000
5213887;-0.33000
5216665;-0.32000
5219443;-0.33000
5222221;-0.33000
5224999;-0.32000
5227776;-0.30000
5230554;-0.29000
5233332;-0.27000
5236110;-0.27000
5238887;-0.26000
5241665;-0.27000
5244443;-0.26500
5247221;-0.25000
5249999;-0.25500
5252776;-0.25500
5255554;-0.25500
5258332;-0.26000
5261110;-0.25500
5263887;-0.24000
5266665;-0.24000
5269443;-0.24500
5272221;-0.26000
5274999;-0.26500
5277776;-0.25000
5280554;-0.25500
5283332;-0.26000
5286110;-0.28500
5288887;-0.28500
5291665;-0.28000
5294443;-0.27000
5297221;-0.25000
5299999;-0.27000
5302776;-0.26500
5305554;-0.27500
5308332;-0.27000
5311110;-0.26000
5313887;-0.24000
5316665;-0.25500
5319443;-0.26500
5322221;-0.27500
5324999;-0.27500
5327776;-0.26000
5330554;-0.25500
5333332;-0.25500
5336110;-0.26000
5338887;-0.28000
5341665;-0.28000
5344443;-0.26500
5347221;-0.26500
5349999;-0.27500
5352776;-0.29000
5355554;-0.27500
5358332;-0.28500
5361110;-0.27000
5363887;-0.26500
5366665;-0.28000
5369443;-0.28500
5372221;-0.29500
5374998;-0.29000
5377776;-0.28500
5380554;-0.28000
5383332;-0.28000
5386110;-0.28000
5388887;-0.28500
5391665;-0.28000
5394443;-0.27000
5397221;-0.27500
5399998;-0.26500
5402776;-0.27000
5405554;-0.28000
5408332;-0.28500
5411110;-0.27000
5413887;-0.25500
5416665;-0.26500
5419443;-0.26500
5422221;-0.27500
5424998;-0.27500
5427776;-0.27000
5430554;-0.25000
5433332;-0.26000
5436110;-0.27500
5438887;-0.27500
5441665;-0.28000
5444443;-0.27000
5447221;-0.26500
5449998;-0.27000
5452776;-0.27000
5455554;-0.28500
5458332;-0.27500
5461110;-0.27000
5463887;-0.26500
5466665;-0.26000
5469443;-0.26500
5472221;-0.27500
5474998;-0.27500
5477776;-0.26500
5480554;-0.26000
5483332;-0.26500
5486110;-0.26500
5488887;-0.27000
5491665;-0.27500
5494443;-0.25000
5497221;-0.24500
5499998;-0.25000
5502776;-0.26000
5505554;-0.26000
5508332;-0.25500
5511110;-0.23000
5513887;-0.22000
5516665;-0.21000
5519443;-0.20000
5522221;-0.21000
5524998;-0.20000
5527776;-0.19500
5530554;-0.18500
5533332;-0.18000
5536110;-0.18000
5538887;-0.17500
5541665;-0.16500
5544443;-0.15000
5547221;-0.13500
5549998;-0.14500
5552776;-0.15000
5555554;-0.16000
5558332;-0.16500
5561110;-0.16000
5563887;-0.16000
5566665;-0.15500
5569443;-0.16000
5572221;-0.17000
5574998;-0.18000
5577776;-0.17000
5580554;-0.15500
5583332;-0.13500
5586110;-0.11500
5588887;-0.12000
5591665;-0.14500
5594443;-0.16500
5597221;-0.19000
5599998;-0.21000
5602776;-0.22500
5605554;-0.23500
5608332;-0.25500
5611110;-0.28000
5613887;-0.26500
5616665;-0.27500
5619443;-0.28500
5622221;-0.29000
5624998;-0.28500
5627776;-0.26500
5630554;-0.28000
5633332;-0.27000
5636110;-0.28000
5638887;-0.27500
5641665;-0.29000
5644443;-0.27500
5647221;-0.27000
5649998;-0.27500
5652776;-0.28500
5655554;-0.29000
5658332;-0.29500
5661110;-0.28000
5663887;-0.27500
5666665;-0.28000
5669443;-0.28500
5672221;-0.29500
5674998;-0.30000
5677776;-0.30000
5680554;-0.30000
5683332;-0.35000
5686110;-0.40000
5688887;-0.41000
5691665;-0.42000
5694443;-0.42000
5697221;-0.44000
5699998;-0.49000
5702776;-0.46500
5705554;-0.36500
5708332;-0.20500
5711110;-0.02000
5713887;0.17000
5716665;0.41000
5719443;0.71000
5722221;0.97000
5724998;1.12500
5727776;1.16500
5730554;1.01500
5733332;0.59000
5736110;0.09500
5738887;-0.29000
5741665;-0.43500
5744443;-0.40500
5747221;-0.34500
5749998;-0.30000
5752776;-0.30000
5755554;-0.31500
5758332;-0.32500
5761109;-0.31000
5763887;-0.30500
5766665;-0.32500
5769443;-0.32000
5772221;-0.33000
5774998;-0.33500
5777776;-0.31000
5780554;-0.32500
5783332;-0.32000
5786109;-0.32000
5788887;-0.33500
5791665;-0.33500
5794443;-0.32500
5797221;-0.32000
5799998;-0.32500
5802776;-0.32500
5805554;-0.34000
5808332;-0.34500
5811109;-0.32500
5813887;-0.32000
5816665;-0.32000
5819443;-0.32500
5822221;-0.33500
5824998;-0.34500
5827776;-0.33500
5830554;-0.33500
5833332;-0.34000
5836109;-0.32500
5838887;-0.34000
5841665;-0.34000
5844443;-0.31500
5847221;-0.31000
5849998;-0.31500
5852776;-0.32000
5855554;-0.32000
5858332;-0.32500
5861109;-0.32000
5863887;-0.30500
5866665;-0.31000
5869443;-0.32000
5872221;-0.32000
5874998;-0.32000
5877776;-0.31500
5880554;-0.30000
5883332;-0.31500
5886109;-0.32500
5888887;-0.32500
5891665;-0.34000
5894443;-0.32000
5897221;-0.30500
5899998;-0.31500
5902776;-0.32500
5905554;-0.33500
5908332;-0.33500
5911109;-0.33000
5913887;-0.32000
5916665;-0.33000
5919443;-0.33500
5922221;-0.33000
5924998;-0.34000
5927776;-0.34500
5930554;-0.32000
5933332;-0.32500
5936109;-0.32000
5938887;-0.33000
5941665;-0.33000
5944443;-0.32500
5947221;-0.32000
5949998;-0.32500
5952776;-0.34000
5955554;-0.34000
5958332;-0.35000
5961109;-0.33000
5963887;-0.33000
5966665;-0.33500
5969443;-0.35000
5972221;-0.35000
5974998;-0.36500
5977776;-0.36000
5980554;-0.34000
5983332;-0.35000
5986109;-0.35000
5988887;-0.34000
5991665;-0.35500
5994443;-0.35000
5997221;-0.31500
5999998;-0.32000
6002776;-0.31000
6005554;-0.32000
6008332;-0.31000
6011109;-0.29000
6013887;-0.26000
6016665;-0.25000
6019443;-0.25500
6022221;-0.24000
6024998;-0.23500
6027776;-0.22500
6030554;-0.21000
6033332;-0.21000
6036109;-0.20000
6038887;-0.20500
6041665;-0.21000
6044443;-0.19500
6047221;-0.19000
6049998;-0.19000
6052776;-0.19000
6055554;-0.20000
6058332;-0.19500
6061109;-0.19500
6063887;-0.18000
6066665;-0.18000
6069443;-0.18000
6072221;-0.19500
6074998;-0.19500
6077776;-0.18000
6080554;-0.17500
6083332;-0.17500
6086109;-0.18000
6088887;-0.19000
6091665;-0.19000
6094443;-0.18000
6097221;-0.17500
6099998;-0.17500
6102776;-0.18500
6105554;-0.19500
6108332;-0.19500
6111109;-0.18500
6113887;-0.18000
6116665;-0.18500
6119443;-0.18500
6122221;-0.20000
6124998;-0.21000
6127776;-0.20500
6130554;-0.19000
6133332;-0.19500
6136109;-0.21500
6138887;-0.23000
6141665;-0.23000
6144443;-0.22500
6147221;-0.21500
6149998;-0.22500
6152776;-0.23000
6155554;-0.23500
6158332;-0.23000
6161109;-0.22000
6163887;-0.21500
6166665;-0.20000
6169443;-0.22500
6172220;-0.22500
6174998;-0.23500
6177776;-0.23000
6180554;-0.21500
6183332;-0.22000
6186109;-0.22500
6188887;-0.24000
6191665;-0.23500
6194443;-0.24000
6197220;-0.22500
6199998;-0.24000
6202776;-0.25500
6205554;-0.26000
6208332;-0.25500
6211109;-0.24000
6213887;-0.24000
6216665;-0.23500
6219443;-0.24000
6222220;-0.24500
6224998;-0.24500
6227776;-0.24000
6230554;-0.23000
6233332;-0.23000
6236109;-0.23500
6238887;-0.24500
6241665;-0.25500
6244443;-0.23500
6247220;-0.23500
6249998;-0.23000
6252776;-0.22500
6255554;-0.24500
6258332;-0.24500
6261109;-0.22500
6263887;-0.23000
6266665;-0.22500
6269443;-0.24000
6272220;-0.24500
6274998;-0.23500
6277776;-0.23000
6280554;-0.22500
6283332;-0.22000
6286109;-0.22500
6288887;-0.24500
6291665;-0.24500
6294443;-0.22500
6297220;-0.21000
6299998;-0.22500
6302776;-0.21500
6305554;-0.22000
6308332;-0.21000
6311109;-0.20500
6313887;-0.19000
6316665;-0.18000
6319443;-0.19000
6322220;-0.17500
6324998;-0.18000
6327776;-0.16000
6330554;-0.15000
6333332;-0.15500
6336109;-0.16000
6338887;-0.15000
6341665;-0.15500
6344443;-0.13500
6347220;-0.12000
6349998;-0.12000
6352776;-0.12500
6355554;-0.12000
6358332;-0.13500
6361109;-0.12000
6363887;-0.12000
6366665;-0.13500
6369443;-0.14000
6372220;-0.15000
6374998;-0.14000
6377776;-0.14500
6380554;-0.14000
6383332;-0.14500
6386109;-0.15000
6388887;-0.13500
6391665;-0.12500
6394443;-0.09000
6397220;-0.08500
6399998;-0.14000
6402776;-0.17000
6405554;-0.18000
6408332;-0.20000
6411109;-0.21000
6413887;-0.21000
6416665;-0.23000
6419443;-0.25000
6422220;-0.25000
6424998;-0.25000
6427776;-0.24500
6430554;-0.23000
6433332;-0.24000
6436109;-0.25000
6438887;-0.26000
6441665;-0.26500
6444443;-0.26000
6447220;-0.25500
6449998;-0.27000
6452776;-0.27000
6455554;-0.27500
6458332;-0.29000
6461109;-0.26000
6463887;-0.24500
6466665;-0.25500
6469443;-0.26000
6472220;-0.26500
6474998;-0.27000
6477776;-0.26000
6480554;-0.25500
6483332;-0.27000
6486109;-0.31000
6488887;-0.35500
6491665;-0.40000
6494443;-0.40000
6497220;-0.43000
6499998;-0.47000
6502776;-0.51000
6505554;-0.46500
6508332;-0.34500
6511109;-0.19000
6513887;-0.03000
6516665;0.12500
6519443;0.35000
6522220;0.61000
6524998;0.87500
6527776;1.04000
6530554;1.12500
6533332;1.08000
6536109;0.83500
6538887;0.40500
6541665;-0.06000
6544443;-0.35000
6547220;-0.41000
6549998;-0.36500
6552776;-0.31500
6555554;-0.29000
6558331;-0.29500
6561109;-0.30500
6563887;-0.29500
6566665;-0.31000
6569443;-0.31000
6572220;-0.31000
6574998;-0.32500
6577776;-0.33000
6580554;-0.31500
6583331;-0.32500
6586109;-0.33000
6588887;-0.32500
6591665;-0.33500
6594443;-0.33000
6597220;-0.31500
6599998;-0.31000
6602776;-0.32500
6605554;-0.32500
6608331;-0.32500
6611109;-0.32000
6613887;-0.31000
6616665;-0.30500
6619443;-0.31000
6622220;-0.32000
6624998;-0.32000
6627776;-0.32000
6630554;-0.30500
6633331;-0.30500
6636109;-0.31000
6638887;-0.32000
6641665;-0.32500
6644443;-0.31500
6647220;-0.30500
6649998;-0.31000
6652776;-0.31500
6655554;-0.32500
6658331;-0.32500
6661109;-0.32000
6663887;-0.32000
6666665;-0.32000
6669443;-0.33000
6672220;-0.32500
6674998;-0.33500
6677776;-0.34000
6680554;-0.31500
6683331;-0.32500
6686109;-0.32500
6688887;-0.33000
6691665;-0.33500
6694443;-0.32500
6697220;-0.32500
6699998;-0.32500
6702776;-0.32000
6705554;-0.34500
6708331;-0.34000
6711109;-0.33000
6713887;-0.33000
6716665;-0.32500
6719443;-0.33500
6722220;-0.34500
6724998;-0.35000
6727776;-0.33500
6730554;-0.33000
6733331;-0.34500
6736109;-0.34500
6738887;-0.35500
6741665;-0.36500
6744443;-0.36000
6747220;-0.34500
6749998;-0.34500
6752776;-0.35500
6755554;-0.35500
6758331;-0.35500
6761109;-0.34000
6763887;-0.35000
6766665;-0.34500
6769443;-0.36000
6772220;-0.36500
6774998;-0.37000
6777776;-0.36500
6780554;-0.35000
6783331;-0.35000
6786109;-0.36000
6788887;-0.36500
6791665;-0.36500
6794443;-0.35000
6797220;-0.35000
6799998;-0.35000
6802776;-0.34500
6805554;-0.35000
6808331;-0.34000
6811109;-0.33000
6813887;-0.31000
6816665;-0.29000
6819443;-0.30000
6822220;-0.29500
6824998;-0.28500
6827776;-0.27000
6830554;-0.26500
6833331;-0.25500
6836109;-0.26000
6838887;-0.25000
6841665;-0.26000
6844443;-0.25000
6847220;-0.23000
6849998;-0.23000
6852776;-0.23000
6855554;-0.23000
6858331;-0.24500
6861109;-0.22500
6863887;-0.22000
6866665;-0.21500
6869443;-0.23000
6872220;-0.24000
6874998;-0.24000
6877776;-0.23000
6880554;-0.22500
6883331;-0.23500
6886109;-0.24000
6888887;-0.24500
6891665;-0.24500
6894443;-0.23500
6897220;-0.23000
6899998;-0.23000
6902776;-0.24000
6905554;-0.24000
6908331;-0.24500
6911109;-0.24000
6913887;-0.23000
6916665;-0.23000
6919443;-0.24000
6922220;-0.24500
6924998;-0.25500
6927776;-0.24500
6930554;-0.23500
6933331;-0.23500
6936109;-0.25500
6938887;-0.26000
6941665;-0.26000
6944442;-0.26500
6947220;-0.26000
6949998;-0.26500
6952776;-0.26500
6955554;-0.27500
6958331;-0.29000
6961109;-0.27500
6963887;-0.27000
6966665;-0.27500
6969442;-0.27500
6972220;-0.28500
6974998;-0.28000
6977776;-0.26000
6980554;-0.26000
6983331;-0.26500
6986109;-0.26500
6988887;-0.27500
6991665;-0.28000
6994442;-0.26500
6997220;-0.26000
6999998;-0.26000
7002776;-0.27000
7005554;-0.27500
7008331;-0.27500
7011109;-0.27500
7013887;-0.27500
7016665;-0.26500
7019442;-0.27500
7022220;-0.29500
7024998;-0.29500
7027776;-0.29500
7030554;-0.29500
7033331;-0.29000
7036109;-0.30000
7038887;-0.30000
7041665;-0.31000
7044442;-0.29500
7047220;-0.28500
7049998;-0.28500
7052776;-0.28500
7055554;-0.28500
7058331;-0.29000
7061109;-0.28000
7063887;-0.27500
7066665;-0.27500
7069442;-0.28500
7072220;-0.28000
7074998;-0.28000
7077776;-0.28500
7080554;-0.27000
7083331;-0.27500
7086109;-0.27500
7088887;-0.28500
7091665;-0.28500
7094442;-0.28000
7097220;-0.27500
7099998;-0.27500
7102776;-0.27500
7105554;-0.29000
7108331;-0.29500
7111109;-0.29500
7113887;-0.27500
7116665;-0.28000
7119442;-0.29000
7122220;-0.28000
7124998;-0.26000
7127776;-0.24000
7130554;-0.22000
7133331;-0.22000
7136109;-0.21000
7138887;-0.23000
7141665;-0.22500
7144442;-0.21000
7147220;-0.20000
7149998;-0.20000
7152776;-0.19000
7155554;-0.18500
7158331;-0.19000
7161109;-0.18000
7163887;-0.17500
7166665;-0.17500
7169442;-0.20000
7172220;-0.20500
7174998;-0.22000
7177776;-0.20500
7180554;-0.19000
7183331;-0.19500
7186109;-0.19500
7188887;-0.20500
7191665;-0.20000
7194442;-0.18000
7197220;-0.14500
7199998;-0.14500
7202776;-0.18000
7205554;-0.22500
7208331;-0.25000
7211109;-0.24500
7213887;-0.25000
7216665;-0.27000
7219442;-0.28500
7222220;-0.29000
7224998;-0.29500
7227776;-0.30000
7230554;-0.30000
7233331;-0.30000
7236109;-0.30500
7238887;-0.31500
7241665;-0.32000
7244442;-0.32000
7247220;-0.30500
7249998;-0.32000
7252776;-0.32500
7255554;-0.33000
7258331;-0.32500
7261109;-0.31000
7263887;-0.30500
7266665;-0.29000
7269442;-0.31000
7272220;-0.32500
7274998;-0.31500
7277776;-0.31500
7280554;-0.29500
7283331;-0.30000
7286109;-0.31500
7288887;-0.33500
7291665;-0.34500
7294442;-0.35000
7297220;-0.39000
7299998;-0.42000
7302776;-0.45500
7305554;-0.49500
7308331;-0.54000
7311109;-0.54000
7313887;-0.48000
7316665;-0.37000
7319442;-0.24500
7322220;-0.12500
7324998;0.00500
7327776;0.18000
7330554;0.40500
7333331;0.61500
7336109;0.76000
7338887;0.87000
7341665;0.97000
7344442;1.05000
7347220;1.07000
7349998;0.94500
7352776;0.65000
7355553;0.26500
7358331;-0.11000
7361109;-0.37500
7363887;-0.46500
7366665;-0.44000
7369442;-0.40000
7372220;-0.37500
7374998;-0.37500
7377776;-0.36500
7380553;-0.37500
7383331;-0.36000
7386109;-0.37500
7388887;-0.36500
7391665;-0.37500
7394442;-0.37500
7397220;-0.36500
7399998;-0.36000
7402776;-0.37500
7405553;-0.37500
7408331;-0.39000
7411109;-0.37500
7413887;-0.35500
7416665;-0.36000
7419442;-0.37500
7422220;-0.37500
7424998;-0.38500
7427776;-0.38000
7430553;-0.36500
7433331;-0.38000
7436109;-0.37500
7438887;-0.39000
7441665;-0.38500
7444442;-0.39000
7447220;-0.38000
7449998;-0.38500
7452776;-0.39000
7455553;-0.39500
7458331;-0.39500
7461109;-0.40000
7463887;-0.40500
7466665;-0.39500
7469442;-0.40500
7472220;-0.40000
7474998;-0.40500
7477776;-0.40500
7480553;-0.38500
7483331;-0.39000
7486109;-0.39000
7488887;-0.39500
7491665;-0.40500
7494442;-0.39000
7497220;-0.39000
7499998;-0.38500
7502776;-0.38500
7505553;-0.39000
7508331;-0.38000
7511109;-0.38500
7513887;-0.39000
7516665;-0.39000
7519442;-0.38500
7522220;-0.40000
7524998;-0.42000
7527776;-0.41500
7530553;-0.41000
7533331;-0.40500
7536109;-0.41000
7538887;-0.41000
7541665;-0.39500
7544442;-0.39000
7547220;-0.38500
7549998;-0.39500
7552776;-0.39500
7555553;-0.40000
7558331;-0.41000
7561109;-0.39500
7563887;-0.39000
7566665;-0.37000
7569442;-0.37000
7572220;-0.38000
7574998;-0.39000
7577776;-0.38000
7580553;-0.38000
7583331;-0.39000
7586109;-0.41500
7588887;-0.42500
7591665;-0.42500
7594442;-0.42000
7597220;-0.40500
7599998;-0.41000
7602776;-0.42500
7605553;-0.44000
7608331;-0.44500
7611109;-0.44500
7613887;-0.42000
7616665;-0.43500
7619442;-0.44000
7622220;-0.43000
7624998;-0.43500
7627776;-0.42000
7630553;-0.41500
7633331;-0.41500
7636109;-0.40500
7638887;-0.40500
7641665;-0.39500
7644442;-0.37000
7647220;-0.36000
7649998;-0.35000
7652776;-0.35000
7655553;-0.35000
7658331;-0.35500
7661109;-0.34000
7663887;-0.31000
7666665;-0.31000
7669442;-0.30500
7672220;-0.32000
7674998;-0.32000
7677776;-0.31000
7680553;-0.30000
7683331;-0.30000
7686109;-0.30000
7688887;-0.31500
7691665;-0.32000
7694442;-0.31000
7697220;-0.30000
7699998;-0.29500
7702776;-0.31000
7705553;-0.31500
7708331;-0.33000
7711109;-0.31500
7713887;-0.31500
7716665;-0.30000
7719442;-0.32000
7722220;-0.31500
7724998;-0.32000
7727776;-0.31500
7730553;-0.31500
7733331;-0.31500
7736109;-0.33500
7738887;-0.34000
7741664;-0.34000
7744442;-0.30500
7747220;-0.30500
7749998;-0.31500
7752776;-0.33000
7755553;-0.34000
7758331;-0.35000
7761109;-0.33500
7763887;-0.32500
7766664;-0.33000
7769442;-0.34500
7772220;-0.36500
7774998;-0.36500
7777776;-0.34500
7780553;-0.34000
7783331;-0.33000
7786109;-0.35000
7788887;-0.36000
7791664;-0.35000
7794442;-0.35000
7797220;-0.33500
7799998;-0.31500
7802776;-0.33000
7805553;-0.34000
7808331;-0.36000
7811109;-0.35500
7813887;-0.36000
7816664;-0.35500
7819442;-0.35000
7822220;-0.36000
7824998;-0.36500
7827776;-0.36000
7830553;-0.36000
7833331;-0.37500
7836109;-0.37000
7838887;-0.39500
7841664;-0.38500
7844442;-0.37500
7847220;-0.35500
7849998;-0.36000
7852776;-0.35500
7855553;-0.35500
7858331;-0.36000
7861109;-0.35500
7863887;-0.35000
7866664;-0.35000
7869442;-0.35000
7872220;-0.35500
7874998;-0.36000
7877776;-0.35500
7880553;-0.36500
7883331;-0.35500
7886109;-0.37000
7888887;-0.37000
7891664;-0.36500
7894442;-0.36500
7897220;-0.36000
7899998;-0.36000
7902776;-0.36000
7905553;-0.36500
7908331;-0.36500
7911109;-0.36000
7913887;-0.35500
7916664;-0.37500
7919442;-0.36000
7922220;-0.36500
7924998;-0.35000
7927776;-0.34000
7930553;-0.31500
7933331;-0.31000
7936109;-0.30000
7938887;-0.30000
7941664;-0.30000
7944442;-0.28500
7947220;-0.28500
7949998;-0.29000
7952776;-0.29000
7955553;-0.28500
7958331;-0.27500
7961109;-0.26000
7963887;-0.26000
7966664;-0.26000
7969442;-0.26500
7972220;-0.26500
7974998;-0.27500
7977776;-0.25500
7980553;-0.26000
7983331;-0.27000
7986109;-0.28500
7988887;-0.27000
7991664;-0.29500
7994442;-0.29000
7997220;-0.28500
7999998;-0.27500
8002776;-0.26500
8005553;-0.27500
8008331;-0.29000
8011109;-0.30500
8013887;-0.32000
8016664;-0.33000
8019442;-0.35000
8022220;-0.36500
8024998;-0.35000
8027776;-0.35500
8030553;-0.35000
8033331;-0.35500
8036109;-0.37000
8038887;-0.39000
8041664;-0.39500
8044442;-0.37500
8047220;-0.37000
8049998;-0.35500
8052776;-0.36000
8055553;-0.38000
8058331;-0.40000
8061109;-0.39500
8063887;-0.38500
8066664;-0.39000
8069442;-0.40000
8072220;-0.41000
8074998;-0.40500
8077776;-0.40000
8080553;-0.39000
8083331;-0.39000
8086109;-0.39000
8088887;-0.39000
8091664;-0.41500
8094442;-0.39500
8097220;-0.37500
8099998;-0.37500
8102776;-0.38500
8105553;-0.40500
8108331;-0.43500
8111109;-0.47500
8113887;-0.49500
8116664;-0.50500
8119442;-0.53500
8122220;-0.59500
8124998;-0.59500
8127776;-0.53500
8130553;-0.41500
8133331;-0.27500
8136109;-0.13500
8138887;0.01500
8141664;0.24500
8144442;0.52000
8147220;0.75000
8149998;0.87500
8152775;0.88500
8155553;0.72500
8158331;0.37500
8161109;-0.01000
8163887;-0.31000
8166664;-0.46500
8169442;-0.52000
8172220;-0.51500
8174998;-0.47500
8177775;-0.45500
8180553;-0.43000
8183331;-0.42500
8186109;-0.42000
8188887;-0.44000
8191664;-0.43000
8194442;-0.42000
8197220;-0.42500
8199998;-0.43000
8202775;-0.44000
8205553;-0.47000
8208331;-0.47000
8211109;-0.43500
8213887;-0.42000
8216664;-0.42500
8219442;-0.43500
8222220;-0.44000
8224998;-0.45500
8227775;-0.45000
8230553;-0.44000
8233331;-0.45000
8236109;-0.45500
8238887;-0.46500
8241664;-0.45500
8244442;-0.45000
8247220;-0.42000
8249998;-0.41000
8252775;-0.42000
8255553;-0.43000
8258331;-0.44000
8261109;-0.43500
8263887;-0.43500
8266664;-0.43500
8269442;-0.44000
8272220;-0.44500
8274998;-0.44500
8277775;-0.45500
8280553;-0.43500
8283331;-0.43500
8286109;-0.44500
8288887;-0.45000
8291664;-0.45000
8294442;-0.44500
8297220;-0.44000
8299998;-0.43500
8302775;-0.45000
8305553;-0.46000
8308331;-0.46500
8311109;-0.45000
8313887;-0.44500
8316664;-0.46000
8319442;-0.46500
8322220;-0.46000
8324998;-0.44500
8327775;-0.43500
8330553;-0.42500
8333331;-0.43000
8336109;-0.44000
8338887;-0.44500
8341664;-0.44500
8344442;-0.43500
8347220;-0.43500
8349998;-0.44500
8352775;-0.45500
8355553;-0.45500
8358331;-0.47500
8361109;-0.46500
8363887;-0.45500
8366664;-0.44500
8369442;-0.44000
8372220;-0.44000
8374998;-0.46000
8377775;-0.47000
8380553;-0.45000
8383331;-0.45500
8386109;-0.46500
8388887;-0.46500
8391664;-0.47500
8394442;-0.46500
8397220;-0.47500
8399998;-0.48000
8402775;-0.50000
8405553;-0.51000
8408331;-0.50000
8411109;-0.50500
8413887;-0.49500
8416664;-0.49500
8419442;-0.50000
8422220;-0.50500
8424998;-0.51000
8427775;-0.50000
8430553;-0.49500
8433331;-0.49500
8436109;-0.49000
8438887;-0.50000
8441664;-0.50000
8444442;-0.50000
8447220;-0.48500
8449998;-0.48000
8452775;-0.47500
8455553;-0.47000
8458331;-0.46500
8461109;-0.44000
8463887;-0.43500
8466664;-0.40500
8469442;-0.40000
8472220;-0.38500
8474998;-0.36500
8477775;-0.36000
8480553;-0.33500
8483331;-0.33000
8486109;-0.33500
8488887;-0.34500
8491664;-0.33500
8494442;-0.32500
8497220;-0.31000
8499998;-0.31000
8502775;-0.31500
8505553;-0.32000
8508331;-0.33000
8511109;-0.31000
8513887;-0.30500
8516664;-0.30500
8519442;-0.31000
8522220;-0.31500
8524998;-0.31000
8527775;-0.30500
8530553;-0.29000
8533331;-0.30000
8536109;-0.30000
8538886;-0.30000
8541664;-0.32000
8544442;-0.30500
8547220;-0.30000
8549998;-0.30500
8552775;-0.31000
8555553;-0.33000
8558331;-0.32000
8561109;-0.31500
8563886;-0.31000
8566664;-0.31500
8569442;-0.32000
8572220;-0.33500
8574998;-0.33500
8577775;-0.32500
8580553;-0.32000
8583331;-0.32000
8586109;-0.32500
8588886;-0.32000
8591664;-0.32500
8594442;-0.33000
8597220;-0.33000
8599998;-0.31000
8602775;-0.32500
8605553;-0.33000
8608331;-0.34500
8611109;-0.33000
8613886;-0.33500
8616664;-0.33500
8619442;-0.33000
8622220;-0.34500
8624998;-0.34500
8627775;-0.35000
8630553;-0.34000
8633331;-0.33500
8636109;-0.33500
8638886;-0.34500
8641664;-0.35000
8644442;-0.34500
8647220;-0.33000
8649998;-0.33000
8652775;-0.34000
8655553;-0.33500
8658331;-0.34500
8661109;-0.33000
8663886;-0.32000
8666664;-0.31500
8669442;-0.31000
8672220;-0.33000
8674998;-0.34500
8677775;-0.33000
8680553;-0.31500
8683331;-0.31000
8686109;-0.31500
8688886;-0.31500
8691664;-0.32000
8694442;-0.32000
8697220;-0.30500
8699998;-0.31000
8702775;-0.32000
8705553;-0.32000
8708331;-0.33000
8711109;-0.33000
8713886;-0.31500
8716664;-0.31500
8719442;-0.32500
8722220;-0.33000
8724998;-0.35000
8727775;-0.33000
8730553;-0.32000
8733331;-0.32000
8736109;-0.33000
8738886;-0.34000
8741664;-0.34000
8744442;-0.32500
8747220;-0.30500
8749998;-0.31000
8752775;-0.32500
8755553;-0.31000
8758331;-0.30500
8761109;-0.30000
8763886;-0.29000
8766664;-0.27500
8769442;-0.28500
8772220;-0.27000
8774998;-0.26000
8777775;-0.26000
8780553;-0.24500
8783331;-0.24000
8786109;-0.23500
8788886;-0.24000
8791664;-0.24500
8794442;-0.23500
8797220;-0.21000
8799998;-0.21000
8802775;-0.20500
8805553;-0.23000
8808331;-0.23000
8811109;-0.23000
8813886;-0.23500
8816664;-0.22000
8819442;-0.22500
8822220;-0.24000
8824998;-0.23500
8827775;-0.22000
8830553;-0.22000
8833331;-0.24000
8836109;-0.24500
8838886;-0.23000
8841664;-0.21500
8844442;-0.18500
8847220;-0.19000
8849998;-0.22000
8852775;-0.24500
8855553;-0.26500
8858331;-0.27500
8861109;-0.26500
8863886;-0.26000
8866664;-0.26500
8869442;-0.28500
8872220;-0.31000
8874998;-0.32500
8877775;-0.31500
8880553;-0.32000
8883331;-0.33500
8886109;-0.35000
8888886;-0.35000
8891664;-0.35500
8894442;-0.33000
8897220;-0.33500
8899998;-0.34000
8902775;-0.34000
8905553;-0.35000
8908331;-0.36000
8911109;-0.34500
8913886;-0.33000
8916664;-0.33500
8919442;-0.34500
8922220;-0.35000
8924998;-0.35500
8927775;-0.34500
8930553;-0.34000
8933331;-0.34000
8936109;-0.35000
8938886;-0.34500
8941664;-0.36000
8944442;-0.35000
8947220;-0.35500
8949997;-0.38500
8952775;-0.43000
8955553;-0.46500
8958331;-0.50000
8961109;-0.51000
8963886;-0.54500
8966664;-0.53500
8969442;-0.45000
8972220;-0.33000
8974997;-0.16500
8977775;0.02000
8980553;0.24000
8983331;0.51000
8986109;0.77500
8988886;0.95500
8991664;1.03500
8994442;1.03000
8997220;0.82000
8999997;0.41000
9002775;-0.02000
9005553;-0.33500
9008331;-0.49500
9011109;-0.51000
9013886;-0.49500
9016664;-0.47000
9019442;-0.45500
9022220;-0.43000
9024997;-0.40000
9027775;-0.37500
9030553;-0.37500
9033331;-0.37500
9036109;-0.38500
9038886;-0.38500
9041664;-0.39500
9044442;-0.40000
9047220;-0.37000
9049997;-0.38000
9052775;-0.38500
9055553;-0.39500
9058331;-0.39000
9061109;-0.38500
9063886;-0.37500
9066664;-0.38000
9069442;-0.38000
9072220;-0.39000
9074997;-0.38500
9077775;-0.38000
9080553;-0.37500
9083331;-0.37500
9086109;-0.38000
9088886;-0.37500
9091664;-0.38500
9094442;-0.38000
9097220;-0.37500
9099997;-0.38000
9102775;-0.38500
9105553;-0.39000
9108331;-0.39500
9111109;-0.39000
9113886;-0.38000
9116664;-0.38500
9119442;-0.39000
9122220;-0.39000
9124997;-0.40500
9127775;-0.38000
9130553;-0.37500
9133331;-0.37500
9136109;-0.37500
9138886;-0.39000
9141664;-0.39500
9144442;-0.37500
9147220;-0.37000
9149997;-0.37000
9152775;-0.37000
9155553;-0.38500
9158331;-0.38500
9161109;-0.37500
9163886;-0.37500
9166664;-0.36500
9169442;-0.38000
9172220;-0.38500
9174997;-0.39000
9177775;-0.39000
9180553;-0.39500
9183331;-0.38500
9186109;-0.39000
9188886;-0.40500
9191664;-0.40500
9194442;-0.39500
9197220;-0.37000
9199997;-0.38500
9202775;-0.38500
9205553;-0.39000
9208331;-0.40500
9211109;-0.39000
9213886;-0.38500
9216664;-0.37000
9219442;-0.37000
9222220;-0.39000
9224997;-0.39500
9227775;-0.40000
9230553;-0.39000
9233331;-0.39000
9236109;-0.40000
9238886;-0.42000
9241664;-0.44000
9244442;-0.42500
9247220;-0.40500
9249997;-0.41500
9252775;-0.42000
9255553;-0.42000
9258331;-0.43000
9261109;-0.43000
9263886;-0.41500
9266664;-0.41500
9269442;-0.42000
9272220;-0.42500
9274997;-0.43500
9277775;-0.42500
9280553;-0.40000
9283331;-0.40500
9286109;-0.40000
9288886;-0.38500
9291664;-0.39000
9294442;-0.38500
9297220;-0.36500
9299997;-0.34500
9302775;-0.35000
9305553;-0.35000
9308331;-0.34000
9311109;-0.32500
9313886;-0.29000
9316664;-0.28500
9319442;-0.29000
9322220;-0.26500
9324997;-0.26500
9327775;-0.26500
9330553;-0.24500
9333331;-0.24000
9336108;-0.24000
9338886;-0.26000
9341664;-0.26000
9344442;-0.25500
9347220;-0.23000
9349997;-0.23500
9352775;-0.24000
9355553;-0.25000
9358331;-0.26000
9361108;-0.25500
9363886;-0.24000
9366664;-0.24000
9369442;-0.24500
9372220;-0.25000
9374997;-0.25500
9377775;-0.24500
9380553;-0.24000
9383331;-0.23000
9386108;-0.25000
9388886;-0.25500
9391664;-0.25000
9394442;-0.24500
9397220;-0.25000
9399997;-0.23500
9402775;-0.24500
9405553;-0.26000
9408331;-0.25000
9411108;-0.25000
9413886;-0.25000
9416664;-0.25000
9419442;-0.25500
9422220;-0.25500
9424997;-0.27000
9427775;-0.26500
9430553;-0.26000
9433331;-0.24500
9436108;-0.26500
9438886;-0.26500
9441664;-0.28000
9444442;-0.27500
9447220;-0.26500
9449997;-0.26500
9452775;-0.27000
9455553;-0.27000
9458331;-0.28000
9461108;-0.27500
9463886;-0.27500
9466664;-0.26000
9469442;-0.27000
9472220;-0.28500
9474997;-0.29000
9477775;-0.29000
9480553;-0.28000
9483331;-0.27500
9486108;-0.28000
9488886;-0.28500
9491664;-0.29500
9494442;-0.28500
9497220;-0.28500
9499997;-0.27500
9502775;-0.29000
9505553;-0.29000
9508331;-0.30500
9511108;-0.29500
9513886;-0.29000
9516664;-0.29000
9519442;-0.29000
9522220;-0.30000
9524997;-0.30000
9527775;-0.29000
9530553;-0.27000
9533331;-0.27500
9536108;-0.29000
9538886;-0.28500
9541664;-0.30000
9544442;-0.29000
9547220;-0.27500
9549997;-0.27500
9552775;-0.27500
9555553;-0.28500
9558331;-0.29000
9561108;-0.27500
9563886;-0.27500
9566664;-0.27000
9569442;-0.28500
9572220;-0.28500
9574997;-0.28500
9577775;-0.28500
9580553;-0.28500
9583331;-0.27000
9586108;-0.28000
9588886;-0.29500
9591664;-0.29500
9594442;-0.29500
9597220;-0.27500
9599997;-0.28000
9602775;-0.27500
9605553;-0.26500
9608331;-0.26000
9611108;-0.24500
9613886;-0.22000
9616664;-0.20500
9619442;-0.21000
9622220;-0.21500
9624997;-0.23000
9627775;-0.21000
9630553;-0.19500
9633331;-0.19000
9636108;-0.18000
9638886;-0.19500
9641664;-0.19500
9644442;-0.17500
9647220;-0.16000
9649997;-0.15500
9652775;-0.17000
9655553;-0.17000
9658331;-0.19000
9661108;-0.17500
9663886;-0.17500
9666664;-0.18500
9669442;-0.19000
9672220;-0.20000
9674997;-0.21000
9677775;-0.19500
9680553;-0.20500
9683331;-0.20500
9686108;-0.21500
9688886;-0.19000
9691664;-0.19000
9694442;-0.17000
9697220;-0.19000
9699997;-0.21500
9702775;-0.24000
9705553;-0.25000
9708331;-0.27000
9711108;-0.27500
9713886;-0.26500
9716664;-0.27000
9719442;-0.29000
9722220;-0.30500
9724997;-0.31500
9727775;-0.30500
9730553;-0.29000
9733331;-0.29000
9736108;-0.30500
9738886;-0.30000
9741664;-0.31500
9744442;-0.31500
9747219;-0.30500
9749997;-0.31000
9752775;-0.31000
9755553;-0.30500
9758331;-0.32500
9761108;-0.31500
9763886;-0.31500
9766664;-0.32000
9769442;-0.33000
9772219;-0.33000
9774997;-0.34000
9777775;-0.32500
9780553;-0.32000
9783331;-0.32500
9786108;-0.35000
9788886;-0.39500
9791664;-0.44500
9794442;-0.45000
9797219;-0.46500
9799997;-0.50000
9802775;-0.53000
9805553;-0.49000
9808331;-0.38000
9811108;-0.22000
9813886;-0.06500
9816664;0.13000
9819442;0.35000
9822219;0.60500
9824997;0.85000
9827775;1.02000
9830553;1.09000
9833331;1.01500
9836108;0.75500
9838886;0.32000
9841664;-0.12000
9844442;-0.39000
9847219;-0.46500
9849997;-0.45000
9852775;-0.39000
9855553;-0.36500
9858331;-0.35500
9861108;-0.34000
9863886;-0.34000
9866664;-0.34500
9869442;-0.35000
9872219;-0.36000
9874997;-0.36500
9877775;-0.36500
9880553;-0.35500
9883331;-0.35000
9886108;-0.35500
9888886;-0.37000
9891664;-0.38000
9894442;-0.37000
9897219;-0.37000
9899997;-0.36500
9902775;-0.37000
9905553;-0.37500
9908331;-0.38500
9911108;-0.38500
9913886;-0.38000
9916664;-0.37500
9919442;-0.38500
9922219;-0.38500
9924997;-0.39000
9927775;-0.37500
9930553;-0.37500
9933331;-0.36500
9936108;-0.38000
9938886;-0.37500
9941664;-0.38500
9944442;-0.38000
9947219;-0.36500
9949997;-0.36500
9952775;-0.36500
9955553;-0.37500
9958331;-0.38000
9961108;-0.37000
9963886;-0.36500
9966664;-0.36000
9969442;-0.37000
9972219;-0.38500
9974997;-0.38500
9977775;-0.38500
9980553;-0.37000
9983331;-0.37500
9986108;-0.40000
9988886;-0.39500
9991664;-0.39500
9994442;-0.38500
9997219;-0.38000
9999997;-0.37500
10002775;-0.37000
10005553;-0.37000
10008331;-0.38500
10011108;-0.38000
10013886;-0.37000
10016664;-0.36500
10019442;-0.38000
10022219;-0.37500
10024997;-0.38500
10027775;-0.37500
10030553;-0.37000
10033331;-0.36000
10036108;-0.37000
10038886;-0.37000
10041664;-0.37500
10044442;-0.38500
10047219;-0.38000
10049997;-0.37500
10052775;-0.38000
10055553;-0.38000
10058331;-0.39500
10061108;-0.39000
10063886;-0.39000
10066664;-0.37500
10069442;-0.38500
10072219;-0.37500
10074997;-0.40000
10077775;-0.39000
10080553;-0.38000
10083331;-0.39000
10086108;-0.39500
10088886;-0.39500
10091664;-0.40000
10094442;-0.39000
10097219;-0.38000
10099997;-0.37500
10102775;-0.39000
10105553;-0.38500
10108331;-0.39500
10111108;-0.38500
10113886;-0.38000
10116664;-0.37000
10119442;-0.37500
10122219;-0.38500
10124997;-0.39000
10127775;-0.38500
10130553;-0.37000
10133330;-0.37000
10136108;-0.37500
10138886;-0.38000
10141664;-0.36500
10144442;-0.35000
10147219;-0.34500
10149997;-0.33500
10152775;-0.32000
10155553;-0.32000
10158330;-0.31500
10161108;-0.30000
10163886;-0.28500
10166664;-0.27000
10169442;-0.26500
10172219;-0.27000
10174997;-0.27000
10177775;-0.25000
10180553;-0.25000
10183330;-0.24000
10186108;-0.24000
10188886;-0.25000
10191664;-0.25000
10194442;-0.24000
10197219;-0.24000
10199997;-0.23500
10202775;-0.24000
10205553;-0.24500
10208330;-0.25500
10211108;-0.24500
10213886;-0.23000
10216664;-0.23500
10219442;-0.24000
10222219;-0.24500
10224997;-0.25000
10227775;-0.25500
10230553;-0.25500
10233330;-0.24500
10236108;-0.24000
10238886;-0.25500
10241664;-0.26000
10244442;-0.25500
10247219;-0.24500
10249997;-0.25000
10252775;-0.24500
10255553;-0.25000
10258330;-0.26500
10261108;-0.25500
10263886;-0.24500
10266664;-0.25000
10269442;-0.25500
10272219;-0.27000
10274997;-0.28000
10277775;-0.27000
10280553;-0.27000
10283330;-0.26500
10286108;-0.27500
10288886;-0.27500
10291664;-0.29500
10294442;-0.27500
10297219;-0.27000
10299997;-0.27000
10302775;-0.26500
10305553;-0.29000
10308330;-0.29500
10311108;-0.28500
10313886;-0.28000
10316664;-0.28000
10319442;-0.28000
10322219;-0.29500
10324997;-0.30000
10327775;-0.29500
10330553;-0.27000
10333330;-0.27500
10336108;-0.28500
10338886;-0.30000
10341664;-0.30500
10344442;-0.30000
10347219;-0.29000
10349997;-0.29500
10352775;-0.30000
10355553;-0.30000
10358330;-0.30500
10361108;-0.29500
10363886;-0.28000
10366664;-0.28000
10369442;-0.28500
10372219;-0.29500
10374997;-0.30000
10377775;-0.30500
10380553;-0.29500
10383330;-0.28000
10386108;-0.28000
10388886;-0.30500
10391664;-0.31000
10394442;-0.30000
10397219;-0.28000
10399997;-0.28500
10402775;-0.27000
10405553;-0.30000
10408330;-0.30500
10411108;-0.29500
10413886;-0.28500
10416664;-0.29000
10419442;-0.29500
10422219;-0.29500
10424997;-0.29500
10427775;-0.29000
10430553;-0.28500
10433330;-0.28000
10436108;-0.27500
10438886;-0.28500
10441664;-0.28500
10444442;-0.28500
10447219;-0.28500
10449997;-0.26000
10452775;-0.26000
10455553;-0.26000
10458330;-0.24500
10461108;-0.22500
10463886;-0.21000
10466664;-0.20000
10469442;-0.21000
10472219;-0.22000
10474997;-0.23000
10477775;-0.21000
10480553;-0.19500
10483330;-0.18000
10486108;-0.17500
10488886;-0.17500
10491664;-0.18500
10494442;-0.17000
10497219;-0.16500
10499997;-0.16500
10502775;-0.18000
10505553;-0.19500
10508330;-0.21500
10511108;-0.19000
10513886;-0.17000
10516664;-0.17500
10519441;-0.19500
10522219;-0.20000
10524997;-0.21000
10527775;-0.19500
10530553;-0.15000
10533330;-0.15000
10536108;-0.14000
10538886;-0.18500
10541664;-0.22000
10544441;-0.23500
10547219;-0.24500
10549997;-0.25500
10552775;-0.27500
10555553;-0.28500
10558330;-0.30500
10561108;-0.30000
10563886;-0.30000
10566664;-0.28500
10569441;-0.29500
10572219;-0.30000
10574997;-0.31500
10577775;-0.30000
10580553;-0.29000
10583330;-0.29000
10586108;-0.30500
10588886;-0.29500
10591664;-0.30500
10594441;-0.30000
10597219;-0.29500
10599997;-0.29500
10602775;-0.30500
10605553;-0.30500
10608330;-0.31500
10611108;-0.30500
10613886;-0.30000
10616664;-0.30000
10619441;-0.30500
10622219;-0.32500
10624997;-0.37000
10627775;-0.41000
10630553;-0.44500
10633330;-0.46000
10636108;-0.49500
10638886;-0.53000
10641664;-0.55500
10644441;-0.47000
10647219;-0.34500
10649997;-0.19500
10652775;-0.05500
10655553;0.10000
10658330;0.34000
10661108;0.62000
10663886;0.87000
10666664;1.01500
10669441;1.10500
10672219;1.12000
10674997;1.01500
10677775;0.74500
10680553;0.44000
10683330;0.12000
10686108;-0.15000
10688886;-0.34500
10691664;-0.45500
10694441;-0.45500
10697219;-0.41000
10699997;-0.35000
10702775;-0.34000
10705553;-0.34500
10708330;-0.36500
10711108;-0.36000
10713886;-0.34500
10716664;-0.35000
10719441;-0.35000
10722219;-0.36500
10724997;-0.37000
10727775;-0.37500
10730553;-0.36500
10733330;-0.35500
10736108;-0.35500
10738886;-0.35000
10741664;-0.36500
10744441;-0.35500
10747219;-0.35000
10749997;-0.34000
10752775;-0.36000
10755553;-0.35500
10758330;-0.37000
10761108;-0.36500
10763886;-0.36000
10766664;-0.35500
10769441;-0.35500
10772219;-0.35500
10774997;-0.37500
10777775;-0.36000
10780553;-0.34500
10783330;-0.35000
10786108;-0.36000
10788886;-0.36000
10791664;-0.37000
10794441;-0.36000
10797219;-0.36000
10799997;-0.35000
10802775;-0.35500
10805553;-0.37500
10808330;-0.38000
10811108;-0.37000
10813886;-0.35500
10816664;-0.34500
10819441;-0.34500
10822219;-0.36000
10824997;-0.36500
10827775;-0.35500
10830553;-0.36500
10833330;-0.35500
10836108;-0.35500
10838886;-0.37000
10841664;-0.36500
10844441;-0.36500
10847219;-0.36000
10849997;-0.35000
10852775;-0.36000
10855553;-0.37000
10858330;-0.38000
10861108;-0.37500
10863886;-0.36000
10866664;-0.36000
10869441;-0.36000
10872219;-0.36000
10874997;-0.35500
10877775;-0.36000
10880553;-0.36000
10883330;-0.36000
10886108;-0.35500
10888886;-0.37500
10891664;-0.37500
10894441;-0.39500
10897219;-0.36500
10899997;-0.36500
10902775;-0.38000
10905553;-0.39000
10908330;-0.40500
10911108;-0.37500
10913886;-0.39000
10916664;-0.38500
10919441;-0.38500
10922219;-0.40000
10924997;-0.40500
10927775;-0.39000
10930552;-0.38500
10933330;-0.37500
10936108;-0.39000
10938886;-0.39500
10941664;-0.39500
10944441;-0.37500
10947219;-0.37000
10949997;-0.37000
10952775;-0.36000
10955552;-0.37000
10958330;-0.35500
10961108;-0.34500
10963886;-0.33000
10966664;-0.31500
10969441;-0.31500
10972219;-0.32000
10974997;-0.31500
10977775;-0.31500
10980552;-0.31000
10983330;-0.29500
10986108;-0.29500
10988886;-0.29500
10991664;-0.30000
10994441;-0.28500
10997219;-0.28500
10999997;-0.25500
11002775;-0.26500
11005552;-0.27000
11008330;-0.27000
11011108;-0.25500
11013886;-0.24500
11016664;-0.23500
11019441;-0.24500
11022219;-0.25500
11024997;-0.27000
11027775;-0.26500
11030552;-0.24500
11033330;-0.25000
11036108;-0.25500
11038886;-0.27000
11041664;-0.27500
11044441;-0.27500
11047219;-0.26000
11049997;-0.25500
11052775;-0.27000
11055552;-0.27000
11058330;-0.28000
11061108;-0.28000
11063886;-0.27000
11066664;-0.27000
11069441;-0.27500
11072219;-0.27500
11074997;-0.28500
11077775;-0.28000
11080552;-0.27000
11083330;-0.26500
11086108;-0.27000
11088886;-0.28500
11091664;-0.29500
11094441;-0.28000
11097219;-0.28500
11099997;-0.27500
11102775;-0.28000
11105552;-0.29000
11108330;-0.30500
11111108;-0.30500
11113886;-0.31000
11116664;-0.32000
11119441;-0.32000
11122219;-0.31500
11124997;-0.33000
11127775;-0.30500
11130552;-0.31000
11133330;-0.30000
11136108;-0.30500
11138886;-0.31500
11141664;-0.33500
11144441;-0.32000
11147219;-0.31500
11149997;-0.30500
11152775;-0.30000
11155552;-0.31500
11158330;-0.32500
11161108;-0.31500
11163886;-0.31500
11166664;-0.30500
11169441;-0.31000
11172219;-0.32000
11174997;-0.31500
11177775;-0.30500
11180552;-0.30500
11183330;-0.30500
11186108;-0.30000
11188886;-0.32000
11191664;-0.31500
11194441;-0.30500
11197219;-0.29500
11199997;-0.30000
11202775;-0.31000
11205552;-0.32500
11208330;-0.32500
11211108;-0.32000
11213886;-0.30500
11216664;-0.29000
11219441;-0.29500
11222219;-0.30500
11224997;-0.31000
11227775;-0.30500
11230552;-0.29000
11233330;-0.29000
11236108;-0.30000
11238886;-0.31000
11241664;-0.32500
11244441;-0.30500
11247219;-0.28500
11249997;-0.28000
11252775;-0.26500
11255552;-0.26000
11258330;-0.26500
11261108;-0.26500
11263886;-0.24500
11266664;-0.25000
11269441;-0.24000
11272219;-0.23500
11274997;-0.23500
11277775;-0.21500
11280552;-0.19500
11283330;-0.18500
11286108;-0.18500
11288886;-0.20000
11291664;-0.20000
11294441;-0.19000
11297219;-0.20000
11299997;-0.20500
11302775;-0.21000
11305552;-0.21000
11308330;-0.22000
11311108;-0.22500
11313886;-0.23000
11316663;-0.22500
11319441;-0.21500
11322219;-0.20000
11324997;-0.20500
11327775;-0.22000
11330552;-0.24500
11333330;-0.25500
11336108;-0.28500
11338886;-0.28500
11341663;-0.30500
11344441;-0.30500
11347219;-0.29500
11349997;-0.31000
11352775;-0.33000
11355552;-0.33000
11358330;-0.33000
11361108;-0.32000
11363886;-0.31000
11366663;-0.32000
11369441;-0.32000
11372219;-0.33500
11374997;-0.34000
11377775;-0.33000
11380552;-0.33000
11383330;-0.31500
11386108;-0.33000
11388886;-0.34500
11391663;-0.36000
11394441;-0.35000
11397219;-0.34000
11399997;-0.32500
11402775;-0.33000
11405552;-0.33000
11408330;-0.34000
11411108;-0.36500
11413886;-0.37500
11416663;-0.40500
11419441;-0.43500
11422219;-0.45500
11424997;-0.48000
11427775;-0.51500
11430552;-0.53500
11433330;-0.49500
11436108;-0.39500
11438886;-0.26500
11441663;-0.11000
11444441;0.10000
11447219;0.37500
11449997;0.63000
11452775;0.82500
11455552;0.88500
11458330;0.76500
11461108;0.46000
11463886;0.06000
11466663;-0.27000
11469441;-0.45500
11472219;-0.50000
11474997;-0.47000
11477775;-0.40500
11480552;-0.39000
11483330;-0.37500
11486108;-0.38500
11488886;-0.38500
11491663;-0.39500
11494441;-0.38500
11497219;-0.37500
11499997;-0.38000
11502775;-0.38500
11505552;-0.40000
11508330;-0.40000
11511108;-0.39000
11513886;-0.36500
11516663;-0.37000
11519441;-0.38500
11522219;-0.39000
11524997;-0.39000
11527775;-0.40000
11530552;-0.39000
11533330;-0.38500
11536108;-0.37500
11538886;-0.39500
11541663;-0.41500
11544441;-0.41000
11547219;-0.40000
11549997;-0.39500
11552775;-0.39500
11555552;-0.40000
11558330;-0.41000
11561108;-0.41000
11563886;-0.39500
11566663;-0.39500
11569441;-0.39000
11572219;-0.39500
11574997;-0.40500
11577775;-0.39500
11580552;-0.39000
11583330;-0.39500
11586108;-0.39000
11588886;-0.40000
11591663;-0.40500
11594441;-0.40000
11597219;-0.39000
11599997;-0.40000
11602775;-0.39500
11605552;-0.39500
11608330;-0.41500
11611108;-0.42000
11613886;-0.39500
11616663;-0.39000
11619441;-0.40000
11622219;-0.41000
11624997;-0.41500
11627775;-0.43000
11630552;-0.41500
11633330;-0.40000
11636108;-0.41000
11638886;-0.40000
11641663;-0.40500
11644441;-0.40000
11647219;-0.40000
11649997;-0.40000
11652775;-0.38000
11655552;-0.40000
11658330;-0.41500
11661108;-0.39500
11663886;-0.40000
11666663;-0.39500
11669441;-0.42000
11672219;-0.42500
11674997;-0.43000
11677775;-0.42500
11680552;-0.41500
11683330;-0.41000
11686108;-0.43000
11688886;-0.46000
11691663;-0.47500
11694441;-0.46000
11697219;-0.44500
11699997;-0.43000
11702775;-0.45000
11705552;-0.46500
11708330;-0.47000
11711108;-0.47000
11713886;-0.44000
11716663;-0.44000
11719441;-0.44500
11722219;-0.45000
11724997;-0.44500
11727774;-0.43000
11730552;-0.42500
11733330;-0.44000
11736108;-0.43000
11738886;-0.42000
11741663;-0.42000
11744441;-0.40500
11747219;-0.38000
11749997;-0.36500
11752774;-0.35000
11755552;-0.33500
11758330;-0.32500
11761108;-0.31500
11763886;-0.30500
11766663;-0.31000
11769441;-0.29500
11772219;-0.30500
11774997;-0.30000
11777774;-0.30000
11780552;-0.28500
11783330;-0.28500
11786108;-0.26000
11788886;-0.27000
11791663;-0.28000
11794441;-0.29000
11797219;-0.29500
11799997;-0.29000
11802774;-0.29000
11805552;-0.28000
11808330;-0.27500
11811108;-0.28000
11813886;-0.26500
11816663;-0.26500
11819441;-0.27000
11822219;-0.28500
11824997;-0.30000
11827774;-0.31000
11830552;-0.30000
11833330;-0.29500
11836108;-0.29500
11838886;-0.30000
11841663;-0.29000
11844441;-0.27500
11847219;-0.27500
11849997;-0.28500
11852774;-0.29500
11855552;-0.30000
11858330;-0.30000
11861108;-0.30500
11863886;-0.30500
11866663;-0.29500
11869441;-0.31500
11872219;-0.31500
11874997;-0.33000
11877774;-0.31000
11880552;-0.29500
11883330;-0.28500
11886108;-0.28000
11888886;-0.30500
11891663;-0.32000
11894441;-0.32000
11897219;-0.32000
11899997;-0.30000
11902774;-0.30500
11905552;-0.31000
11908330;-0.31500
11911108;-0.31500
11913886;-0.31000
11916663;-0.31000
11919441;-0.30500
11922219;-0.32500
11924997;-0.31500
11927774;-0.31000
11930552;-0.30500
11933330;-0.31500
11936108;-0.32500
11938886;-0.33000
11941663;-0.33000
11944441;-0.32500
11947219;-0.31500
11949997;-0.31000
11952774;-0.30500
11955552;-0.32500
11958330;-0.32000
11961108;-0.30500
11963886;-0.29000
11966663;-0.29000
11969441;-0.29000
11972219;-0.30500
11974997;-0.32000
11977774;-0.31000
11980552;-0.30000
11983330;-0.29500
11986108;-0.30500
11988886;-0.30000
11991663;-0.31000
11994441;-0.30500
11997219;-0.29500
11999997;-0.29500
12002774;-0.30000
12005552;-0.30500
12008330;-0.31000
12011108;-0.32500
12013886;-0.32000
12016663;-0.31000
12019441;-0.31000
12022219;-0.30500
12024997;-0.31500
12027774;-0.30000
12030552;-0.30500
12033330;-0.28500
12036108;-0.27000
12038886;-0.27500
12041663;-0.27000
12044441;-0.26500
12047219;-0.24500
12049997;-0.23500
12052774;-0.23000
12055552;-0.23500
12058330;-0.23000
12061108;-0.21500
12063886;-0.20000
12066663;-0.19000
12069441;-0.20000
12072219;-0.21500
12074997;-0.23500
12077774;-0.23000
12080552;-0.23000
12083330;-0.23000
12086108;-0.23500
12088886;-0.23500
12091663;-0.24000
12094441;-0.23000
12097219;-0.24500
12099997;-0.24500
12102774;-0.24500
12105552;-0.22500
12108330;-0.22500
12111108;-0.22000
12113885;-0.24000
12116663;-0.25000
12119441;-0.26500
12122219;-0.30000
12124997;-0.32000
12127774;-0.31500
12130552;-0.32500
12133330;-0.33000
12136108;-0.32500
12138885;-0.33000
12141663;-0.32500
12144441;-0.32500
12147219;-0.32500
12149997;-0.31500
12152774;-0.33500
12155552;-0.33000
12158330;-0.34500
12161108;-0.34000
12163885;-0.34000
12166663;-0.34000
12169441;-0.34500
12172219;-0.34500
12174997;-0.34500
12177774;-0.34000
12180552;-0.33500
12183330;-0.32000
12186108;-0.32500
12188885;-0.34000
12191663;-0.37500
12194441;-0.39000
12197219;-0.42000
12199997;-0.43000
12202774;-0.44000
12205552;-0.48500
12208330;-0.54000
12211108;-0.53000
12213885;-0.44000
12216663;-0.29500
12219441;-0.13500
12222219;0.04000
12224997;0.26500
12227774;0.55000
12230552;0.78500
12233330;0.93500
12236108;0.94500
12238885;0.72000
12241663;0.33000
12244441;-0.09500
12247219;-0.37000
12249997;-0.46000
12252774;-0.46000
12255552;-0.42500
12258330;-0.39000
12261108;-0.37000
12263885;-0.37000
12266663;-0.36500
12269441;-0.36500
12272219;-0.36500
12274997;-0.38000
12277774;-0.38500
12280552;-0.37500
12283330;-0.36500
12286108;-0.37500
12288885;-0.38000
12291663;-0.39000
12294441;-0.37500
12297219;-0.37500
12299997;-0.36000
12302774;-0.36500
12305552;-0.36000
12308330;-0.37000
12311108;-0.36000
12313885;-0.34500
12316663;-0.34500
12319441;-0.35000
12322219;-0.36000
12324997;-0.37000
12327774;-0.36500
12330552;-0.36000
12333330;-0.35500
12336108;-0.36000
12338885;-0.36500
12341663;-0.37000
12344441;-0.38000
12347219;-0.35500
12349997;-0.35000
12352774;-0.35500
12355552;-0.35500
12358330;-0.37500
12361108;-0.37500
12363885;-0.36000
12366663;-0.35500
12369441;-0.36000
12372219;-0.37000
12374997;-0.38000
12377774;-0.36500
12380552;-0.36000
12383330;-0.36000
12386108;-0.36000
12388885;-0.37000
12391663;-0.37500
12394441;-0.36500
12397219;-0.36000
12399997;-0.36000
12402774;-0.36500
12405552;-0.36500
12408330;-0.37500
12411108;-0.37000
12413885;-0.37000
12416663;-0.37000
12419441;-0.36500
12422219;-0.37000
12424997;-0.38500
12427774;-0.38500
12430552;-0.37000
12433330;-0.36500
12436108;-0.37000
12438885;-0.39000
12441663;-0.39000
12444441;-0.39500
12447219;-0.39500
12449997;-0.38500
12452774;-0.37500
12455552;-0.39500
12458330;-0.41500
12461108;-0.40500
12463885;-0.39500
12466663;-0.40000
12469441;-0.40000
12472219;-0.41500
12474997;-0.43500
12477774;-0.42500
12480552;-0.41000
12483330;-0.41000
12486108;-0.40500
12488885;-0.41500
12491663;-0.41500
12494441;-0.42500
12497219;-0.40500
12499996;-0.41500
12502774;-0.42500
12505552;-0.42000
12508330;-0.43500
12511108;-0.40500
12513885;-0.39500
12516663;-0.36500
12519441;-0.35500
12522219;-0.35500
12524996;-0.33500
12527774;-0.31000
12530552;-0.30000
12533330;-0.29000
12536108;-0.27000
12538885;-0.27000
12541663;-0.27500
12544441;-0.27000
12547219;-0.25000
12549996;-0.24000
12552774;-0.23000
12555552;-0.24500
12558330;-0.24500
12561108;-0.24500
12563885;-0.24500
12566663;-0.23000
12569441;-0.23000
12572219;-0.24000
12574996;-0.25500
12577774;-0.25500
12580552;-0.25000
12583330;-0.24000
12586108;-0.23500
12588885;-0.24000
12591663;-0.24500
12594441;-0.25500
12597219;-0.24000
12599996;-0.23000
12602774;-0.23000
12605552;-0.25500
12608330;-0.25500
12611108;-0.23500
12613885;-0.24000
12616663;-0.23000
12619441;-0.22500
12622219;-0.24000
12624996;-0.25500
12627774;-0.25500
12630552;-0.24500
12633330;-0.23000
12636108;-0.24000
12638885;-0.24500
12641663;-0.25500
12644441;-0.26000
12647219;-0.23500
12649996;-0.24500
12652774;-0.25000
12655552;-0.25000
12658330;-0.27000
12661108;-0.27000
12663885;-0.26000
12666663;-0.25500
12669441;-0.26500
12672219;-0.26500
12674996;-0.27500
12677774;-0.27000
12680552;-0.27000
12683330;-0.26500
12686108;-0.26500
12688885;-0.26500
12691663;-0.27500
12694441;-0.27000
12697219;-0.26500
12699996;-0.27000
12702774;-0.26500
12705552;-0.27500
12708330;-0.28000
12711108;-0.27000
12713885;-0.26500
12716663;-0.26000
12719441;-0.26500
12722219;-0.28000
12724996;-0.28000
12727774;-0.28000
12730552;-0.27500
12733330;-0.27000
12736108;-0.27500
12738885;-0.28000
12741663;-0.28000
12744441;-0.28500
12747219;-0.26000
12749996;-0.25500
12752774;-0.25000
12755552;-0.26500
12758330;-0.28500
12761108;-0.26500
12763885;-0.25000
12766663;-0.24500
12769441;-0.25000
12772219;-0.26000
12774996;-0.27500
12777774;-0.27000
12780552;-0.25500
12783330;-0.25000
12786108;-0.25500
12788885;-0.26000
12791663;-0.26000
12794441;-0.26500
12797219;-0.28000
12799996;-0.26000
12802774;-0.25500
12805552;-0.26500
12808330;-0.27500
12811108;-0.26500
12813885;-0.25500
12816663;-0.25500
12819441;-0.24500
12822219;-0.24500
12824996;-0.25000
12827774;-0.25000
12830552;-0.23000
12833330;-0.21500
12836108;-0.19500
12838885;-0.20000
12841663;-0.20000
12844441;-0.19000
12847219;-0.19000
12849996;-0.17500
12852774;-0.17500
12855552;-0.18000
12858330;-0.17500
12861108;-0.17000
12863885;-0.15000
12866663;-0.14500
12869441;-0.15500
12872219;-0.16000
12874996;-0.18000
12877774;-0.17000
12880552;-0.17500
12883330;-0.18500
12886108;-0.18500
12888885;-0.19000
12891663;-0.19500
12894441;-0.19500
12897219;-0.19500
12899996;-0.17000
12902774;-0.15000
12905552;-0.14500
12908330;-0.15000
12911107;-0.17000
12913885;-0.19000
12916663;-0.19500
12919441;-0.21500
12922219;-0.23000
12924996;-0.25500
12927774;-0.25500
12930552;-0.25500
12933330;-0.26500
12936107;-0.27500
12938885;-0.27500
12941663;-0.27500
12944441;-0.27500
12947219;-0.27500
12949996;-0.27500
12952774;-0.27500
12955552;-0.29000
12958330;-0.29500
12961107;-0.30000
12963885;-0.28500
12966663;-0.27500
12969441;-0.28500
12972219;-0.28500
12974996;-0.28500
12977774;-0.28000
12980552;-0.28000
12983330;-0.26500
12986107;-0.27500
12988885;-0.28500
12991663;-0.29000
12994441;-0.28500
12997219;-0.28000
12999996;-0.27500
13002774;-0.28000
13005552;-0.30000
13008330;-0.32500
13011107;-0.37000
13013885;-0.40000
13016663;-0.42500
13019441;-0.44000
13022219;-0.48000
13024996;-0.48500
13027774;-0.39500
13030552;-0.24500
13033330;-0.07000
13036107;0.12000
13038885;0.34000
13041663;0.62500
13044441;0.88000
13047219;1.05000
13049996;1.12000
13052774;0.98500
13055552;0.66000
13058330;0.19500
13061107;-0.21000
13063885;-0.40500
13066663;-0.42000
13069441;-0.36000
13072219;-0.31500
13074996;-0.32000
13077774;-0.32000
13080552;-0.32000
13083330;-0.32500
13086107;-0.32500
13088885;-0.32500
13091663;-0.34000
13094441;-0.35000
13097219;-0.33500
13099996;-0.32500
13102774;-0.35500
13105552;-0.34000
13108330;-0.35500
13111107;-0.34000
13113885;-0.33500
13116663;-0.33500
13119441;-0.33500
13122219;-0.35000
13124996;-0.36500
13127774;-0.34000
13130552;-0.35000
13133330;-0.33500
13136107;-0.34500
13138885;-0.35500
13141663;-0.35500
13144441;-0.35000
13147219;-0.33500
13149996;-0.33000
13152774;-0.32500
13155552;-0.34500
13158330;-0.34500
13161107;-0.33500
13163885;-0.33000
13166663;-0.33500
13169441;-0.33500
13172219;-0.34000
13174996;-0.33500
13177774;-0.33500
13180552;-0.33500
13183330;-0.32500
13186107;-0.33000
13188885;-0.34000
13191663;-0.34500
13194441;-0.33500
13197219;-0.33500
13199996;-0.33000
13202774;-0.33500
13205552;-0.34000
13208330;-0.36000
13211107;-0.36000
13213885;-0.34000
13216663;-0.34000
13219441;-0.33500
13222219;-0.34000
13224996;-0.34000
13227774;-0.34000
13230552;-0.33500
13233330;-0.32500
13236107;-0.33000
13238885;-0.34500
13241663;-0.35500
13244441;-0.36000
13247219;-0.34500
13249996;-0.34500
13252774;-0.34500
13255552;-0.36000
13258330;-0.37000
13261107;-0.35500
13263885;-0.35000
13266663;-0.34500
13269441;-0.35000
13272219;-0.35500
13274996;-0.35500
13277774;-0.35000
13280552;-0.35000
13283330;-0.34000
13286107;-0.33500
13288885;-0.34500
13291663;-0.35500
13294441;-0.35000
13297218;-0.35000
13299996;-0.34500
13302774;-0.35000
13305552;-0.35000
13308330;-0.37000
13311107;-0.35500
13313885;-0.34000
13316663;-0.33500
13319441;-0.34500
13322218;-0.35500
13324996;-0.36000
13327774;-0.34500
13330552;-0.33500
13333330;-0.32500
13336107;-0.32500
13338885;-0.33000
13341663;-0.33000
13344441;-0.31000
13347218;-0.30000
13349996;-0.28500
13352774;-0.26500
13355552;-0.26500
13358330;-0.25500
13361107;-0.26000
13363885;-0.24000
13366663;-0.22500
13369441;-0.22500
13372218;-0.22500
13374996;-0.23000
13377774;-0.21500
13380552;-0.20500
13383330;-0.20000
13386107;-0.20500
13388885;-0.22000
13391663;-0.23000
13394441;-0.22000
13397218;-0.22000
13399996;-0.20000
13402774;-0.21000
13405552;-0.22000
13408330;-0.23000
13411107;-0.22000
13413885;-0.20000
13416663;-0.20000
13419441;-0.20000
13422218;-0.21500
13424996;-0.21500
13427774;-0.22000
13430552;-0.21000
13433330;-0.21000
13436107;-0.20000
13438885;-0.22000
13441663;-0.23000
13444441;-0.22000
13447218;-0.21500
13449996;-0.20500
13452774;-0.21000
13455552;-0.22500
13458330;-0.23000
13461107;-0.23000
13463885;-0.23000
13466663;-0.22000
13469441;-0.22000
13472218;-0.23500
13474996;-0.24500
13477774;-0.25500
13480552;-0.23000
13483330;-0.23000
13486107;-0.23500
13488885;-0.24500
13491663;-0.25500
13494441;-0.25000
13497218;-0.25500
13499996;-0.24500
13502774;-0.24500
13505552;-0.25500
13508330;-0.26000
13511107;-0.26000
13513885;-0.26000
13516663;-0.24500
13519441;-0.25500
13522218;-0.27000
13524996;-0.28500
13527774;-0.28000
13530552;-0.27500
13533330;-0.25500
13536107;-0.25500
13538885;-0.25500
13541663;-0.27000
13544441;-0.27000
13547218;-0.26000
13549996;-0.25500
13552774;-0.26000
13555552;-0.27000
13558330;-0.27000
13561107;-0.27000
13563885;-0.26000
13566663;-0.26000
13569441;-0.26500
13572218;-0.26500
13574996;-0.27500
13577774;-0.27000
13580552;-0.26500
13583330;-0.25500
13586107;-0.25500
13588885;-0.27500
13591663;-0.27500
13594441;-0.28000
13597218;-0.26500
13599996;-0.26500
13602774;-0.27000
13605552;-0.27500
13608330;-0.28000
13611107;-0.27500
13613885;-0.27000
13616663;-0.26000
13619441;-0.26000
13622218;-0.26000
13624996;-0.27000
13627774;-0.26000
13630552;-0.25500
13633330;-0.25000
13636107;-0.25000
13638885;-0.25500
13641663;-0.27500
13644441;-0.26500
13647218;-0.25000
13649996;-0.25500
13652774;-0.25500
13655552;-0.25500
13658330;-0.26000
13661107;-0.26000
13663885;-0.25000
13666663;-0.23500
13669441;-0.23000
13672218;-0.23500
13674996;-0.24000
13677774;-0.22000
13680552;-0.20500
13683330;-0.19500
13686107;-0.19500
13688885;-0.19500
13691663;-0.20000
13694441;-0.19000
13697218;-0.16000
13699996;-0.16500
13702774;-0.14500
13705552;-0.15500
13708329;-0.17000
13711107;-0.16500
13713885;-0.15500
13716663;-0.16000
13719441;-0.17000
13722218;-0.19500
13724996;-0.19500
13727774;-0.19000
13730552;-0.17500
13733329;-0.18000
13736107;-0.17500
13738885;-0.18500
13741663;-0.18500
13744441;-0.16000
13747218;-0.13500
13749996;-0.15000
13752774;-0.18000
13755552;-0.19500
13758329;-0.22500
13761107;-0.23500
13763885;-0.23500
13766663;-0.24500
13769441;-0.25000
13772218;-0.27000
13774996;-0.28500
13777774;-0.29500
13780552;-0.28500
13783329;-0.27000
13786107;-0.28000
13788885;-0.29000
13791663;-0.30000
13794441;-0.30500
13797218;-0.30000
13799996;-0.29500
13802774;-0.29500
13805552;-0.29500
13808329;-0.31500
13811107;-0.30000
13813885;-0.30000
13816663;-0.29000
13819441;-0.29000
13822218;-0.29500
13824996;-0.29500
13827774;-0.29500
13830552;-0.28500
13833329;-0.29000
13836107;-0.29000
13838885;-0.29500
13841663;-0.30500
13844441;-0.31000
13847218;-0.33500
13849996;-0.36000
13852774;-0.39500
13855552;-0.42000
13858329;-0.44500
13861107;-0.45500
13863885;-0.49500
13866663;-0.50500
13869441;-0.49000
13872218;-0.40500
13874996;-0.24500
13877774;-0.08500
13880552;0.10500
13883329;0.33000
13886107;0.60000
13888885;0.82500
13891663;0.97000
13894441;1.02500
13897218;0.90500
13899996;0.59000
13902774;0.15500
13905552;-0.21500
13908329;-0.41000
13911107;-0.45000
13913885;-0.38500
13916663;-0.33500
13919441;-0.31000
13922218;-0.32000
13924996;-0.34500
13927774;-0.34000
13930552;-0.33500
13933329;-0.32500
13936107;-0.33500
13938885;-0.34500
13941663;-0.36500
13944441;-0.35000
13947218;-0.34500
13949996;-0.33500
13952774;-0.33000
13955552;-0.34500
13958329;-0.36000
13961107;-0.34000
13963885;-0.34500
13966663;-0.34000
13969441;-0.34500
13972218;-0.34500
13974996;-0.36000
13977774;-0.34500
13980552;-0.35000
13983329;-0.34000
13986107;-0.34000
13988885;-0.33500
13991663;-0.35000
13994441;-0.35000
13997218;-0.35000
13999996;-0.32500
14002774;-0.34000
14005552;-0.35500
14008329;-0.36500
14011107;-0.35500
14013885;-0.34000
14016663;-0.34500
14019441;-0.35000
14022218;-0.35500
14024996;-0.36500
14027774;-0.36000
14030552;-0.34500
14033329;-0.33500
14036107;-0.33500
14038885;-0.34000
14041663;-0.35000
14044441;-0.35000
14047218;-0.34000
14049996;-0.34000
14052774;-0.34500
14055552;-0.34500
14058329;-0.35000
14061107;-0.35000
14063885;-0.34000
14066663;-0.33000
14069441;-0.34000
14072218;-0.34500
14074996;-0.36500
14077774;-0.36000
14080552;-0.35500
14083329;-0.35000
14086107;-0.35500
14088885;-0.35000
14091663;-0.36500
14094440;-0.36000
14097218;-0.35000
14099996;-0.33500
14102774;-0.34500
14105552;-0.34500
14108329;-0.35500
14111107;-0.35500
14113885;-0.34500
14116663;-0.34500
14119440;-0.35000
14122218;-0.35500
14124996;-0.36000
14127774;-0.36500
14130552;-0.35500
14133329;-0.35000
14136107;-0.36000
14138885;-0.36500
14141663;-0.37500
14144440;-0.37000
14147218;-0.36500
14149996;-0.36000
14152774;-0.36000
14155552;-0.37000
14158329;-0.37500
14161107;-0.37000
14163885;-0.36500
14166663;-0.35500
14169440;-0.35000
14172218;-0.35000
14174996;-0.35500
14177774;-0.34000
14180552;-0.32500
14183329;-0.32000
14186107;-0.32000
14188885;-0.31000
14191663;-0.31500
14194440;-0.31500
14197218;-0.31000
14199996;-0.28500
14202774;-0.28500
14205552;-0.30000
14208329;-0.28500
14211107;-0.28500
14213885;-0.27000
14216663;-0.25500
14219440;-0.25500
14222218;-0.25000
14224996;-0.26500
14227774;-0.24000
14230552;-0.24000
14233329;-0.24000
14236107;-0.23500
14238885;-0.24000
14241663;-0.25000
14244440;-0.25000
14247218;-0.23000
14249996;-0.22000
14252774;-0.20500
14255552;-0.21500
14258329;-0.23500
14261107;-0.22500
14263885;-0.23000
14266663;-0.23000
14269440;-0.22500
14272218;-0.22500
14274996;-0.24000
14277774;-0.23000
14280552;-0.22500
14283329;-0.22000
14286107;-0.22000
14288885;-0.23500
14291663;-0.24500
14294440;-0.24500
14297218;-0.22500
14299996;-0.23500
14302774;-0.23000
14305552;-0.24000
14308329;-0.26000
14311107;-0.26500
14313885;-0.25000
14316663;-0.24500
14319440;-0.24500
14322218;-0.25500
14324996;-0.27000
14327774;-0.26500
14330552;-0.27000
14333329;-0.25500
14336107;-0.24500
14338885;-0.26000
14341663;-0.26000
14344440;-0.26000
14347218;-0.26000
14349996;-0.25500
14352774;-0.25500
14355552;-0.26000
14358329;-0.27000
14361107;-0.27000
14363885;-0.28000
14366663;-0.27000
14369440;-0.26500
14372218;-0.27500
14374996;-0.28000
14377774;-0.27500
14380552;-0.27000
14383329;-0.26500
14386107;-0.27000
14388885;-0.28000
14391663;-0.30000
14394440;-0.30000
14397218;-0.29500
14399996;-0.28500
14402774;-0.30000
14405552;-0.31000
14408329;-0.31500
14411107;-0.30000
14413885;-0.29000
14416663;-0.26500
14419440;-0.27000
14422218;-0.26500
14424996;-0.27500
14427774;-0.28000
14430552;-0.27500
14433329;-0.27000
14436107;-0.27000
14438885;-0.29000
14441663;-0.30000
14444440;-0.30000
14447218;-0.28000
14449996;-0.27500
14452774;-0.27000
14455552;-0.29000
14458329;-0.30000
14461107;-0.30000
14463885;-0.29000
14466663;-0.29000
14469440;-0.29000
14472218;-0.29500
14474996;-0.30500
14477774;-0.29500
14480552;-0.30000
14483329;-0.29000
14486107;-0.28500
14488885;-0.28000
14491663;-0.28000
14494440;-0.27500
14497218;-0.27500
14499996;-0.26500
14502774;-0.26500
14505551;-0.28000
14508329;-0.28000
14511107;-0.27000
14513885;-0.26500
14516663;-0.25000
14519440;-0.23500
14522218;-0.23500
14524996;-0.24000
14527774;-0.23000
14530551;-0.22000
14533329;-0.22000
14536107;-0.21500
14538885;-0.21500
14541663;-0.22000
14544440;-0.20500
14547218;-0.20500
14549996;-0.19000
14552774;-0.19000
14555551;-0.18500
14558329;-0.18500
14561107;-0.17500
14563885;-0.18000
14566663;-0.17000
14569440;-0.18000
14572218;-0.20000
14574996;-0.20500
14577774;-0.21000
14580551;-0.20000
14583329;-0.20000
14586107;-0.20000
14588885;-0.22500
14591663;-0.21500
14594440;-0.19000
14597218;-0.18500
14599996;-0.18000
14602774;-0.22000
14605551;-0.25000
14608329;-0.28500
14611107;-0.29000
14613885;-0.29500
14616663;-0.30000
14619440;-0.30000
14622218;-0.31000
14624996;-0.32500
14627774;-0.33000
14630551;-0.32000
14633329;-0.31000
14636107;-0.31000
14638885;-0.31000
14641663;-0.32000
14644440;-0.32000
14647218;-0.31000
14649996;-0.31000
14652774;-0.31000
14655551;-0.31500
14658329;-0.32000
14661107;-0.33000
14663885;-0.31500
14666663;-0.30500
14669440;-0.31500
14672218;-0.31500
14674996;-0.35000
14677774;-0.33500
14680551;-0.34000
14683329;-0.32500
14686107;-0.33000
14688885;-0.32500
14691663;-0.34000
14694440;-0.34500
14697218;-0.33000
14699996;-0.33500
14702774;-0.33500
14705551;-0.37000
14708329;-0.44000
14711107;-0.46000
14713885;-0.48000
14716663;-0.50500
14719440;-0.55000
14722218;-0.57500
14724996;-0.51500
14727774;-0.40000
14730551;-0.25500
14733329;-0.09000
14736107;0.09000
14738885;0.33000
14741663;0.57500
14744440;0.77500
14747218;0.90500
14749996;0.88500
14752774;0.67500
14755551;0.31500
14758329;-0.08000
14761107;-0.35500
14763885;-0.48000
14766663;-0.50000
14769440;-0.46500
14772218;-0.42000
14774996;-0.39000
14777774;-0.39500
14780551;-0.38500
14783329;-0.38500
14786107;-0.39500
14788885;-0.39000
14791663;-0.41500
14794440;-0.40500
14797218;-0.39000
14799996;-0.38000
14802774;-0.37000
14805551;-0.38500
14808329;-0.39500
14811107;-0.39500
14813885;-0.38500
14816663;-0.38000
14819440;-0.38000
14822218;-0.38000
14824996;-0.39500
14827774;-0.38500
14830551;-0.38000
14833329;-0.38500
14836107;-0.39500
14838885;-0.39000
14841663;-0.41500
14844440;-0.40000
14847218;-0.39500
14849996;-0.39000
14852774;-0.39500
14855551;-0.39000
14858329;-0.41500
14861107;-0.39000
14863885;-0.38500
14866663;-0.38000
14869440;-0.38000
14872218;-0.39000
14874996;-0.40500
14877774;-0.38500
14880551;-0.38000
14883329;-0.37500
14886107;-0.38000
14888885;-0.39500
14891662;-0.41500
14894440;-0.40500
14897218;-0.39500
14899996;-0.38000
14902774;-0.38500
14905551;-0.39500
14908329;-0.41500
14911107;-0.40500
14913885;-0.39000
14916662;-0.38000
14919440;-0.39000
14922218;-0.39500
14924996;-0.40000
14927774;-0.39500
14930551;-0.38500
14933329;-0.39500
14936107;-0.40500
14938885;-0.40500
14941662;-0.40500
14944440;-0.40000
14947218;-0.39000
14949996;-0.39500
14952774;-0.39000
14955551;-0.40500
14958329;-0.41500
14961107;-0.40500
14963885;-0.40500
14966662;-0.40500
14969440;-0.38500
14972218;-0.39500
14974996;-0.41500
14977774;-0.43000
14980551;-0.42500
14983329;-0.42000
14986107;-0.41500
14988885;-0.43000
14991662;-0.43500
14994440;-0.43000
14997218;-0.43000
14999996;-0.43000
15002774;-0.44000
15005551;-0.45500
15008329;-0.44500
15011107;-0.44000
15013885;-0.44000
15016662;-0.42500
15019440;-0.42500
15022218;-0.43000
15024996;-0.45500
15027774;-0.43500
15030551;-0.42500
15033329;-0.41000
15036107;-0.40000
15038885;-0.40000
15041662;-0.39500
15044440;-0.39000
15047218;-0.37000
15049996;-0.35000
15052774;-0.34000
15055551;-0.34000
15058329;-0.34000
15061107;-0.31500
15063885;-0.30500
15066662;-0.29500
15069440;-0.28500
15072218;-0.29000
15074996;-0.29500
15077774;-0.29000
15080551;-0.29500
15083329;-0.27500
15086107;-0.28000
15088885;-0.27500
15091662;-0.28000
15094440;-0.28500
15097218;-0.28500
15099996;-0.27500
15102774;-0.29000
15105551;-0.28500
15108329;-0.29500
15111107;-0.28000
15113885;-0.28500
15116662;-0.28000
15119440;-0.28500
15122218;-0.30000
15124996;-0.31000
15127774;-0.30000
15130551;-0.30500
15133329;-0.30500
15136107;-0.30000
15138885;-0.30000
15141662;-0.32000
15144440;-0.31000
15147218;-0.30000
15149996;-0.29500
15152774;-0.30000
15155551;-0.29000
15158329;-0.30500
15161107;-0.29500
15163885;-0.30000
15166662;-0.31000
15169440;-0.30500
15172218;-0.31500
15174996;-0.32000
15177774;-0.31000
15180551;-0.30000
15183329;-0.29500
15186107;-0.31500
15188885;-0.34000
15191662;-0.34500
15194440;-0.34000
15197218;-0.33000
15199996;-0.31500
15202774;-0.32500
15205551;-0.34500
15208329;-0.35500
15211107;-0.34500
15213885;-0.35000
15216662;-0.33000
15219440;-0.32500
15222218;-0.32000
15224996;-0.33500
15227774;-0.32000
15230551;-0.31500
15233329;-0.31000
15236107;-0.32500
15238885;-0.34500
15241662;-0.34500
15244440;-0.34000
15247218;-0.34000
15249996;-0.31500
15252774;-0.33000
15255551;-0.33500
15258329;-0.34000
15261107;-0.34500
15263885;-0.33000
15266662;-0.31000
15269440;-0.31500
15272218;-0.31000
15274996;-0.32000
15277774;-0.34000
15280551;-0.33500
15283329;-0.33500
15286107;-0.34000
15288885;-0.35500
15291662;-0.35500
15294440;-0.34500
15297218;-0.33000
15299996;-0.32500
15302773;-0.32500
15305551;-0.33000
15308329;-0.33500
15311107;-0.32000
15313885;-0.33000
15316662;-0.34000
15319440;-0.32000
15322218;-0.32500
15324996;-0.31500
15327773;-0.31500
15330551;-0.30500
15333329;-0.31500
15336107;-0.33000
15338885;-0.33500
15341662;-0.34000
15344440;-0.32000
15347218;-0.29500
15349996;-0.27500
15352773;-0.28000
15355551;-0.27000
15358329;-0.28000
15361107;-0.27000
15363885;-0.26500
15366662;-0.26000
15369440;-0.24000
15372218;-0.24500
15374996;-0.26000
15377773;-0.25000
15380551;-0.23500
15383329;-0.22000
15386107;-0.22000
15388885;-0.22500
15391662;-0.23500
15394440;-0.23000
15397218;-0.23500
15399996;-0.23000
15402773;-0.23500
15405551;-0.23500
15408329;-0.25500
15411107;-0.26500
15413885;-0.26500
15416662;-0.26000
15419440;-0.25500
15422218;-0.23000
15424996;-0.24500
15427773;-0.24500
15430551;-0.27500
15433329;-0.28000
15436107;-0.30500
15438885;-0.32000
15441662;-0.35000
15444440;-0.34000
15447218;-0.32500
15449996;-0.32000
15452773;-0.32000
15455551;-0.33000
15458329;-0.34000
15461107;-0.35500
15463885;-0.34500
15466662;-0.33500
15469440;-0.33500
15472218;-0.34000
15474996;-0.35500
15477773;-0.35500
15480551;-0.36000
15483329;-0.35500
15486107;-0.35500
15488885;-0.36500
15491662;-0.37000
15494440;-0.36000
15497218;-0.34000
15499996;-0.35000
15502773;-0.34500
15505551;-0.36000
15508329;-0.37500
15511107;-0.36500
15513885;-0.35500
15516662;-0.36500
15519440;-0.36500
15522218;-0.37000
15524996;-0.39000
15527773;-0.43000
15530551;-0.46500
15533329;-0.47000
15536107;-0.47500
15538885;-0.53000
15541662;-0.56500
15544440;-0.51500
15547218;-0.41000
15549996;-0.27500
15552773;-0.11000
15555551;0.06000
15558329;0.27000
15561107;0.53500
15563885;0.77000
15566662;0.91500
15569440;0.95500
15572218;0.86000
15574996;0.51000
15577773;0.08500
15580551;-0.26000
15583329;-0.43500
15586107;-0.48500
15588885;-0.49500
15591662;-0.45500
15594440;-0.44000
15597218;-0.41000
15599996;-0.39500
15602773;-0.39500
15605551;-0.40500
15608329;-0.42000
15611107;-0.40000
15613885;-0.39000
15616662;-0.38500
15619440;-0.38500
15622218;-0.38500
15624996;-0.40000
15627773;-0.40000
15630551;-0.38500
15633329;-0.38500
15636107;-0.39500
15638885;-0.39000
15641662;-0.39000
15644440;-0.39500
15647218;-0.39000
15649996;-0.37500
15652773;-0.38000
15655551;-0.40000
15658329;-0.40500
15661107;-0.41000
15663885;-0.38500
15666662;-0.39000
15669440;-0.39500
15672218;-0.41500
15674996;-0.43500
15677773;-0.40500
15680551;-0.40500
15683329;-0.40000
15686107;-0.40500
15688884;-0.42500
15691662;-0.42000
15694440;-0.41500
15697218;-0.40000
15699996;-0.39000
15702773;-0.39500
15705551;-0.40000
15708329;-0.41500
15711107;-0.40500
15713884;-0.40000
15716662;-0.39000
15719440;-0.38500
15722218;-0.40000
15724996;-0.41000
15727773;-0.39500
15730551;-0.39500
15733329;-0.38500
15736107;-0.39000
15738884;-0.40500
15741662;-0.41000
15744440;-0.40500
15747218;-0.39500
15749996;-0.39000
15752773;-0.40000
15755551;-0.39000
15758329;-0.40500
15761107;-0.41000
15763884;-0.40000
15766662;-0.39500
15769440;-0.40500
15772218;-0.40500
15774996;-0.41500
15777773;-0.40000
15780551;-0.40000
15783329;-0.38500
15786107;-0.39500
15788884;-0.40000
15791662;-0.42000
15794440;-0.41000
15797218;-0.40000
15799996;-0.40500
15802773;-0.41500
15805551;-0.43000
15808329;-0.44000
15811107;-0.43500
15813884;-0.43500
15816662;-0.43500
15819440;-0.43500
15822218;-0.46000
15824996;-0.46500
15827773;-0.46000
15830551;-0.45000
15833329;-0.44000
15836107;-0.44000
15838884;-0.44000
15841662;-0.44500
15844440;-0.44500
15847218;-0.42500
15849996;-0.41500
15852773;-0.40000
15855551;-0.40000
15858329;-0.40500
15861107;-0.38000
15863884;-0.36500
15866662;-0.35000
15869440;-0.33000
15872218;-0.32500
15874996;-0.32500
15877773;-0.32000
15880551;-0.29500
15883329;-0.29000
15886107;-0.29000
15888884;-0.28500
15891662;-0.28500
15894440;-0.28000
15897218;-0.27000
15899996;-0.26500
15902773;-0.26500
15905551;-0.27000
15908329;-0.27000
15911107;-0.26500
15913884;-0.26000
15916662;-0.24500
15919440;-0.23500
15922218;-0.24500
15924996;-0.25500
15927773;-0.26000
15930551;-0.24500
15933329;-0.23500
15936107;-0.23500
15938884;-0.24500
15941662;-0.26000
15944440;-0.25000
15947218;-0.24500
15949996;-0.24000
15952773;-0.24500
15955551;-0.24500
15958329;-0.25500
15961107;-0.26500
15963884;-0.25000
15966662;-0.25000
15969440;-0.25000
15972218;-0.26500
15974996;-0.27500
15977773;-0.28000
15980551;-0.28500
15983329;-0.25500
15986107;-0.26000
15988884;-0.27000
15991662;-0.28500
15994440;-0.27500
15997218;-0.27500
15999996;-0.26500
16002773;-0.26000
16005551;-0.26500
16008329;-0.28000
16011107;-0.27000
16013884;-0.26500
16016662;-0.25500
16019440;-0.25500
16022218;-0.27000
16024996;-0.28500
16027773;-0.28500
16030551;-0.28000
16033329;-0.26000
16036107;-0.27000
16038884;-0.28000
16041662;-0.28500
16044440;-0.29000
16047218;-0.29000
16049996;-0.28000
16052773;-0.28000
16055551;-0.29000
16058329;-0.30000
16061107;-0.30500
16063884;-0.28500
16066662;-0.27500
16069440;-0.28000
16072218;-0.28000
16074995;-0.29000
16077773;-0.29000
16080551;-0.27500
16083329;-0.27000
16086107;-0.27000
16088884;-0.28000
16091662;-0.29000
16094440;-0.28500
16097218;-0.27000
16099995;-0.26500
16102773;-0.26000
16105551;-0.27500
16108329;-0.29000
16111107;-0.28500
16113884;-0.28500
16116662;-0.26000
16119440;-0.27000
16122218;-0.28500
16124995;-0.28500
16127773;-0.29000
16130551;-0.28500
16133329;-0.27000
16136107;-0.28000
16138884;-0.27500
16141662;-0.28000
16144440;-0.28000
16147218;-0.27500
16149995;-0.26000
16152773;-0.27000
16155551;-0.27000
16158329;-0.27500
16161107;-0.28500
16163884;-0.28000
16166662;-0.27000
16169440;-0.26500
16172218;-0.27000
16174995;-0.27000
16177773;-0.26500
16180551;-0.25500
16183329;-0.24000
16186107;-0.24500
16188884;-0.24500
16191662;-0.25000
16194440;-0.24000
16197218;-0.22500
16199995;-0.20000
16202773;-0.21000
16205551;-0.20000
16208329;-0.21000
16211107;-0.20500
16213884;-0.18500
16216662;-0.17500
16219440;-0.16500
16222218;-0.16500
16224995;-0.17000
16227773;-0.16500
16230551;-0.14500
16233329;-0.14500
16236107;-0.15500
16238884;-0.17500
16241662;-0.18000
16244440;-0.19000
16247218;-0.19000
16249995;-0.16500
16252773;-0.17000
16255551;-0.18500
16258329;-0.21000
16261107;-0.21500
16263884;-0.18000
16266662;-0.15000
16269440;-0.15000
16272218;-0.17000
16274995;-0.22000
16277773;-0.23500
16280551;-0.23500
16283329;-0.22500
16286107;-0.24500
16288884;-0.26000
16291662;-0.28000
16294440;-0.28500
16297218;-0.27500
16299995;-0.28000
16302773;-0.27500
16305551;-0.28000
16308329;-0.29500
16311107;-0.29500
16313884;-0.29000
16316662;-0.28500
16319440;-0.28500
16322218;-0.29000
16324995;-0.31000
16327773;-0.30000
16330551;-0.29000
16333329;-0.29500
16336107;-0.29000
16338884;-0.32000
16341662;-0.32000
16344440;-0.31500
16347218;-0.30000
16349995;-0.28500
16352773;-0.30000
16355551;-0.30500
16358329;-0.34000
16361107;-0.38000
16363884;-0.40500
16366662;-0.41000
16369440;-0.41000
16372218;-0.42000
16374995;-0.44500
16377773;-0.46500
16380551;-0.51000
16383329;-0.53000
16386107;-0.51000
16388884;-0.47500
16391662;-0.39000
16394440;-0.25000
16397218;-0.08000
16399995;0.09500
16402773;0.32000
16405551;0.57500
16408329;0.82000
16411107;1.00500
16413884;1.11000
16416662;1.05500
16419440;0.78000
16422218;0.34500
16424995;-0.12000
16427773;-0.39500
16430551;-0.44500
16433329;-0.39500
16436107;-0.34000
16438884;-0.31000
16441662;-0.33000
16444440;-0.35500
16447218;-0.35000
16449995;-0.33000
16452773;-0.34500
16455551;-0.35000
16458329;-0.37000
16461107;-0.37000
16463884;-0.36500
16466662;-0.36000
16469440;-0.34000
16472218;-0.35000
16474995;-0.36500
16477773;-0.35000
16480551;-0.35500
16483329;-0.34500
16486106;-0.35000
16488884;-0.35500
16491662;-0.37000
16494440;-0.35500
16497218;-0.35500
16499995;-0.33500
16502773;-0.34000
16505551;-0.34500
16508329;-0.36000
16511106;-0.36500
16513884;-0.35500
16516662;-0.36000
16519440;-0.36500
16522218;-0.36500
16524995;-0.38000
16527773;-0.36500
16530551;-0.36500
16533329;-0.36000
16536106;-0.36000
16538884;-0.37000
16541662;-0.37000
16544440;-0.36000
16547218;-0.35500
16549995;-0.35000
16552773;-0.35000
16555551;-0.35500
16558329;-0.36500
16561106;-0.36500
16563884;-0.36000
16566662;-0.35500
16569440;-0.35000
16572218;-0.36000
16574995;-0.36000
16577773;-0.35500
16580551;-0.35500
16583329;-0.34000
16586106;-0.34500
16588884;-0.34500
16591662;-0.37000
16594440;-0.36000
16597218;-0.36500
16599995;-0.36500
16602773;-0.35000
16605551;-0.36500
16608329;-0.38500
16611106;-0.38000
16613884;-0.37000
16616662;-0.36000
16619440;-0.37000
16622218;-0.37500
16624995;-0.38500
16627773;-0.37000
16630551;-0.37000
16633329;-0.36000
16636106;-0.36500
16638884;-0.37500
16641662;-0.38500
16644440;-0.38500
16647218;-0.37000
16649995;-0.37000
16652773;-0.36500
16655551;-0.36500
16658329;-0.38500
16661106;-0.38000
16663884;-0.36000
16666662;-0.37000
16669440;-0.37500
16672218;-0.38500
16674995;-0.39500
16677773;-0.38500
16680551;-0.37000
16683329;-0.36500
16686106;-0.36500
16688884;-0.35500
16691662;-0.35000
16694440;-0.33000
16697218;-0.30500
16699995;-0.30000
16702773;-0.27500
16705551;-0.27500
16708329;-0.28500
16711106;-0.27500
16713884;-0.26500
16716662;-0.24000
16719440;-0.23500
16722218;-0.24000
16724995;-0.24500
16727773;-0.24500
16730551;-0.23000
16733329;-0.23000
16736106;-0.23000
16738884;-0.24000
16741662;-0.25500
16744440;-0.25000
16747218;-0.23500
16749995;-0.23500
16752773;-0.23500
16755551;-0.24500
16758329;-0.25000
16761106;-0.25500
16763884;-0.24000
16766662;-0.23000
16769440;-0.23500
16772218;-0.23500
16774995;-0.25500
16777773;-0.25000
16780551;-0.25000
16783329;-0.23500
16786106;-0.24000
16788884;-0.24000
16791662;-0.26000
16794440;-0.26000
16797218;-0.24500
16799995;-0.23500
16802773;-0.23500
16805551;-0.24500
16808329;-0.25500
16811106;-0.25000
16813884;-0.26000
16816662;-0.25500
16819440;-0.26000
16822218;-0.27000
16824995;-0.28000
16827773;-0.28000
16830551;-0.27500
16833329;-0.27000
16836106;-0.26500
16838884;-0.27500
16841662;-0.27500
16844440;-0.27500
16847218;-0.26500
16849995;-0.26000
16852773;-0.26000
16855551;-0.28500
16858329;-0.29000
16861106;-0.29000
16863884;-0.28500
16866662;-0.28500
16869440;-0.28000
16872217;-0.28000
16874995;-0.29500
16877773;-0.30000
16880551;-0.28000
16883329;-0.27500
16886106;-0.28500
16888884;-0.29500
16891662;-0.31000
16894440;-0.31000
16897217;-0.30500
16899995;-0.29000
16902773;-0.28500
16905551;-0.30000
16908329;-0.32000
16911106;-0.30000
16913884;-0.30500
16916662;-0.28500
16919440;-0.28500
16922217;-0.29000
16924995;-0.30000
16927773;-0.29500
16930551;-0.28500
16933329;-0.27500
16936106;-0.27500
16938884;-0.29500
16941662;-0.29000
16944440;-0.29500
16947217;-0.29000
16949995;-0.27000
16952773;-0.28000
16955551;-0.29000
16958329;-0.30500
16961106;-0.30000
16963884;-0.29500
16966662;-0.29000
16969440;-0.29000
16972217;-0.29500
16974995;-0.30500
16977773;-0.30500
16980551;-0.29500
16983329;-0.29000
16986106;-0.29500
16988884;-0.30000
16991662;-0.30500
16994440;-0.30500
16997217;-0.29000
16999995;-0.28500
17002773;-0.27500
17005551;-0.28500
17008329;-0.27000
17011106;-0.25000
17013884;-0.23500
17016662;-0.21500
17019440;-0.22500
17022217;-0.22500
17024995;-0.23500
17027773;-0.21500
17030551;-0.20500
17033329;-0.19000
17036106;-0.19500
17038884;-0.18500
17041662;-0.20000
17044440;-0.20000
17047217;-0.20000
17049995;-0.18500
17052773;-0.20500
17055551;-0.21500
17058329;-0.22500
17061106;-0.22500
17063884;-0.22000
17066662;-0.22500
17069440;-0.22500
17072217;-0.22000
17074995;-0.21500
17077773;-0.19500
17080551;-0.18500
17083329;-0.21000
17086106;-0.23500
17088884;-0.25000
17091662;-0.26500
17094440;-0.28500
17097217;-0.30000
17099995;-0.28500
17102773;-0.30000
17105551;-0.30500
17108329;-0.33000
17111106;-0.33500
17113884;-0.31000
17116662;-0.31500
17119440;-0.30500
17122217;-0.32000
17124995;-0.32500
17127773;-0.34000
17130551;-0.32000
17133329;-0.33000
17136106;-0.33000
17138884;-0.34000
17141662;-0.35000
17144440;-0.37000
17147217;-0.34500
17149995;-0.33500
17152773;-0.33500
17155551;-0.35000
17158329;-0.34500
17161106;-0.35500
17163884;-0.34500
17166662;-0.34000
17169440;-0.34500
17172217;-0.38500
17174995;-0.44000
17177773;-0.46500
17180551;-0.48000
17183329;-0.50000
17186106;-0.53500
17188884;-0.52500
17191662;-0.43000
17194440;-0.27500
17197217;-0.08500
17199995;0.09500
17202773;0.35500
17205551;0.62500
17208329;0.85500
17211106;0.96500
17213884;0.96500
17216662;0.77000
17219440;0.36500
17222217;-0.08500
17224995;-0.39000
17227773;-0.48500
17230551;-0.45500
17233329;-0.38000
17236106;-0.34500
17238884;-0.35000
17241662;-0.37500
17244440;-0.37500
17247217;-0.36500
17249995;-0.35500
17252773;-0.36500
17255551;-0.37500
17258329;-0.38000
17261106;-0.38000
17263884;-0.37000
17266662;-0.36000
17269440;-0.38500
17272217;-0.37500
17274995;-0.39000
17277773;-0.38500
17280551;-0.38000
17283328;-0.37500
17286106;-0.36500
17288884;-0.38500
17291662;-0.39000
17294440;-0.39500
17297217;-0.37500
17299995;-0.36500
17302773;-0.36000
17305551;-0.36000
17308328;-0.37500
17311106;-0.37500
17313884;-0.36500
17316662;-0.35000
17319440;-0.36500
17322217;-0.36500
17324995;-0.37500
17327773;-0.38000
17330551;-0.36000
17333328;-0.36000
17336106;-0.37000
17338884;-0.38000
17341662;-0.38000
17344440;-0.37500
17347217;-0.37500
17349995;-0.36500
17352773;-0.36500
17355551;-0.38000
17358328;-0.38500
17361106;-0.38500
17363884;-0.38500
17366662;-0.37500
17369440;-0.38000
17372217;-0.37500
17374995;-0.38500
17377773;-0.38500
17380551;-0.36500
17383328;-0.35500
17386106;-0.36500
17388884;-0.37500
17391662;-0.37500
17394440;-0.37500
17397217;-0.37000
17399995;-0.37000
17402773;-0.36500
17405551;-0.37500
17408328;-0.38000
17411106;-0.39000
17413884;-0.37000
17416662;-0.36000
17419440;-0.36000
17422217;-0.38000
17424995;-0.38500
17427773;-0.39500
17430551;-0.38500
17433328;-0.38000
17436106;-0.38000
17438884;-0.40000
17441662;-0.40500
17444440;-0.40000
17447217;-0.40000
17449995;-0.39000
17452773;-0.38500
17455551;-0.39000
17458328;-0.39500
17461106;-0.39000
17463884;-0.38000
17466662;-0.37000
17469440;-0.38000
17472217;-0.38000
17474995;-0.39500
17477773;-0.39000
17480551;-0.38000
17483328;-0.38000
17486106;-0.37500
17488884;-0.38000
17491662;-0.38500
17494440;-0.38500
17497217;-0.37500
17499995;-0.34500
17502773;-0.36000
17505551;-0.35500
17508328;-0.36000
17511106;-0.35000
17513884;-0.32500
17516662;-0.31000
17519440;-0.30000
17522217;-0.29000
17524995;-0.30500
17527773;-0.29000
17530551;-0.27500
17533328;-0.27000
17536106;-0.26500
17538884;-0.26000
17541662;-0.26500
17544440;-0.26500
17547217;-0.25500
17549995;-0.25000
17552773;-0.26000
17555551;-0.25500
17558328;-0.26500
17561106;-0.26500
17563884;-0.26000
17566662;-0.25500
17569440;-0.25000
17572217;-0.25500
17574995;-0.27000
17577773;-0.26500
17580551;-0.26000
17583328;-0.25000
17586106;-0.26500
17588884;-0.26500
17591662;-0.27000
17594440;-0.27500
17597217;-0.25500
17599995;-0.24500
17602773;-0.25000
17605551;-0.26000
17608328;-0.27500
17611106;-0.27000
17613884;-0.26000
17616662;-0.26000
17619440;-0.27000
17622217;-0.27500
17624995;-0.29000
17627773;-0.28500
17630551;-0.28000
17633328;-0.26500
17636106;-0.28000
17638884;-0.27500
17641662;-0.29500
17644440;-0.30000
17647217;-0.28500
17649995;-0.28500
17652773;-0.29000
17655551;-0.30500
17658328;-0.31500
17661106;-0.29500
17663884;-0.29000
17666662;-0.28000
17669439;-0.29000
17672217;-0.28500
17674995;-0.30500
17677773;-0.30000
17680551;-0.29500
17683328;-0.28500
17686106;-0.29500
17688884;-0.31000
17691662;-0.31000
17694439;-0.31500
17697217;-0.31000
17699995;-0.30000
17702773;-0.31000
17705551;-0.31500
17708328;-0.32500
17711106;-0.32000
17713884;-0.31500
17716662;-0.31500
17719439;-0.31500
17722217;-0.30500
17724995;-0.31000
17727773;-0.31500
17730551;-0.30500
17733328;-0.30000
17736106;-0.30500
17738884;-0.30500
17741662;-0.30500
17744439;-0.31500
17747217;-0.30000
17749995;-0.29500
17752773;-0.29500
17755551;-0.30500
17758328;-0.30000
17761106;-0.30500
17763884;-0.30000
17766662;-0.29500
17769439;-0.31000
17772217;-0.31000
17774995;-0.31000
17777773;-0.32000
17780551;-0.30000
17783328;-0.30500
17786106;-0.29500
17788884;-0.30500
17791662;-0.29000
17794439;-0.29000
17797217;-0.28000
17799995;-0.27500
17802773;-0.26500
17805551;-0.28500
17808328;-0.29000
17811106;-0.29000
17813884;-0.27500
17816662;-0.25000
17819439;-0.25500
17822217;-0.23500
17824995;-0.24000
17827773;-0.24000
17830551;-0.23000
17833328;-0.22500
17836106;-0.22500
17838884;-0.22500
17841662;-0.21000
17844439;-0.21500
17847217;-0.19000
17849995;-0.17500
17852773;-0.18500
17855551;-0.18000
17858328;-0.19500
17861106;-0.21000
17863884;-0.21000
17866662;-0.21000
17869439;-0.20500
17872217;-0.20000
17874995;-0.21000
17877773;-0.22000
17880551;-0.22500
17883328;-0.20000
17886106;-0.18000
17888884;-0.17500
17891662;-0.19500
17894439;-0.23000
17897217;-0.25000
17899995;-0.26000
17902773;-0.27000
17905551;-0.29000
17908328;-0.30500
17911106;-0.32000
17913884;-0.31000
17916662;-0.30500
17919439;-0.32000
17922217;-0.31500
17924995;-0.32000
17927773;-0.32000
17930551;-0.31500
17933328;-0.29500
17936106;-0.30500
17938884;-0.30500
17941662;-0.32000
17944439;-0.32000
17947217;-0.32000
17949995;-0.31500
17952773;-0.31000
17955551;-0.32000
17958328;-0.32500
17961106;-0.31000
17963884;-0.30500
17966662;-0.30000
17969439;-0.31000
17972217;-0.31000
17974995;-0.32500
17977773;-0.33000
17980551;-0.33500
17983328;-0.35500
17986106;-0.41000
17988884;-0.44500
17991662;-0.46000
17994439;-0.50000
17997217;-0.53500
17999995;-0.52500
18002773;-0.45000
18005551;-0.33500
18008328;-0.18000
18011106;-0.02000
18013884;0.23000
18016662;0.51500
18019439;0.76500
18022217;0.94500
18024995;1.03000
18027773;1.03000
18030551;0.94500
18033328;0.74000
18036106;0.40000
18038884;0.06500
18041662;-0.23000
18044439;-0.40500
18047217;-0.47000
18049995;-0.43500
18052773;-0.39500
18055550;-0.35500
18058328;-0.35000
18061106;-0.35000
18063884;-0.36000
18066662;-0.34000
18069439;-0.34000
18072217;-0.34500
18074995;-0.35500
18077773;-0.36000
18080550;-0.35000
18083328;-0.33500
18086106;-0.33500
18088884;-0.34000
18091662;-0.35000
18094439;-0.36000
18097217;-0.36000
18099995;-0.35500
18102773;-0.35500
18105550;-0.36000
18108328;-0.36500
18111106;-0.37500
18113884;-0.36500
18116662;-0.35000
18119439;-0.35000
18122217;-0.37000
18124995;-0.36500
18127773;-0.37000
18130550;-0.37000
18133328;-0.34500
18136106;-0.36000
18138884;-0.36000
18141662;-0.37000
18144439;-0.37000
18147217;-0.36000
18149995;-0.34000
18152773;-0.34000
18155550;-0.34500
18158328;-0.36000
18161106;-0.35500
18163884;-0.35000
18166662;-0.34500
18169439;-0.35000
18172217;-0.36000
18174995;-0.36000
18177773;-0.37000
18180550;-0.36500
18183328;-0.35000
18186106;-0.34000
18188884;-0.34500
18191662;-0.37500
18194439;-0.39500
18197217;-0.38000
18199995;-0.37500
18202773;-0.38000
18205550;-0.37000
18208328;-0.37500
18211106;-0.36000
18213884;-0.35500
18216662;-0.34500
18219439;-0.34000
18222217;-0.35000
18224995;-0.36000
18227773;-0.36000
18230550;-0.36500
18233328;-0.36000
18236106;-0.35000
18238884;-0.35000
18241662;-0.36000
18244439;-0.36500
18247217;-0.35000
18249995;-0.34500
18252773;-0.34500
18255550;-0.36500
18258328;-0.37500
18261106;-0.37500
18263884;-0.38000
18266662;-0.37000
18269439;-0.37000
18272217;-0.39000
18274995;-0.39000
18277773;-0.38500
18280550;-0.37500
18283328;-0.36500
18286106;-0.37500
18288884;-0.36000
18291662;-0.38000
18294439;-0.38000
18297217;-0.38000
18299995;-0.36000
18302773;-0.36500
18305550;-0.36000
18308328;-0.37000
18311106;-0.37000
18313884;-0.35000
18316662;-0.33500
18319439;-0.32500
18322217;-0.33500
18324995;-0.34000
18327773;-0.32000
18330550;-0.30000
18333328;-0.29500
18336106;-0.29500
18338884;-0.29000
18341662;-0.29000
18344439;-0.28000
18347217;-0.27000
18349995;-0.26000
18352773;-0.25500
18355550;-0.25500
18358328;-0.27500
18361106;-0.28000
18363884;-0.25000
18366662;-0.23000
18369439;-0.23000
18372217;-0.25000
18374995;-0.26000
18377773;-0.26500
18380550;-0.25500
18383328;-0.26000
18386106;-0.26000
18388884;-0.25000
18391662;-0.26000
18394439;-0.26500
18397217;-0.26500
18399995;-0.26000
18402773;-0.27000
18405550;-0.28500
18408328;-0.28500
18411106;-0.29000
18413884;-0.28000
18416662;-0.27500
18419439;-0.28000
18422217;-0.27500
18424995;-0.28500
18427773;-0.29000
18430550;-0.28000
18433328;-0.27000
18436106;-0.28000
18438884;-0.28500
18441662;-0.28500
18444439;-0.28000
18447217;-0.28500
18449995;-0.28500
18452773;-0.28500
18455550;-0.29500
18458328;-0.30000
18461106;-0.30500
18463884;-0.28500
18466661;-0.29000
18469439;-0.28500
18472217;-0.30500
18474995;-0.32000
18477773;-0.33000
18480550;-0.32000
18483328;-0.31000
18486106;-0.31000
18488884;-0.33000
18491661;-0.32500
18494439;-0.33000
18497217;-0.32000
18499995;-0.30500
18502773;-0.31000
18505550;-0.33500
18508328;-0.34000
18511106;-0.34000
18513884;-0.33500
18516661;-0.31500
18519439;-0.31000
18522217;-0.33000
18524995;-0.34000
18527773;-0.34500
18530550;-0.33000
18533328;-0.31500
18536106;-0.31500
18538884;-0.32000
18541661;-0.33000
18544439;-0.33500
18547217;-0.31500
18549995;-0.30500
18552773;-0.30000
18555550;-0.31000
18558328;-0.33000
18561106;-0.34500
18563884;-0.34000
18566661;-0.34000
18569439;-0.33500
18572217;-0.35000
18574995;-0.33500
18577773;-0.33000
18580550;-0.31000
18583328;-0.31000
18586106;-0.31500
18588884;-0.32500
18591661;-0.32000
18594439;-0.33000
18597217;-0.32500
18599995;-0.31500
18602773;-0.30500
18605550;-0.30000
18608328;-0.29000
18611106;-0.28500
18613884;-0.26500
18616661;-0.25500
18619439;-0.25500
18622217;-0.26500
18624995;-0.28000
18627773;-0.27500
18630550;-0.25000
18633328;-0.22500
18636106;-0.22000
18638884;-0.21000
18641661;-0.21500
18644439;-0.22500
18647217;-0.24000
18649995;-0.23000
18652773;-0.24000
18655550;-0.25500
18658328;-0.25000
18661106;-0.25500
18663884;-0.25000
18666661;-0.25000
18669439;-0.23500
18672217;-0.24500
18674995;-0.23000
18677773;-0.23500
18680550;-0.23500
18683328;-0.25500
18686106;-0.30000
18688884;-0.31000
18691661;-0.33500
18694439;-0.34500
18697217;-0.36000
18699995;-0.34000
18702773;-0.36000
18705550;-0.36000
18708328;-0.36500
18711106;-0.37000
18713884;-0.36000
18716661;-0.34500
18719439;-0.35000
18722217;-0.35000
18724995;-0.36000
18727773;-0.37500
18730550;-0.37000
18733328;-0.35500
18736106;-0.36000
18738884;-0.37000
18741661;-0.38000
18744439;-0.39000
18747217;-0.38000
18749995;-0.37000
18752773;-0.36000
18755550;-0.36000
18758328;-0.37000
18761106;-0.38000
18763884;-0.38000
18766661;-0.40000
18769439;-0.44500
18772217;-0.46500
18774995;-0.47000
18777773;-0.52000
18780550;-0.56500
18783328;-0.60000
18786106;-0.60000
18788884;-0.57000
18791661;-0.53500
18794439;-0.48000
18797217;-0.36000
18799995;-0.23500
18802773;-0.10500
18805550;0.05500
18808328;0.27000
18811106;0.51500
18813884;0.74000
18816661;0.87000
18819439;0.84000
18822217;0.62000
18824995;0.26500
18827773;-0.12500
18830550;-0.37500
18833328;-0.47500
18836106;-0.50500
18838884;-0.48500
18841661;-0.45500
18844439;-0.42500
18847217;-0.41000
18849995;-0.39500
18852772;-0.39500
18855550;-0.40000
18858328;-0.41000
18861106;-0.42000
18863884;-0.41000
18866661;-0.41500
18869439;-0.43500
18872217;-0.42500
18874995;-0.43000
18877772;-0.42500
18880550;-0.41000
18883328;-0.40500
18886106;-0.40500
18888884;-0.42500
18891661;-0.42500
18894439;-0.41500
18897217;-0.41000
18899995;-0.39500
18902772;-0.40500
18905550;-0.42500
18908328;-0.44000
18911106;-0.43500
18913884;-0.43000
18916661;-0.42500
18919439;-0.42000
18922217;-0.42500
18924995;-0.42500
18927772;-0.42500
18930550;-0.43500
18933328;-0.42500
18936106;-0.42000
18938884;-0.42000
18941661;-0.42000
18944439;-0.42000
18947217;-0.41000
18949995;-0.40500
18952772;-0.42000
18955550;-0.42500
18958328;-0.43000
18961106;-0.42500
18963884;-0.42500
18966661;-0.42000
18969439;-0.42000
18972217;-0.42500
18974995;-0.43000
18977772;-0.42500
18980550;-0.41000
18983328;-0.41000
18986106;-0.41500
18988884;-0.42000
18991661;-0.42500
18994439;-0.44000
18997217;-0.43000
18999995;-0.42000
19002772;-0.41500
19005550;-0.42500
19008328;-0.43500
19011106;-0.43500
19013884;-0.43000
19016661;-0.42000
19019439;-0.42000
19022217;-0.43000
19024995;-0.43500
19027772;-0.44000
19030550;-0.43000
19033328;-0.42000
19036106;-0.44000
19038884;-0.44000
19041661;-0.45000
19044439;-0.46500
19047217;-0.46000
19049995;-0.45500
19052772;-0.46000
19055550;-0.46000
19058328;-0.46500
19061106;-0.47000
19063884;-0.48000
19066661;-0.48000
19069439;-0.47500
19072217;-0.47500
19074995;-0.47000
19077772;-0.48500
19080550;-0.47000
19083328;-0.47000
19086106;-0.47000
19088884;-0.48500
19091661;-0.47500
19094439;-0.50000
19097217;-0.49000
19099995;-0.47000
19102772;-0.47500
19105550;-0.45500
19108328;-0.46500
19111106;-0.43500
19113884;-0.41000
19116661;-0.40000
19119439;-0.39000
19122217;-0.39000
19124995;-0.39000
19127772;-0.37000
19130550;-0.35000
19133328;-0.33000
19136106;-0.33000
19138884;-0.33500
19141661;-0.35500
19144439;-0.33500
19147217;-0.32000
19149995;-0.30000
19152772;-0.29500
19155550;-0.30000
19158328;-0.30500
19161106;-0.31500
19163884;-0.31000
