time_ms;ecg_value
0;-0.49500
2778;-0.49000
5556;-0.50000
8333;-0.50500
11111;-0.49500
13889;-0.48500
16667;-0.46500
19444;-0.44500
22222;-0.43500
25000;-0.40500
27778;-0.40500
30556;-0.40500
33333;-0.39000
36111;-0.37500
38889;-0.36500
41667;-0.37000
44444;-0.36500
47222;-0.36500
50000;-0.34500
52778;-0.32500
55556;-0.34000
58333;-0.35000
61111;-0.36000
63889;-0.35000
66667;-0.33500
69444;-0.33000
72222;-0.33500
75000;-0.35000
77778;-0.34500
80556;-0.35500
83333;-0.34500
86111;-0.35000
88889;-0.33500
91667;-0.35000
94444;-0.36000
97222;-0.35500
100000;-0.34500
102778;-0.34000
105556;-0.33500
108333;-0.33000
111111;-0.34500
113889;-0.34000
116667;-0.33500
119444;-0.34000
122222;-0.34000
125000;-0.35500
127778;-0.36000
130556;-0.36000
133333;-0.35000
136111;-0.34000
138889;-0.34500
141667;-0.37000
144444;-0.37000
147222;-0.36500
150000;-0.35000
152778;-0.35000
155556;-0.35000
158333;-0.36000
161111;-0.36500
163889;-0.37000
166667;-0.36000
169444;-0.36000
172222;-0.36000
175000;-0.36500
177778;-0.38000
180556;-0.38500
183333;-0.36500
186111;-0.35500
188889;-0.36000
191667;-0.36000
194444;-0.36500
197222;-0.36000
200000;-0.37000
202778;-0.35500
205555;-0.35500
208333;-0.37000
211111;-0.38000
213889;-0.38500
216667;-0.37000
219444;-0.37000
222222;-0.36000
225000;-0.37000
227778;-0.37000
230555;-0.37000
233333;-0.35500
236111;-0.34500
238889;-0.32000
241667;-0.32000
244444;-0.33500
247222;-0.32500
250000;-0.29500
252778;-0.28500
255555;-0.27000
258333;-0.27500
261111;-0.27500
263889;-0.27500
266667;-0.25500
269444;-0.23000
272222;-0.22500
275000;-0.23000
277778;-0.22500
280555;-0.22000
283333;-0.20500
286111;-0.20500
288889;-0.21000
291667;-0.23000
294444;-0.25000
297222;-0.25500
300000;-0.23000
302778;-0.21500
305555;-0.21000
308333;-0.23000
311111;-0.23000
313889;-0.22500
316667;-0.21500
319444;-0.17500
322222;-0.16500
325000;-0.18500
327778;-0.23000
330555;-0.26500
333333;-0.27500
336111;-0.27000
338889;-0.28000
341667;-0.30000
344444;-0.32500
347222;-0.34000
350000;-0.34000
352778;-0.34500
355555;-0.35000
358333;-0.36000
361111;-0.35500
363889;-0.35500
366667;-0.35000
369444;-0.34500
372222;-0.35000
375000;-0.36500
377778;-0.36000
380555;-0.35500
383333;-0.35500
386111;-0.35000
388889;-0.35000
391667;-0.34500
394444;-0.35500
397222;-0.35500
400000;-0.35500
402778;-0.35500
405555;-0.35500
408333;-0.36000
411111;-0.36000
413889;-0.37000
416667;-0.38500
419444;-0.41000
422222;-0.44000
425000;-0.45500
427778;-0.46000
430555;-0.46500
433333;-0.48000
436111;-0.48500
438889;-0.52500
441667;-0.53500
444444;-0.47500
447222;-0.33500
450000;-0.15500
452778;0.05500
455555;0.29000
458333;0.56000
461111;0.83000
463889;1.01000
466667;1.08000
469444;0.97500
472222;0.63500
475000;0.14500
477778;-0.25000
480555;-0.47500
483333;-0.49500
486111;-0.42000
488889;-0.37500
491667;-0.35500
494444;-0.35500
497222;-0.36000
500000;-0.34500
502778;-0.34000
505555;-0.33500
508333;-0.33500
511111;-0.35500
513889;-0.36500
516667;-0.35500
519444;-0.37000
522222;-0.34500
525000;-0.35000
527778;-0.36000
530555;-0.36500
533333;-0.35000
536111;-0.34000
538889;-0.33500
541667;-0.34500
544444;-0.34000
547222;-0.35500
550000;-0.34500
552778;-0.33500
555555;-0.34000
558333;-0.34000
561111;-0.34500
563889;-0.35000
566667;-0.33500
569444;-0.32500
572222;-0.33000
575000;-0.33500
577778;-0.33500
580555;-0.33000
583333;-0.33000
586111;-0.32000
588889;-0.30500
591667;-0.31000
594444;-0.32500
597222;-0.32500
600000;-0.32500
602778;-0.30500
605555;-0.29500
608333;-0.30500
611111;-0.30000
613889;-0.30500
616666;-0.30500
619444;-0.28500
622222;-0.29500
625000;-0.30500
627778;-0.31000
630555;-0.31000
633333;-0.30000
636111;-0.30000
638889;-0.30500
641666;-0.31000
644444;-0.32000
647222;-0.32000
650000;-0.30500
652778;-0.30000
655555;-0.30000
658333;-0.30500
661111;-0.30000
663889;-0.31500
666666;-0.30500
669444;-0.29500
672222;-0.30000
675000;-0.30000
677778;-0.30500
680555;-0.30500
683333;-0.31000
686111;-0.30500
688889;-0.29000
691666;-0.31000
694444;-0.31500
697222;-0.32000
700000;-0.31500
702778;-0.31000
705555;-0.32000
708333;-0.32500
711111;-0.33000
713889;-0.34000
716666;-0.33500
719444;-0.33000
722222;-0.32500
725000;-0.33000
727778;-0.33000
730555;-0.33000
733333;-0.32500
736111;-0.31000
738889;-0.30500
741666;-0.30000
744444;-0.30000
747222;-0.29500
750000;-0.28000
752778;-0.25500
755555;-0.24500
758333;-0.23500
761111;-0.24000
763889;-0.23500
766666;-0.21500
769444;-0.20000
772222;-0.19000
775000;-0.20000
777778;-0.20500
780555;-0.21500
783333;-0.21000
786111;-0.19500
788889;-0.20000
791666;-0.20000
794444;-0.20500
797222;-0.20500
800000;-0.19500
802778;-0.19000
805555;-0.19000
808333;-0.19500
811111;-0.19500
813889;-0.21000
816666;-0.18500
819444;-0.19000
822222;-0.17500
825000;-0.18500
827778;-0.20000
830555;-0.21000
833333;-0.19500
836111;-0.19000
838889;-0.18500
841666;-0.19000
844444;-0.19500
847222;-0.20500
850000;-0.18000
852778;-0.18000
855555;-0.19000
858333;-0.19000
861111;-0.21500
863889;-0.21000
866666;-0.19500
869444;-0.20500
872222;-0.19500
875000;-0.21000
877778;-0.21500
880555;-0.22500
883333;-0.22000
886111;-0.21500
888889;-0.22500
891666;-0.22500
894444;-0.23000
897222;-0.23500
900000;-0.23000
902778;-0.22000
905555;-0.22500
908333;-0.22500
911111;-0.23000
913889;-0.24000
916666;-0.23500
919444;-0.22500
922222;-0.22500
925000;-0.23000
927778;-0.23500
930555;-0.24500
933333;-0.23500
936111;-0.23000
938889;-0.24000
941666;-0.24000
944444;-0.24500
947222;-0.23500
950000;-0.22500
952778;-0.20500
955555;-0.19500
958333;-0.20000
961111;-0.19500
963889;-0.18500
966666;-0.16500
969444;-0.15000
972222;-0.15000
975000;-0.14500
977778;-0.15500
980555;-0.14500
983333;-0.12500
986111;-0.12500
988889;-0.11500
991666;-0.11500
994444;-0.13000
997222;-0.12500
1000000;-0.13000
1002777;-0.12500
1005555;-0.12000
1008333;-0.11500
1011111;-0.12500
1013889;-0.13000
1016666;-0.11000
1019444;-0.09500
1022222;-0.07500
1025000;-0.07000
1027777;-0.08000
1030555;-0.11500
1033333;-0.13000
1036111;-0.15500
1038889;-0.16500
1041666;-0.18500
1044444;-0.18000
1047222;-0.20500
1050000;-0.20500
1052777;-0.21500
1055555;-0.23500
1058333;-0.24500
1061111;-0.26500
1063889;-0.26500
1066666;-0.26000
1069444;-0.26000
1072222;-0.25500
1075000;-0.25500
1077777;-0.27000
1080555;-0.27500
1083333;-0.26500
1086111;-0.25500
1088889;-0.25000
1091666;-0.26500
1094444;-0.27000
1097222;-0.27000
1100000;-0.26500
1102777;-0.26500
1105555;-0.27000
1108333;-0.27000
1111111;-0.28000
1113889;-0.29000
1116666;-0.27000
1119444;-0.26500
1122222;-0.27000
1125000;-0.28500
1127777;-0.30500
1130555;-0.34000
1133333;-0.37500
1136111;-0.38500
1138889;-0.41000
1141666;-0.43500
1144444;-0.47000
1147222;-0.48500
1150000;-0.42500
1152777;-0.30500
1155555;-0.16000
1158333;-0.02500
1161111;0.13500
1163889;0.34000
1166666;0.62000
1169444;0.87500
1172222;1.05000
1175000;1.12500
1177777;1.08000
1180555;0.84500
1183333;0.44000
1186111;0.02500
1188889;-0.28500
1191666;-0.42500
1194444;-0.40000
1197222;-0.35000
1200000;-0.28500
1202777;-0.25000
1205555;-0.25500
1208333;-0.26500
1211111;-0.27500
1213889;-0.28500
1216666;-0.27000
1219444;-0.25500
1222222;-0.26500
1225000;-0.26500
1227777;-0.27500
1230555;-0.28000
1233333;-0.26500
1236111;-0.26500
1238889;-0.26500
1241666;-0.27500
1244444;-0.28000
1247222;-0.28500
1250000;-0.27000
1252777;-0.27500
1255555;-0.27500
1258333;-0.27500
1261111;-0.28500
1263889;-0.28500
1266666;-0.28000
1269444;-0.27500
1272222;-0.28500
1275000;-0.29500
1277777;-0.30000
1280555;-0.29000
1283333;-0.28500
1286111;-0.26500
1288889;-0.28000
1291666;-0.28500
1294444;-0.28500
1297222;-0.29000
1300000;-0.28500
1302777;-0.27000
1305555;-0.27500
1308333;-0.27500
1311111;-0.27500
1313889;-0.27500
1316666;-0.26500
1319444;-0.25500
1322222;-0.26000
1325000;-0.26500
1327777;-0.27500
1330555;-0.28000
1333333;-0.27500
1336111;-0.26000
1338889;-0.27500
1341666;-0.26500
1344444;-0.27000
1347222;-0.28000
1350000;-0.26000
1352777;-0.25500
1355555;-0.26000
1358333;-0.26500
1361111;-0.26500
1363889;-0.27500
1366666;-0.26000
1369444;-0.26000
1372222;-0.25000
1375000;-0.26000
1377777;-0.25500
1380555;-0.26000
1383333;-0.24500
1386111;-0.24000
1388888;-0.24000
1391666;-0.24000
1394444;-0.25500
1397222;-0.25500
1400000;-0.24500
1402777;-0.24000
1405555;-0.24000
1408333;-0.25500
1411111;-0.26500
1413888;-0.27500
1416666;-0.27500
1419444;-0.26500
1422222;-0.26000
1425000;-0.26500
1427777;-0.27000
1430555;-0.28500
1433333;-0.27000
1436111;-0.26000
1438888;-0.25500
1441666;-0.27000
1444444;-0.26000
1447222;-0.26500
1450000;-0.26000
1452777;-0.25000
1455555;-0.24000
1458333;-0.24500
1461111;-0.24000
1463888;-0.24500
1466666;-0.23000
1469444;-0.21500
1472222;-0.21000
1475000;-0.22000
1477777;-0.22500
1480555;-0.21000
1483333;-0.20500
1486111;-0.19000
1488888;-0.18000
1491666;-0.19000
1494444;-0.19000
1497222;-0.20000
1500000;-0.18500
1502777;-0.18000
1505555;-0.19500
1508333;-0.19000
1511111;-0.18500
1513888;-0.19500
1516666;-0.17500
1519444;-0.17000
1522222;-0.16000
1525000;-0.17000
1527777;-0.19000
1530555;-0.19000
1533333;-0.17500
1536111;-0.16500
1538888;-0.16500
1541666;-0.16500
1544444;-0.17500
1547222;-0.17500
1550000;-0.17000
1552777;-0.17000
1555555;-0.16500
1558333;-0.18500
1561111;-0.19000
1563888;-0.19000
1566666;-0.18000
1569444;-0.18500
1572222;-0.18500
1575000;-0.18500
1577777;-0.19000
1580555;-0.19000
1583333;-0.18000
1586111;-0.19000
1588888;-0.19000
1591666;-0.19000
1594444;-0.20000
1597222;-0.20500
1600000;-0.19500
1602777;-0.17500
1605555;-0.18500
1608333;-0.19500
1611111;-0.20000
1613888;-0.21500
1616666;-0.19500
1619444;-0.19500
1622222;-0.19500
1625000;-0.20500
1627777;-0.22500
1630555;-0.23000
1633333;-0.22000
1636111;-0.21000
1638888;-0.22000
1641666;-0.22500
1644444;-0.24500
1647222;-0.25000
1650000;-0.22500
1652777;-0.23000
1655555;-0.22000
1658333;-0.23000
1661111;-0.22000
1663888;-0.23000
1666666;-0.23000
1669444;-0.22500
1672222;-0.22500
1675000;-0.23500
1677777;-0.23500
1680555;-0.23000
1683333;-0.21000
1686111;-0.21000
1688888;-0.20000
1691666;-0.19000
1694444;-0.20000
1697222;-0.19500
1700000;-0.18000
1702777;-0.16500
1705555;-0.16000
1708333;-0.16000
1711111;-0.16500
1713888;-0.16500
1716666;-0.15500
1719444;-0.14500
1722222;-0.15000
1725000;-0.15000
1727777;-0.14500
1730555;-0.14000
1733333;-0.11500
1736111;-0.11000
1738888;-0.12000
1741666;-0.09500
1744444;-0.09500
1747222;-0.10000
1750000;-0.10500
1752777;-0.12000
1755555;-0.11000
1758333;-0.13000
1761111;-0.14000
1763888;-0.13000
1766666;-0.11500
1769444;-0.10000
1772222;-0.09000
1775000;-0.07500
1777777;-0.07000
1780555;-0.10000
1783333;-0.12000
1786111;-0.15500
1788888;-0.17500
1791666;-0.18500
1794444;-0.20500
1797222;-0.21500
1799999;-0.21000
1802777;-0.22000
1805555;-0.22500
1808333;-0.24500
1811111;-0.26000
1813888;-0.26000
1816666;-0.25000
1819444;-0.24500
1822222;-0.25000
1824999;-0.25500
1827777;-0.27000
1830555;-0.27500
1833333;-0.27000
1836111;-0.26500
1838888;-0.26000
1841666;-0.27500
1844444;-0.27500
1847222;-0.29500
1849999;-0.28500
1852777;-0.27500
1855555;-0.27000
1858333;-0.28000
1861111;-0.29500
1863888;-0.30000
1866666;-0.28000
1869444;-0.28500
1872222;-0.29000
1874999;-0.31000
1877777;-0.32500
1880555;-0.35000
1883333;-0.38000
1886111;-0.37500
1888888;-0.38000
1891666;-0.38000
1894444;-0.41500
1897222;-0.45500
1899999;-0.50000
1902777;-0.50000
1905555;-0.44000
1908333;-0.34000
1911111;-0.22000
1913888;-0.08500
1916666;0.08500
1919444;0.30500
1922222;0.56000
1924999;0.78500
1927777;0.94000
1930555;1.02500
1933333;1.04500
1936111;0.90000
1938888;0.55500
1941666;0.09500
1944444;-0.27500
1947222;-0.45000
1949999;-0.46000
1952777;-0.41500
1955555;-0.34500
1958333;-0.31000
1961111;-0.31500
1963888;-0.31000
1966666;-0.30500
1969444;-0.29500
1972222;-0.29000
1974999;-0.31500
1977777;-0.32000
1980555;-0.34000
1983333;-0.34000
1986111;-0.32500
1988888;-0.32000
1991666;-0.32500
1994444;-0.33000
1997222;-0.33500
1999999;-0.33500
2002777;-0.33000
2005555;-0.32500
2008333;-0.33000
2011111;-0.34000
2013888;-0.35000
2016666;-0.33500
2019444;-0.33000
2022222;-0.32000
2024999;-0.32000
2027777;-0.33500
2030555;-0.34500
2033333;-0.32500
2036111;-0.31000
2038888;-0.31000
2041666;-0.32000
2044444;-0.33500
2047222;-0.35000
2049999;-0.35000
2052777;-0.34000
2055555;-0.33000
2058333;-0.33500
2061111;-0.33000
2063888;-0.33500
2066666;-0.33500
2069444;-0.32500
2072222;-0.33500
2074999;-0.35000
2077777;-0.35500
2080555;-0.35500
2083333;-0.34000
2086111;-0.32500
2088888;-0.32500
2091666;-0.32500
2094444;-0.33500
2097222;-0.35000
2099999;-0.34500
2102777;-0.33500
2105555;-0.35500
2108333;-0.35500
2111111;-0.36500
2113888;-0.37000
2116666;-0.35500
2119444;-0.34500
2122222;-0.34000
2124999;-0.33500
2127777;-0.33000
2130555;-0.35000
2133333;-0.35000
2136111;-0.34000
2138888;-0.32000
2141666;-0.33000
2144444;-0.34000
2147222;-0.36500
2149999;-0.34000
2152777;-0.34500
2155555;-0.35000
2158333;-0.34500
2161111;-0.35500
2163888;-0.36000
2166666;-0.36500
2169444;-0.35000
2172222;-0.36000
2174999;-0.37500
2177777;-0.40000
2180555;-0.41000
2183333;-0.40500
2186110;-0.38000
2188888;-0.37000
2191666;-0.36500
2194444;-0.37000
2197222;-0.38500
2199999;-0.38000
2202777;-0.37000
2205555;-0.36500
2208333;-0.37500
2211110;-0.38500
2213888;-0.39500
2216666;-0.39000
2219444;-0.37500
2222222;-0.36000
2224999;-0.34000
2227777;-0.34000
2230555;-0.33500
2233333;-0.31500
2236110;-0.30000
2238888;-0.29500
2241666;-0.30000
2244444;-0.29500
2247222;-0.29000
2249999;-0.28000
2252777;-0.28000
2255555;-0.29000
2258333;-0.28500
2261110;-0.28000
2263888;-0.28000
2266666;-0.28500
2269444;-0.28500
2272222;-0.28500
2274999;-0.29000
2277777;-0.29500
2280555;-0.30500
2283333;-0.30000
2286110;-0.28500
2288888;-0.27500
2291666;-0.29000
2294444;-0.28500
2297222;-0.29500
2299999;-0.29500
2302777;-0.30000
2305555;-0.30500
2308333;-0.30500
2311110;-0.30500
2313888;-0.29500
2316666;-0.28000
2319444;-0.29000
2322222;-0.31000
2324999;-0.32000
2327777;-0.32500
2330555;-0.33000
2333333;-0.31500
2336110;-0.31000
2338888;-0.31000
2341666;-0.31500
2344444;-0.32000
2347222;-0.32500
2349999;-0.33000
2352777;-0.33500
2355555;-0.34000
2358333;-0.34000
2361110;-0.37000
2363888;-0.37500
2366666;-0.35500
2369444;-0.35000
2372222;-0.34500
2374999;-0.35500
2377777;-0.37000
2380555;-0.39000
2383333;-0.36500
2386110;-0.36000
2388888;-0.36000
2391666;-0.37500
2394444;-0.38500
2397222;-0.37000
2399999;-0.36500
2402777;-0.34500
2405555;-0.33500
2408333;-0.33500
2411110;-0.35000
2413888;-0.36500
2416666;-0.36000
2419444;-0.36000
2422222;-0.35000
2424999;-0.35500
2427777;-0.36500
2430555;-0.37500
2433333;-0.36000
2436110;-0.36000
2438888;-0.37500
2441666;-0.39500
2444444;-0.39000
2447222;-0.38500
2449999;-0.35500
2452777;-0.32500
2455555;-0.32000
2458333;-0.31000
2461110;-0.31000
2463888;-0.31500
2466666;-0.30000
2469444;-0.28000
2472222;-0.27000
2474999;-0.26500
2477777;-0.26500
2480555;-0.26500
2483333;-0.25000
2486110;-0.23000
2488888;-0.23000
2491666;-0.24000
2494444;-0.24500
2497222;-0.25500
2499999;-0.25500
2502777;-0.25500
2505555;-0.25000
2508333;-0.25000
2511110;-0.25000
2513888;-0.25000
2516666;-0.23500
2519444;-0.21000
2522222;-0.20500
2524999;-0.23000
2527777;-0.28000
2530555;-0.31000
2533333;-0.32000
2536110;-0.31000
2538888;-0.31000
2541666;-0.31000
2544444;-0.33500
2547222;-0.35000
2549999;-0.36000
2552777;-0.36500
2555555;-0.37000
2558333;-0.38500
2561110;-0.39000
2563888;-0.41500
2566666;-0.40000
2569444;-0.39500
2572222;-0.40500
2574999;-0.39500
2577777;-0.40000
2580555;-0.40500
2583333;-0.40500
2586110;-0.40000
2588888;-0.40000
2591666;-0.40500
2594444;-0.41000
2597221;-0.40500
2599999;-0.40000
2602777;-0.39000
2605555;-0.39500
2608333;-0.40000
2611110;-0.40000
2613888;-0.42000
2616666;-0.42500
2619444;-0.45500
2622221;-0.48500
2624999;-0.52500
2627777;-0.56000
2630555;-0.60000
2633333;-0.61000
2636110;-0.54000
2638888;-0.42500
2641666;-0.26500
2644444;-0.11000
2647221;0.12000
2649999;0.42500
2652777;0.69000
2655555;0.88000
2658333;0.93500
2661110;0.84000
2663888;0.52500
2666666;0.09000
2669444;-0.27000
2672221;-0.50000
2674999;-0.57000
2677777;-0.55000
2680555;-0.50500
2683333;-0.43500
2686110;-0.41500
2688888;-0.42000
2691666;-0.42500
2694444;-0.43000
2697221;-0.44000
2699999;-0.43500
2702777;-0.42000
2705555;-0.41000
2708333;-0.42500
2711110;-0.43000
2713888;-0.43500
2716666;-0.42500
2719444;-0.41500
2722221;-0.42500
2724999;-0.42000
2727777;-0.44000
2730555;-0.44000
2733333;-0.43000
2736110;-0.42500
2738888;-0.43000
2741666;-0.43000
2744444;-0.44000
2747221;-0.45000
2749999;-0.42500
2752777;-0.40500
2755555;-0.42000
2758333;-0.42000
2761110;-0.44500
2763888;-0.45000
2766666;-0.44500
2769444;-0.43000
2772221;-0.44500
2774999;-0.44500
2777777;-0.45000
2780555;-0.45000
2783333;-0.45000
2786110;-0.43500
2788888;-0.43000
2791666;-0.44500
2794444;-0.45000
2797221;-0.45500
2799999;-0.43000
2802777;-0.42500
2805555;-0.43000
2808333;-0.43500
2811110;-0.44000
2813888;-0.43500
2816666;-0.43000
2819444;-0.41500
2822221;-0.42000
2824999;-0.42000
2827777;-0.43000
2830555;-0.42500
2833333;-0.43000
2836110;-0.43000
2838888;-0.42000
2841666;-0.42500
2844444;-0.43000
2847221;-0.43500
2849999;-0.42500
2852777;-0.42000
2855555;-0.42000
2858333;-0.44000
2861110;-0.43500
2863888;-0.46000
2866666;-0.44000
2869444;-0.43000
2872221;-0.44500
2874999;-0.44000
2877777;-0.45000
2880555;-0.45000
2883333;-0.45000
2886110;-0.43000
2888888;-0.44000
2891666;-0.44500
2894444;-0.45000
2897221;-0.46000
2899999;-0.44000
2902777;-0.44500
2905555;-0.44000
2908333;-0.45000
2911110;-0.46000
2913888;-0.46500
2916666;-0.46500
2919444;-0.46500
2922221;-0.46500
2924999;-0.47500
2927777;-0.47500
2930555;-0.48000
2933333;-0.47500
2936110;-0.47000
2938888;-0.46000
2941666;-0.46000
2944444;-0.45500
2947221;-0.46500
2949999;-0.44000
2952777;-0.41500
2955555;-0.40500
2958333;-0.39000
2961110;-0.39500
2963888;-0.38500
2966666;-0.36500
2969444;-0.34000
2972221;-0.33500
2974999;-0.34000
2977777;-0.33000
2980555;-0.33500
2983332;-0.32000
2986110;-0.31000
2988888;-0.29500
2991666;-0.30500
2994444;-0.31000
2997221;-0.31000
2999999;-0.30000
3002777;-0.28500
3005555;-0.30000
3008332;-0.31000
3011110;-0.32000
3013888;-0.32000
3016666;-0.30500
3019444;-0.30000
3022221;-0.28500
3024999;-0.29500
3027777;-0.30500
3030555;-0.32000
3033332;-0.31000
3036110;-0.30000
3038888;-0.31000
3041666;-0.30500
3044444;-0.31000
3047221;-0.32500
3049999;-0.32000
3052777;-0.30500
3055555;-0.29500
3058332;-0.31500
3061110;-0.31500
3063888;-0.31500
3066666;-0.31500
3069444;-0.29500
3072221;-0.29500
3074999;-0.30500
3077777;-0.31500
3080555;-0.32000
3083332;-0.31000
3086110;-0.31000
3088888;-0.31000
3091666;-0.32000
3094444;-0.32500
3097221;-0.32500
3099999;-0.33500
3102777;-0.31500
3105555;-0.33500
3108332;-0.33500
3111110;-0.34000
3113888;-0.34500
3116666;-0.33000
3119444;-0.33500
3122221;-0.33000
3124999;-0.34000
3127777;-0.34000
3130555;-0.34500
3133332;-0.32500
3136110;-0.32000
3138888;-0.33000
3141666;-0.31500
3144444;-0.33000
3147221;-0.33000
3149999;-0.33000
3152777;-0.32000
3155555;-0.33000
3158332;-0.34000
3161110;-0.34000
3163888;-0.34000
3166666;-0.33500
3169444;-0.31000
3172221;-0.30500
3174999;-0.30000
3177777;-0.31500
3180555;-0.31000
3183332;-0.30000
3186110;-0.28000
3188888;-0.27500
3191666;-0.28500
3194444;-0.29000
3197221;-0.27000
3199999;-0.24500
3202777;-0.24500
3205555;-0.24500
3208332;-0.23000
3211110;-0.22500
3213888;-0.23000
3216666;-0.21500
3219444;-0.19500
3222221;-0.19500
3224999;-0.20000
3227777;-0.21500
3230555;-0.23000
3233332;-0.22500
3236110;-0.22000
3238888;-0.20500
3241666;-0.20500
3244444;-0.22000
3247221;-0.21500
3249999;-0.18500
3252777;-0.16000
3255555;-0.17000
3258332;-0.21000
3261110;-0.25500
3263888;-0.27500
3266666;-0.27000
3269444;-0.27000
3272221;-0.29000
3274999;-0.31000
3277777;-0.33000
3280555;-0.34500
3283332;-0.33000
3286110;-0.31000
3288888;-0.31500
3291666;-0.33000
3294444;-0.34000
3297221;-0.36500
3299999;-0.35500
3302777;-0.34500
3305555;-0.35500
3308332;-0.35000
3311110;-0.36000
3313888;-0.37000
3316666;-0.36000
3319444;-0.34500
3322221;-0.35500
3324999;-0.35000
3327777;-0.36500
3330555;-0.35500
3333332;-0.35000
3336110;-0.33500
3338888;-0.34000
3341666;-0.35000
3344444;-0.36500
3347221;-0.37000
3349999;-0.38500
3352777;-0.40500
3355555;-0.44000
3358332;-0.47000
3361110;-0.50500
3363888;-0.54000
3366666;-0.56500
3369444;-0.52500
3372221;-0.44000
3374999;-0.27000
3377777;-0.13000
3380555;0.06000
3383332;0.32000
3386110;0.61500
3388888;0.87500
3391666;1.02500
3394443;1.02500
3397221;0.80000
3399999;0.37500
3402777;-0.09500
3405555;-0.42000
3408332;-0.53000
3411110;-0.49000
3413888;-0.41000
3416666;-0.36000
3419443;-0.34500
3422221;-0.35000
3424999;-0.35500
3427777;-0.36000
3430555;-0.37500
3433332;-0.36000
3436110;-0.35500
3438888;-0.37000
3441666;-0.37000
3444443;-0.39000
3447221;-0.39500
3449999;-0.38500
3452777;-0.38000
3455555;-0.38000
3458332;-0.38000
3461110;-0.39500
3463888;-0.39000
3466666;-0.38500
3469443;-0.37500
3472221;-0.39000
3474999;-0.38500
3477777;-0.38500
3480555;-0.39500
3483332;-0.39500
3486110;-0.37500
3488888;-0.38500
3491666;-0.38500
3494443;-0.38500
3497221;-0.39000
3499999;-0.37500
3502777;-0.37500
3505555;-0.38000
3508332;-0.38000
3511110;-0.39000
3513888;-0.39000
3516666;-0.38000
3519443;-0.38500
3522221;-0.36500
3524999;-0.38000
3527777;-0.38500
3530555;-0.40000
3533332;-0.38500
3536110;-0.38500
3538888;-0.38000
3541666;-0.38000
3544443;-0.39000
3547221;-0.39500
3549999;-0.37500
3552777;-0.36000
3555555;-0.36500
3558332;-0.37000
3561110;-0.37500
3563888;-0.37500
3566666;-0.36500
3569443;-0.36500
3572221;-0.36000
3574999;-0.36500
3577777;-0.37000
3580555;-0.39000
3583332;-0.38000
3586110;-0.37500
3588888;-0.36500
3591666;-0.37500
3594443;-0.37500
3597221;-0.38000
3599999;-0.37000
3602777;-0.36000
3605555;-0.36500
3608332;-0.36000
3611110;-0.38000
3613888;-0.38000
3616666;-0.37500
3619443;-0.36500
3622221;-0.37500
3624999;-0.38000
3627777;-0.38500
3630555;-0.39000
3633332;-0.38500
3636110;-0.36500
3638888;-0.35000
3641666;-0.36000
3644443;-0.36500
3647221;-0.37500
3649999;-0.36500
3652777;-0.37000
3655555;-0.36500
3658332;-0.36000
3661110;-0.37000
3663888;-0.37500
3666666;-0.36000
3669443;-0.34000
3672221;-0.34000
3674999;-0.35000
3677777;-0.33500
3680555;-0.34000
3683332;-0.31500
3686110;-0.30500
3688888;-0.29500
3691666;-0.30500
3694443;-0.29500
3697221;-0.29500
3699999;-0.28500
3702777;-0.27000
3705555;-0.28000
3708332;-0.27000
3711110;-0.28500
3713888;-0.29000
3716666;-0.28000
3719443;-0.27000
3722221;-0.26500
3724999;-0.27000
3727777;-0.28500
3730555;-0.28500
3733332;-0.27000
3736110;-0.27500
3738888;-0.26000
3741666;-0.26500
3744443;-0.28000
3747221;-0.28000
3749999;-0.28000
3752777;-0.26500
3755555;-0.27500
3758332;-0.27000
3761110;-0.27000
3763888;-0.27000
3766666;-0.28000
3769443;-0.27500
3772221;-0.27000
3774999;-0.28000
3777777;-0.29000
3780554;-0.29000
3783332;-0.29500
3786110;-0.28500
3788888;-0.29000
3791666;-0.30500
3794443;-0.30500
3797221;-0.30000
3799999;-0.30000
3802777;-0.29500
3805554;-0.30000
3808332;-0.31500
3811110;-0.32000
3813888;-0.31500
3816666;-0.31500
3819443;-0.31000
3822221;-0.30500
3824999;-0.31500
3827777;-0.32000
3830554;-0.32500
3833332;-0.31500
3836110;-0.30500
3838888;-0.31000
3841666;-0.32000
3844443;-0.32500
3847221;-0.32000
3849999;-0.31500
3852777;-0.31000
3855554;-0.31000
3858332;-0.33000
3861110;-0.34500
3863888;-0.34000
3866666;-0.33500
3869443;-0.33500
3872221;-0.33000
3874999;-0.33500
3877777;-0.35000
3880554;-0.34500
3883332;-0.33500
3886110;-0.32500
3888888;-0.32500
3891666;-0.32000
3894443;-0.32000
3897221;-0.32000
3899999;-0.30000
3902777;-0.30000
3905554;-0.30000
3908332;-0.28500
3911110;-0.28000
3913888;-0.27000
3916666;-0.27000
3919443;-0.25000
3922221;-0.24500
3924999;-0.23500
3927777;-0.24000
3930554;-0.25000
3933332;-0.24500
3936110;-0.24500
3938888;-0.23500
3941666;-0.21500
3944443;-0.22000
3947221;-0.21500
3949999;-0.21500
3952777;-0.20000
3955554;-0.20000
3958332;-0.19500
3961110;-0.21500
3963888;-0.22500
3966666;-0.22500
3969443;-0.22000
3972221;-0.21000
3974999;-0.22000
3977777;-0.21500
3980554;-0.22000
3983332;-0.19000
3986110;-0.17000
3988888;-0.19000
3991666;-0.22500
3994443;-0.27000
3997221;-0.28500
3999999;-0.28500
4002777;-0.28500
4005554;-0.30500
4008332;-0.31000
4011110;-0.33000
4013888;-0.34500
4016666;-0.34500
4019443;-0.33000
4022221;-0.34500
4024999;-0.34000
4027777;-0.34500
4030554;-0.36500
4033332;-0.36000
4036110;-0.35000
4038888;-0.36500
4041666;-0.36500
4044443;-0.37000
4047221;-0.37500
4049999;-0.37000
4052777;-0.36000
4055554;-0.35500
4058332;-0.36000
4061110;-0.36000
4063888;-0.37500
4066666;-0.35500
4069443;-0.34500
4072221;-0.35000
4074999;-0.37500
4077777;-0.41000
4080554;-0.46000
4083332;-0.49500
4086110;-0.50000
4088888;-0.53500
4091666;-0.57500
4094443;-0.56000
4097221;-0.48000
4099999;-0.32500
4102777;-0.17500
4105554;-0.02500
4108332;0.17500
4111110;0.44000
4113888;0.69000
4116666;0.86500
4119443;0.97000
4122221;1.02000
4124999;0.89000
4127777;0.57000
4130554;0.08500
4133332;-0.32500
4136110;-0.53000
4138888;-0.55000
4141666;-0.48000
4144443;-0.41500
4147221;-0.39500
4149999;-0.38000
4152777;-0.39000
4155554;-0.39000
4158332;-0.38500
4161110;-0.39500
4163888;-0.41000
4166666;-0.39500
4169443;-0.39000
4172221;-0.39500
4174999;-0.41000
4177777;-0.41000
4180554;-0.41000
4183332;-0.40000
4186110;-0.39500
4188888;-0.38500
4191665;-0.39000
4194443;-0.39500
4197221;-0.39500
4199999;-0.40000
4202777;-0.39000
4205554;-0.38500
4208332;-0.39500
4211110;-0.39500
4213888;-0.40500
4216665;-0.40000
4219443;-0.38000
4222221;-0.39500
4224999;-0.39500
4227777;-0.40500
4230554;-0.41000
4233332;-0.41500
4236110;-0.40500
4238888;-0.40500
4241665;-0.40000
4244443;-0.41000
4247221;-0.43000
4249999;-0.41000
4252777;-0.40000
4255554;-0.39500
4258332;-0.41000
4261110;-0.41500
4263888;-0.41500
4266665;-0.41000
4269443;-0.40500
4272221;-0.40000
4274999;-0.39000
4277777;-0.40000
4280554;-0.39500
4283332;-0.39500
4286110;-0.39000
4288888;-0.39000
4291665;-0.39000
4294443;-0.40000
4297221;-0.40500
4299999;-0.40000
4302777;-0.39500
4305554;-0.40000
4308332;-0.40500
4311110;-0.41000
4313888;-0.43000
4316665;-0.40500
4319443;-0.39000
4322221;-0.40000
4324999;-0.40500
4327777;-0.42000
4330554;-0.41000
4333332;-0.41000
4336110;-0.39500
4338888;-0.41000
4341665;-0.41000
4344443;-0.42000
4347221;-0.42000
4349999;-0.41500
4352777;-0.41000
4355554;-0.40500
4358332;-0.41000
4361110;-0.41500
4363888;-0.42500
4366665;-0.42000
4369443;-0.42000
4372221;-0.41500
4374999;-0.42000
4377777;-0.41500
4380554;-0.43000
4383332;-0.42000
4386110;-0.40000
4388888;-0.40000
4391665;-0.40500
4394443;-0.41000
4397221;-0.41500
4399999;-0.39000
4402777;-0.38000
4405554;-0.37500
4408332;-0.37000
4411110;-0.38000
4413888;-0.37000
4416665;-0.36000
4419443;-0.34500
4422221;-0.33000
4424999;-0.33000
4427777;-0.34500
4430554;-0.36000
4433332;-0.33500
4436110;-0.34000
4438888;-0.34000
4441665;-0.34500
4444443;-0.36000
4447221;-0.36000
4449999;-0.35500
4452777;-0.35500
4455554;-0.35500
4458332;-0.35000
4461110;-0.36000
4463888;-0.38000
4466665;-0.36500
4469443;-0.36000
4472221;-0.36000
4474999;-0.36500
4477777;-0.37500
4480554;-0.37500
4483332;-0.37500
4486110;-0.35500
4488888;-0.35000
4491665;-0.34500
4494443;-0.37000
4497221;-0.36000
4499999;-0.37500
4502777;-0.38500
4505554;-0.39000
4508332;-0.40000
4511110;-0.40500
4513888;-0.40500
4516665;-0.40000
4519443;-0.39500
4522221;-0.40500
4524999;-0.39500
4527777;-0.41000
4530554;-0.40500
4533332;-0.40500
4536110;-0.40500
4538888;-0.39500
4541665;-0.41000
4544443;-0.42000
4547221;-0.43500
4549999;-0.42000
4552777;-0.40500
4555554;-0.40500
4558332;-0.40000
4561110;-0.41500
4563888;-0.42000
4566665;-0.42000
4569443;-0.41000
4572221;-0.42000
4574999;-0.43000
4577776;-0.44500
4580554;-0.45500
4583332;-0.44000
4586110;-0.43500
4588888;-0.43500
4591665;-0.43000
4594443;-0.45000
4597221;-0.45500
4599999;-0.44500
4602776;-0.42500
4605554;-0.44500
4608332;-0.44000
4611110;-0.45000
4613888;-0.45000
4616665;-0.44500
4619443;-0.44000
4622221;-0.44000
4624999;-0.43000
4627776;-0.43500
4630554;-0.44000
4633332;-0.41000
4636110;-0.39500
4638888;-0.38500
4641665;-0.38500
4644443;-0.38500
4647221;-0.37000
4649999;-0.36000
4652776;-0.35500
4655554;-0.36000
4658332;-0.36500
4661110;-0.35000
4663888;-0.34500
4666665;-0.32500
4669443;-0.31500
4672221;-0.31500
4674999;-0.33000
4677776;-0.32000
4680554;-0.33500
4683332;-0.32500
4686110;-0.31500
4688888;-0.32500
4691665;-0.34000
4694443;-0.35000
4697221;-0.35000
4699999;-0.34000
4702776;-0.32000
4705554;-0.30000
4708332;-0.30500
4711110;-0.29000
4713888;-0.29500
4716665;-0.32000
4719443;-0.35000
4722221;-0.38000
4724999;-0.39500
4727776;-0.41500
4730554;-0.44000
4733332;-0.44500
4736110;-0.43500
4738888;-0.44500
4741665;-0.44500
4744443;-0.47000
4747221;-0.47500
4749999;-0.46000
4752776;-0.45500
4755554;-0.45500
4758332;-0.46500
4761110;-0.48000
4763888;-0.49500
4766665;-0.48500
4769443;-0.48000
4772221;-0.48000
4774999;-0.47500
4777776;-0.47500
4780554;-0.48500
4783332;-0.47000
4786110;-0.45000
4788888;-0.44000
4791665;-0.45500
4794443;-0.46000
4797221;-0.47000
4799999;-0.47500
4802776;-0.48500
4805554;-0.48000
4808332;-0.48000
4811110;-0.49000
4813888;-0.52000
4816665;-0.55000
4819443;-0.59000
4822221;-0.60000
4824999;-0.62500
4827776;-0.66000
4830554;-0.68500
4833332;-0.63000
4836110;-0.51000
4838888;-0.37000
4841665;-0.20000
4844443;0.00500
4847221;0.27500
4849999;0.56500
4852776;0.77000
4855554;0.85000
4858332;0.75500
4861110;0.43000
4863888;-0.02000
4866665;-0.40000
4869443;-0.59500
4872221;-0.62500
4874999;-0.59000
4877776;-0.56000
4880554;-0.54500
4883332;-0.52000
4886110;-0.51000
4888888;-0.51000
4891665;-0.50500
4894443;-0.51500
4897221;-0.52500
4899999;-0.51000
4902776;-0.51000
4905554;-0.51000
4908332;-0.51500
4911110;-0.51500
4913888;-0.53000
4916665;-0.53500
4919443;-0.53000
4922221;-0.51500
4924999;-0.52000
4927776;-0.51000
4930554;-0.51000
4933332;-0.49000
4936110;-0.48500
4938888;-0.49000
4941665;-0.49500
4944443;-0.52000
4947221;-0.53000
4949999;-0.52000
4952776;-0.52000
4955554;-0.51500
4958332;-0.51000
4961110;-0.52500
4963887;-0.54500
4966665;-0.53500
4969443;-0.51500
4972221;-0.52000
4974999;-0.53000
4977776;-0.55000
4980554;-0.55500
4983332;-0.53000
4986110;-0.51500
4988887;-0.51000
4991665;-0.52500
4994443;-0.54000
4997221;-0.53500
4999999;-0.53000
5002776;-0.52000
5005554;-0.50500
5008332;-0.50500
5011110;-0.51500
5013887;-0.51500
5016665;-0.50000
5019443;-0.49000
5022221;-0.49000
5024999;-0.51500
5027776;-0.53500
5030554;-0.54000
5033332;-0.54000
5036110;-0.53000
5038887;-0.52000
5041665;-0.52000
5044443;-0.54000
5047221;-0.56000
5049999;-0.53000
5052776;-0.51000
5055554;-0.50500
5058332;-0.50500
5061110;-0.51000
5063887;-0.50000
5066665;-0.50500
5069443;-0.51000
5072221;-0.53000
5074999;-0.54000
5077776;-0.54500
5080554;-0.56000
5083332;-0.55000
5086110;-0.55500
5088887;-0.56000
5091665;-0.56500
5094443;-0.56500
5097221;-0.56000
5099999;-0.53500
5102776;-0.53500
5105554;-0.54000
5108332;-0.55000
5111110;-0.56500
5113887;-0.56500
5116665;-0.53500
5119443;-0.53000
5122221;-0.51000
5124999;-0.51500
5127776;-0.52000
5130554;-0.50500
5133332;-0.49000
5136110;-0.47000
5138887;-0.45500
5141665;-0.43500
5144443;-0.44000
5147221;-0.44500
5149999;-0.42500
5152776;-0.43000
5155554;-0.42000
5158332;-0.41500
5161110;-0.42500
5163887;-0.43000
5166665;-0.41000
5169443;-0.39500
5172221;-0.38500
5174999;-0.39000
5177776;-0.39500
5180554;-0.40500
5183332;-0.39500
5186110;-0.39500
5188887;-0.40500
5191665;-0.41000
5194443;-0.42000
5197221;-0.41500
5199999;-0.41000
5202776;-0.40000
5205554;-0.40000
5208332;-0.39500
5211110;-0.40500
5213887;-0.43000
5216665;-0.42500
5219443;-0.41000
5222221;-0.41000
5224999;-0.41500
5227776;-0.41500
5230554;-0.42500
5233332;-0.42500
5236110;-0.41500
5238887;-0.41500
5241665;-0.41500
5244443;-0.43000
5247221;-0.43500
5249999;-0.42000
5252776;-0.41500
5255554;-0.42500
5258332;-0.42000
5261110;-0.43000
5263887;-0.44000
5266665;-0.43000
5269443;-0.42000
5272221;-0.42500
5274999;-0.43500
5277776;-0.44000
5280554;-0.45000
5283332;-0.44500
5286110;-0.43500
5288887;-0.44000
5291665;-0.45500
5294443;-0.45000
5297221;-0.45500
5299999;-0.45000
5302776;-0.45000
5305554;-0.45000
5308332;-0.45500
5311110;-0.46000
5313887;-0.46500
5316665;-0.45500
5319443;-0.44500
5322221;-0.45000
5324999;-0.44000
5327776;-0.43500
5330554;-0.44000
5333332;-0.42500
5336110;-0.41500
5338887;-0.41000
5341665;-0.41000
5344443;-0.43000
5347221;-0.43500
5349999;-0.42000
5352776;-0.42000
5355554;-0.42500
5358332;-0.43500
5361110;-0.43500
5363887;-0.43500
5366665;-0.43500
5369443;-0.41500
5372221;-0.41500
5374998;-0.41500
5377776;-0.42000
5380554;-0.41500
5383332;-0.41000
5386110;-0.39500
5388887;-0.37500
5391665;-0.36500
5394443;-0.35500
5397221;-0.36000
5399998;-0.34000
5402776;-0.32500
5405554;-0.31000
5408332;-0.30500
5411110;-0.30000
5413887;-0.29500
5416665;-0.28500
5419443;-0.26500
5422221;-0.29000
5424998;-0.28500
5427776;-0.30000
5430554;-0.31500
5433332;-0.31500
5436110;-0.29000
5438887;-0.28000
5441665;-0.29500
5444443;-0.30000
5447221;-0.29000
5449998;-0.25500
5452776;-0.24000
5455554;-0.27000
5458332;-0.31000
5461110;-0.34500
5463887;-0.35000
5466665;-0.36500
5469443;-0.37000
5472221;-0.38000
5474998;-0.38500
5477776;-0.41500
5480554;-0.42500
5483332;-0.41500
5486110;-0.40000
5488887;-0.40500
5491665;-0.40500
5494443;-0.40000
5497221;-0.41500
5499998;-0.40500
5502776;-0.39500
5505554;-0.40000
5508332;-0.39500
5511110;-0.41000
5513887;-0.41500
5516665;-0.41500
5519443;-0.40500
5522221;-0.41500
5524998;-0.42000
5527776;-0.43000
5530554;-0.43000
5533332;-0.43000
5536110;-0.42000
5538887;-0.41500
5541665;-0.42000
5544443;-0.41500
5547221;-0.43000
5549998;-0.43500
5552776;-0.45000
5555554;-0.48000
5558332;-0.52000
5561110;-0.55000
5563887;-0.57500
5566665;-0.59500
5569443;-0.60500
5572221;-0.56500
5574998;-0.45500
5577776;-0.31000
5580554;-0.14000
5583332;0.06500
5586110;0.32500
5588887;0.60500
5591665;0.83500
5594443;0.94000
5597221;0.94000
5599998;0.76500
5602776;0.40000
5605554;-0.08000
5608332;-0.43000
5611110;-0.58000
5613887;-0.55000
5616665;-0.48500
5619443;-0.44000
5622221;-0.41500
5624998;-0.41500
5627776;-0.43000
5630554;-0.42500
5633332;-0.43000
5636110;-0.41500
5638887;-0.42000
5641665;-0.43000
5644443;-0.43000
5647221;-0.42500
5649998;-0.42000
5652776;-0.42000
5655554;-0.41000
5658332;-0.42500
5661110;-0.44000
5663887;-0.45000
5666665;-0.43500
5669443;-0.42500
5672221;-0.42000
5674998;-0.42500
5677776;-0.43000
5680554;-0.43000
5683332;-0.42500
5686110;-0.41500
5688887;-0.41500
5691665;-0.42000
5694443;-0.42000
5697221;-0.42500
5699998;-0.42500
5702776;-0.41500
5705554;-0.41500
5708332;-0.42000
5711110;-0.43000
5713887;-0.44000
5716665;-0.42000
5719443;-0.41000
5722221;-0.41500
5724998;-0.41500
5727776;-0.43000
5730554;-0.42500
5733332;-0.42000
5736110;-0.41000
5738887;-0.41000
5741665;-0.40500
5744443;-0.41500
5747221;-0.41500
5749998;-0.40500
5752776;-0.40000
5755554;-0.40500
5758332;-0.41500
5761109;-0.42000
5763887;-0.41500
5766665;-0.40000
5769443;-0.40000
5772221;-0.40500
5774998;-0.38500
5777776;-0.40500
5780554;-0.41500
5783332;-0.40500
5786109;-0.38500
5788887;-0.38500
5791665;-0.38500
5794443;-0.39500
5797221;-0.39500
5799998;-0.39500
5802776;-0.38000
5805554;-0.36500
5808332;-0.38000
5811109;-0.37500
5813887;-0.39000
5816665;-0.37500
5819443;-0.37500
5822221;-0.37000
5824998;-0.38500
5827776;-0.39000
5830554;-0.41500
5833332;-0.40500
5836109;-0.39500
5838887;-0.39000
5841665;-0.41000
5844443;-0.41500
5847221;-0.42000
5849998;-0.40500
5852776;-0.38500
5855554;-0.39500
5858332;-0.39500
5861109;-0.41000
5863887;-0.41000
5866665;-0.39500
5869443;-0.37500
5872221;-0.37500
5874998;-0.37500
5877776;-0.38500
5880554;-0.38500
5883332;-0.36500
5886109;-0.36000
5888887;-0.34000
5891665;-0.34000
5894443;-0.31500
5897221;-0.31500
5899998;-0.30000
5902776;-0.28500
5905554;-0.28000
5908332;-0.28000
5911109;-0.28000
5913887;-0.27000
5916665;-0.25500
5919443;-0.25000
5922221;-0.24000
5924998;-0.26000
5927776;-0.26000
5930554;-0.27500
5933332;-0.27500
5936109;-0.25500
5938887;-0.24500
5941665;-0.25500
5944443;-0.27000
5947221;-0.27000
5949998;-0.26500
5952776;-0.25000
5955554;-0.25500
5958332;-0.24500
5961109;-0.25500
5963887;-0.26500
5966665;-0.25000
5969443;-0.24000
5972221;-0.25000
5974998;-0.25500
5977776;-0.27000
5980554;-0.27000
5983332;-0.27000
5986109;-0.25500
5988887;-0.25000
5991665;-0.26000
5994443;-0.26000
5997221;-0.26500
5999998;-0.25500
6002776;-0.25500
6005554;-0.26000
6008332;-0.25000
6011109;-0.26500
6013887;-0.27500
6016665;-0.27000
6019443;-0.26500
6022221;-0.28000
6024998;-0.27500
6027776;-0.27000
6030554;-0.28500
6033332;-0.29500
6036109;-0.28000
6038887;-0.29000
6041665;-0.28500
6044443;-0.29000
6047221;-0.30500
6049998;-0.30000
6052776;-0.28000
6055554;-0.29000
6058332;-0.28500
6061109;-0.30000
6063887;-0.30500
6066665;-0.29000
6069443;-0.28500
6072221;-0.28500
6074998;-0.29000
6077776;-0.29500
6080554;-0.30500
6083332;-0.29500
6086109;-0.30000
6088887;-0.29000
6091665;-0.28500
6094443;-0.30000
6097221;-0.30500
6099998;-0.30000
6102776;-0.29500
6105554;-0.30000
6108332;-0.31000
6111109;-0.31000
6113887;-0.31500
6116665;-0.31000
6119443;-0.29500
6122221;-0.29000
6124998;-0.28000
6127776;-0.27500
6130554;-0.28000
6133332;-0.26500
6136109;-0.25500
6138887;-0.25000
6141665;-0.24500
6144443;-0.24000
6147221;-0.23000
6149998;-0.22000
6152776;-0.21000
6155554;-0.20000
6158332;-0.19000
6161109;-0.19000
6163887;-0.19000
6166665;-0.18500
6169443;-0.17500
6172220;-0.18000
6174998;-0.17500
6177776;-0.17000
6180554;-0.17500
6183332;-0.16000
6186109;-0.15500
6188887;-0.15500
6191665;-0.16500
6194443;-0.17000
6197220;-0.19500
6199998;-0.19500
6202776;-0.18500
6205554;-0.17500
6208332;-0.18000
6211109;-0.18000
6213887;-0.20000
6216665;-0.16500
6219443;-0.13500
6222220;-0.13500
6224998;-0.16000
6227776;-0.20000
6230554;-0.23000
6233332;-0.23500
6236109;-0.24500
6238887;-0.25000
6241665;-0.27500
6244443;-0.29500
6247220;-0.31000
6249998;-0.31000
6252776;-0.30000
6255554;-0.32000
6258332;-0.30000
6261109;-0.30000
6263887;-0.31500
6266665;-0.31000
6269443;-0.29000
6272220;-0.31000
6274998;-0.31500
6277776;-0.32000
6280554;-0.33500
6283332;-0.32000
6286109;-0.31500
6288887;-0.33000
6291665;-0.32000
6294443;-0.33000
6297220;-0.32500
6299998;-0.33000
6302776;-0.31000
6305554;-0.32000
6308332;-0.32500
6311109;-0.34500
6313887;-0.34000
6316665;-0.34000
6319443;-0.34500
6322220;-0.38500
6324998;-0.43000
6327776;-0.46000
6330554;-0.47500
6333332;-0.51000
6336109;-0.54500
6338887;-0.52500
6341665;-0.45500
6344443;-0.34500
6347220;-0.22000
6349998;-0.09500
6352776;0.01500
6355554;0.16000
6358332;0.36000
6361109;0.59000
6363887;0.77500
6366665;0.91000
6369443;1.00000
6372220;1.06500
6374998;1.14000
6377776;1.12000
6380554;0.97500
6383332;0.68500
6386109;0.26500
6388887;-0.14500
6391665;-0.40000
6394443;-0.47500
6397220;-0.45500
6399998;-0.38500
6402776;-0.34000
6405554;-0.33500
6408332;-0.34500
6411109;-0.34500
6413887;-0.36000
6416665;-0.34000
6419443;-0.33500
6422220;-0.35000
6424998;-0.34500
6427776;-0.35000
6430554;-0.36500
6433332;-0.35000
6436109;-0.34000
6438887;-0.34500
6441665;-0.35500
6444443;-0.35500
6447220;-0.35000
6449998;-0.35000
6452776;-0.35000
6455554;-0.35000
6458332;-0.35500
6461109;-0.35500
6463887;-0.36000
6466665;-0.35500
6469443;-0.35000
6472220;-0.36000
6474998;-0.37000
6477776;-0.36000
6480554;-0.37000
6483332;-0.36500
6486109;-0.35500
6488887;-0.34500
6491665;-0.36000
6494443;-0.35000
6497220;-0.37500
6499998;-0.36500
6502776;-0.35000
6505554;-0.34000
6508332;-0.35500
6511109;-0.36000
6513887;-0.36000
6516665;-0.35000
6519443;-0.34500
6522220;-0.34000
6524998;-0.34000
6527776;-0.35000
6530554;-0.35000
6533332;-0.35500
6536109;-0.34500
6538887;-0.35000
6541665;-0.34500
6544443;-0.36500
6547220;-0.36000
6549998;-0.35000
6552776;-0.34000
6555554;-0.34000
6558331;-0.34500
6561109;-0.35500
6563887;-0.35000
6566665;-0.35500
6569443;-0.34500
6572220;-0.34000
6574998;-0.34500
6577776;-0.35000
6580554;-0.35500
6583331;-0.35500
6586109;-0.34000
6588887;-0.33500
6591665;-0.34000
6594443;-0.33500
6597220;-0.33500
6599998;-0.33000
6602776;-0.33500
6605554;-0.33000
6608331;-0.34000
6611109;-0.33000
6613887;-0.35000
6616665;-0.35000
6619443;-0.33500
6622220;-0.33500
6624998;-0.33500
6627776;-0.35500
6630554;-0.34500
6633331;-0.34500
6636109;-0.33500
6638887;-0.34000
6641665;-0.33500
6644443;-0.36000
6647220;-0.35500
6649998;-0.36000
6652776;-0.33500
6655554;-0.33500
6658331;-0.33500
6661109;-0.34500
6663887;-0.34000
6666665;-0.34000
6669443;-0.31500
6672220;-0.31500
6674998;-0.30500
6677776;-0.30500
6680554;-0.29500
6683331;-0.28000
6686109;-0.27500
6688887;-0.27500
6691665;-0.27000
6694443;-0.26500
6697220;-0.27500
6699998;-0.26500
6702776;-0.25000
6705554;-0.25500
6708331;-0.25000
6711109;-0.26500
6713887;-0.27000
6716665;-0.26500
6719443;-0.25500
6722220;-0.26000
6724998;-0.25000
6727776;-0.27000
6730554;-0.28500
6733331;-0.26500
6736109;-0.25500
6738887;-0.25500
6741665;-0.25000
6744443;-0.26500
6747220;-0.27000
6749998;-0.25500
6752776;-0.25000
6755554;-0.26500
6758331;-0.26000
6761109;-0.26000
6763887;-0.26500
6766665;-0.24500
6769443;-0.26500
6772220;-0.25000
6774998;-0.26000
6777776;-0.26500
6780554;-0.28000
6783331;-0.27000
6786109;-0.27000
6788887;-0.26500
6791665;-0.28000
6794443;-0.28000
6797220;-0.29500
6799998;-0.28500
6802776;-0.28500
6805554;-0.28000
6808331;-0.28000
6811109;-0.28500
6813887;-0.31000
6816665;-0.30500
6819443;-0.29500
6822220;-0.29000
6824998;-0.29500
6827776;-0.29000
6830554;-0.30500
6833331;-0.28500
6836109;-0.28000
6838887;-0.29000
6841665;-0.30000
6844443;-0.30500
6847220;-0.31000
6849998;-0.30000
6852776;-0.30000
6855554;-0.30500
6858331;-0.31000
6861109;-0.32500
6863887;-0.33000
6866665;-0.32000
6869443;-0.33500
6872220;-0.32000
6874998;-0.32500
6877776;-0.34000
6880554;-0.34000
6883331;-0.33000
6886109;-0.32000
6888887;-0.31500
6891665;-0.32500
6894443;-0.32500
6897220;-0.33500
6899998;-0.33000
6902776;-0.31500
6905554;-0.32500
6908331;-0.31500
6911109;-0.32500
6913887;-0.34000
6916665;-0.33000
6919443;-0.31500
6922220;-0.32500
6924998;-0.32500
6927776;-0.32000
6930554;-0.31000
6933331;-0.29500
6936109;-0.28000
6938887;-0.27000
6941665;-0.27000
6944442;-0.27500
6947220;-0.26500
6949998;-0.25000
6952776;-0.23000
6955554;-0.23500
6958331;-0.22500
6961109;-0.22000
6963887;-0.21000
6966665;-0.20000
6969442;-0.18500
6972220;-0.18000
6974998;-0.16500
6977776;-0.18000
6980554;-0.19500
6983331;-0.19000
6986109;-0.19500
6988887;-0.20500
6991665;-0.21500
6994442;-0.21500
6997220;-0.22000
6999998;-0.20000
7002776;-0.19500
7005554;-0.21000
7008331;-0.20500
7011109;-0.20500
7013887;-0.21500
7016665;-0.19000
7019442;-0.17500
7022220;-0.15500
7024998;-0.16000
7027776;-0.18500
7030554;-0.22500
7033331;-0.24500
7036109;-0.26500
7038887;-0.26500
7041665;-0.27000
7044442;-0.29500
7047220;-0.32000
7049998;-0.33000
7052776;-0.33500
7055554;-0.34500
7058331;-0.34500
7061109;-0.34000
7063887;-0.35000
7066665;-0.35000
7069442;-0.35000
7072220;-0.34500
7074998;-0.34500
7077776;-0.36000
7080554;-0.36500
7083331;-0.36500
7086109;-0.35500
7088887;-0.35500
7091665;-0.36500
7094442;-0.37000
7097220;-0.36000
7099998;-0.35500
7102776;-0.33500
7105554;-0.33500
7108331;-0.35000
7111109;-0.36500
7113887;-0.37500
7116665;-0.38500
7119442;-0.41000
7122220;-0.45000
7124998;-0.47500
7127776;-0.50000
7130554;-0.54500
7133331;-0.57500
7136109;-0.57000
7138887;-0.48500
7141665;-0.35000
7144442;-0.21500
7147220;-0.03000
7149998;0.21500
7152776;0.50500
7155554;0.75500
7158331;0.90500
7161109;0.90000
7163887;0.72500
7166665;0.36000
7169442;-0.04500
7172220;-0.37000
7174998;-0.52500
7177776;-0.51500
7180554;-0.44500
7183331;-0.39500
7186109;-0.37000
7188887;-0.36500
7191665;-0.38000
7194442;-0.39000
7197220;-0.38500
7199998;-0.37500
7202776;-0.37000
7205554;-0.37000
7208331;-0.38000
7211109;-0.39000
7213887;-0.38500
7216665;-0.37500
7219442;-0.37000
7222220;-0.38000
7224998;-0.37000
7227776;-0.37500
7230554;-0.38500
7233331;-0.38000
7236109;-0.39500
7238887;-0.38000
7241665;-0.39000
7244442;-0.39500
7247220;-0.41500
7249998;-0.40000
7252776;-0.38500
7255554;-0.38500
7258331;-0.38000
7261109;-0.39000
7263887;-0.40000
7266665;-0.39500
7269442;-0.38500
7272220;-0.37500
7274998;-0.37500
7277776;-0.37500
7280554;-0.40000
7283331;-0.38500
7286109;-0.37000
7288887;-0.37500
7291665;-0.38500
7294442;-0.38500
7297220;-0.40500
7299998;-0.39000
7302776;-0.38500
7305554;-0.38500
7308331;-0.39000
7311109;-0.39000
7313887;-0.40000
7316665;-0.39500
7319442;-0.38000
7322220;-0.38000
7324998;-0.39000
7327776;-0.38000
7330554;-0.38500
7333331;-0.37000
7336109;-0.36500
7338887;-0.36500
7341665;-0.37000
7344442;-0.38000
7347220;-0.39000
7349998;-0.37500
7352776;-0.38000
7355553;-0.37000
7358331;-0.37500
7361109;-0.38500
7363887;-0.38500
7366665;-0.38500
7369442;-0.38000
7372220;-0.37500
7374998;-0.38000
7377776;-0.39000
7380553;-0.39500
7383331;-0.38500
7386109;-0.38500
7388887;-0.37500
7391665;-0.38000
7394442;-0.38000
7397220;-0.38500
7399998;-0.37500
7402776;-0.38500
7405553;-0.37000
7408331;-0.38500
7411109;-0.38500
7413887;-0.40500
7416665;-0.39500
7419442;-0.39000
7422220;-0.39000
7424998;-0.39500
7427776;-0.39500
7430553;-0.41000
7433331;-0.40500
7436109;-0.39000
7438887;-0.39000
7441665;-0.40000
7444442;-0.39500
7447220;-0.40000
7449998;-0.39000
7452776;-0.38500
7455553;-0.38000
7458331;-0.39000
7461109;-0.39000
7463887;-0.37000
7466665;-0.35000
7469442;-0.34500
7472220;-0.35000
7474998;-0.34000
7477776;-0.34000
7480553;-0.35000
7483331;-0.32500
7486109;-0.31000
7488887;-0.31500
7491665;-0.31500
7494442;-0.31500
7497220;-0.31500
7499998;-0.30500
7502776;-0.28500
7505553;-0.29000
7508331;-0.29000
7511109;-0.29500
7513887;-0.31500
7516665;-0.29500
7519442;-0.29500
7522220;-0.29000
7524998;-0.30500
7527776;-0.31000
7530553;-0.32000
7533331;-0.32000
7536109;-0.31500
7538887;-0.31000
7541665;-0.31000
7544442;-0.32000
7547220;-0.32000
7549998;-0.30500
7552776;-0.29500
7555553;-0.29000
7558331;-0.30500
7561109;-0.30500
7563887;-0.31000
7566665;-0.31000
7569442;-0.31000
7572220;-0.30500
7574998;-0.32000
7577776;-0.32000
7580553;-0.33000
7583331;-0.33000
7586109;-0.32500
7588887;-0.33500
7591665;-0.33500
7594442;-0.33500
7597220;-0.34000
7599998;-0.32000
7602776;-0.33000
7605553;-0.33500
7608331;-0.33500
7611109;-0.34000
7613887;-0.35000
7616665;-0.35000
7619442;-0.34500
7622220;-0.36000
7624998;-0.35500
7627776;-0.37000
7630553;-0.38500
7633331;-0.36500
7636109;-0.35500
7638887;-0.34500
7641665;-0.35000
7644442;-0.36500
7647220;-0.37500
7649998;-0.36000
7652776;-0.35500
7655553;-0.35000
7658331;-0.36000
7661109;-0.37500
7663887;-0.37000
7666665;-0.36500
7669442;-0.36500
7672220;-0.36500
7674998;-0.36000
7677776;-0.37500
7680553;-0.37500
7683331;-0.37000
7686109;-0.36500
7688887;-0.36000
7691665;-0.38000
7694442;-0.37500
7697220;-0.38500
7699998;-0.38000
7702776;-0.37500
7705553;-0.37000
7708331;-0.38000
7711109;-0.37500
7713887;-0.38500
7716665;-0.36000
7719442;-0.33500
7722220;-0.33000
7724998;-0.32500
7727776;-0.33000
7730553;-0.33500
7733331;-0.31500
7736109;-0.31000
7738887;-0.30500
7741664;-0.31000
7744442;-0.31500
7747220;-0.32000
7749998;-0.30000
7752776;-0.30500
7755553;-0.27500
7758331;-0.27000
7761109;-0.26500
7763887;-0.26500
7766664;-0.25500
7769442;-0.23500
7772220;-0.23000
7774998;-0.24000
7777776;-0.24000
7780553;-0.24000
7783331;-0.23500
7786109;-0.22000
7788887;-0.23500
7791664;-0.24500
7794442;-0.25500
7797220;-0.25500
7799998;-0.24500
7802776;-0.24500
7805553;-0.23000
7808331;-0.23000
7811109;-0.24000
7813887;-0.26500
7816664;-0.29000
7819442;-0.31000
7822220;-0.32500
7824998;-0.34000
7827776;-0.36500
7830553;-0.38500
7833331;-0.38500
7836109;-0.38500
7838887;-0.39000
7841664;-0.39000
7844442;-0.40500
7847220;-0.40500
7849998;-0.39000
7852776;-0.37500
7855553;-0.37500
7858331;-0.39000
7861109;-0.39000
7863887;-0.38500
7866664;-0.38500
7869442;-0.38000
7872220;-0.37500
7874998;-0.40000
7877776;-0.42000
7880553;-0.43000
7883331;-0.42500
7886109;-0.43000
7888887;-0.43000
7891664;-0.42500
7894442;-0.41500
7897220;-0.41000
7899998;-0.40500
7902776;-0.39500
7905553;-0.40500
7908331;-0.42000
7911109;-0.44500
7913887;-0.49000
7916664;-0.51500
7919442;-0.51000
7922220;-0.55500
7924998;-0.60000
7927776;-0.62500
7930553;-0.58000
7933331;-0.45500
7936109;-0.31500
7938887;-0.14000
7941664;0.07000
7944442;0.34000
7947220;0.63000
7949998;0.83500
7952776;0.92000
7955553;0.81000
7958331;0.47000
7961109;0.01000
7963887;-0.38000
7966664;-0.56000
7969442;-0.57000
7972220;-0.51500
7974998;-0.46000
7977776;-0.44000
7980553;-0.46000
7983331;-0.45500
7986109;-0.45500
7988887;-0.43500
7991664;-0.43500
7994442;-0.44500
7997220;-0.45500
7999998;-0.45000
8002776;-0.44500
8005553;-0.46500
8008331;-0.46000
8011109;-0.47000
8013887;-0.47500
8016664;-0.46500
8019442;-0.46500
8022220;-0.46000
8024998;-0.45500
8027776;-0.45000
8030553;-0.46000
8033331;-0.46000
8036109;-0.45500
8038887;-0.45500
8041664;-0.46500
8044442;-0.48000
8047220;-0.47000
8049998;-0.46000
8052776;-0.44000
8055553;-0.44000
8058331;-0.45000
8061109;-0.46500
8063887;-0.49000
8066664;-0.48000
8069442;-0.45500
8072220;-0.45000
8074998;-0.44500
8077776;-0.45000
8080553;-0.45500
8083331;-0.46500
8086109;-0.45500
8088887;-0.45500
8091664;-0.45000
8094442;-0.46500
8097220;-0.47500
8099998;-0.47000
8102776;-0.45500
8105553;-0.45000
8108331;-0.46000
8111109;-0.45500
8113887;-0.45500
8116664;-0.46500
8119442;-0.45500
8122220;-0.45500
8124998;-0.45000
8127776;-0.47000
8130553;-0.47500
8133331;-0.47500
8136109;-0.46500
8138887;-0.45000
8141664;-0.45500
8144442;-0.45500
8147220;-0.45500
8149998;-0.45500
8152775;-0.46000
8155553;-0.46500
8158331;-0.46500
8161109;-0.47000
8163887;-0.47000
8166664;-0.47000
8169442;-0.46000
8172220;-0.47000
8174998;-0.47500
8177775;-0.49000
8180553;-0.50000
8183331;-0.49000
8186109;-0.49000
8188887;-0.48500
8191664;-0.48500
8194442;-0.49500
8197220;-0.49500
8199998;-0.50500
8202775;-0.50000
8205553;-0.50000
8208331;-0.50500
8211109;-0.50500
8213887;-0.51500
8216664;-0.50500
8219442;-0.49000
8222220;-0.48500
8224998;-0.47500
8227775;-0.48000
8230553;-0.47000
8233331;-0.45500
8236109;-0.45000
8238887;-0.41000
8241664;-0.41000
8244442;-0.41500
8247220;-0.41000
8249998;-0.39000
8252775;-0.37000
8255553;-0.36000
8258331;-0.33500
8261109;-0.33500
8263887;-0.34000
8266664;-0.34000
8269442;-0.32500
8272220;-0.33000
8274998;-0.32500
8277775;-0.34000
8280553;-0.33500
8283331;-0.33000
8286109;-0.31500
8288887;-0.32500
8291664;-0.32500
8294442;-0.33000
8297220;-0.32500
8299998;-0.32500
8302775;-0.31500
8305553;-0.32000
8308331;-0.31500
8311109;-0.32500
8313887;-0.33000
8316664;-0.32000
8319442;-0.31500
8322220;-0.31000
8324998;-0.31000
8327775;-0.32000
8330553;-0.32500
8333331;-0.31000
8336109;-0.30000
8338887;-0.31000
8341664;-0.31000
8344442;-0.31500
8347220;-0.32500
8349998;-0.32500
8352775;-0.32500
8355553;-0.33000
8358331;-0.32500
8361109;-0.34000
8363887;-0.34500
8366664;-0.34500
8369442;-0.34000
8372220;-0.33000
8374998;-0.35000
8377775;-0.34000
8380553;-0.35500
8383331;-0.35000
8386109;-0.34000
8388887;-0.32500
8391664;-0.32500
8394442;-0.34000
8397220;-0.34500
8399998;-0.35000
8402775;-0.33500
8405553;-0.33500
8408331;-0.34500
8411109;-0.37000
8413887;-0.36500
8416664;-0.35500
8419442;-0.35500
8422220;-0.34500
8424998;-0.35000
8427775;-0.35500
8430553;-0.35500
8433331;-0.35000
8436109;-0.33000
8438887;-0.34500
8441664;-0.34000
8444442;-0.35500
8447220;-0.37500
8449998;-0.37000
8452775;-0.35000
8455553;-0.35000
8458331;-0.34500
8461109;-0.34500
8463887;-0.35500
8466664;-0.34500
8469442;-0.33500
8472220;-0.32500
8474998;-0.34500
8477775;-0.34000
8480553;-0.34000
8483331;-0.33500
8486109;-0.33000
8488887;-0.32500
8491664;-0.32500
8494442;-0.32500
8497220;-0.32500
8499998;-0.30500
8502775;-0.29000
8505553;-0.29000
8508331;-0.28000
8511109;-0.28500
8513887;-0.27500
8516664;-0.26000
8519442;-0.24000
8522220;-0.24000
8524998;-0.22000
8527775;-0.23000
8530553;-0.23000
8533331;-0.21500
8536109;-0.19500
8538886;-0.19500
8541664;-0.19000
8544442;-0.18500
8547220;-0.19500
8549998;-0.19000
8552775;-0.20000
8555553;-0.20000
8558331;-0.20000
8561109;-0.21500
8563886;-0.20500
8566664;-0.19500
8569442;-0.18000
8572220;-0.17000
8574998;-0.16500
8577775;-0.16000
8580553;-0.18500
8583331;-0.20500
8586109;-0.23000
8588886;-0.24500
8591664;-0.25000
8594442;-0.27000
8597220;-0.29000
8599998;-0.30500
8602775;-0.31000
8605553;-0.31500
8608331;-0.33000
8611109;-0.32500
8613886;-0.33500
8616664;-0.33000
8619442;-0.32500
8622220;-0.32000
8624998;-0.33000
8627775;-0.35000
8630553;-0.35500
8633331;-0.33500
8636109;-0.33500
8638886;-0.32000
8641664;-0.33500
8644442;-0.34500
8647220;-0.35500
8649998;-0.35500
8652775;-0.33500
8655553;-0.33500
8658331;-0.33500
8661109;-0.35000
8663886;-0.36000
8666664;-0.36000
8669442;-0.34000
8672220;-0.33500
8674998;-0.34500
8677775;-0.35000
8680553;-0.39500
8683331;-0.44500
8686109;-0.47000
8688886;-0.47000
8691664;-0.51500
8694442;-0.55000
8697220;-0.52000
8699998;-0.40500
8702775;-0.25000
8705553;-0.06000
8708331;0.14500
8711109;0.39500
8713886;0.70500
8716664;0.96500
8719442;1.09000
8722220;1.05000
8724998;0.76000
8727775;0.28500
8730553;-0.20000
8733331;-0.47000
8736109;-0.51000
8738886;-0.43500
8741664;-0.37000
8744442;-0.35500
8747220;-0.35500
8749998;-0.37000
8752775;-0.36500
8755553;-0.35500
8758331;-0.36000
8761109;-0.37000
8763886;-0.38000
8766664;-0.37000
8769442;-0.36000
8772220;-0.36500
8774998;-0.37500
8777775;-0.37500
8780553;-0.38500
8783331;-0.37500
8786109;-0.37000
8788886;-0.36000
8791664;-0.35000
8794442;-0.36500
8797220;-0.36500
8799998;-0.36000
8802775;-0.35500
8805553;-0.35000
8808331;-0.36500
8811109;-0.35500
8813886;-0.36500
8816664;-0.37000
8819442;-0.36500
8822220;-0.35500
8824998;-0.37000
8827775;-0.37000
8830553;-0.37000
8833331;-0.36500
8836109;-0.35500
8838886;-0.35500
8841664;-0.36000
8844442;-0.37500
8847220;-0.37500
8849998;-0.38000
8852775;-0.36000
8855553;-0.36000
8858331;-0.35000
8861109;-0.36000
8863886;-0.37000
8866664;-0.38000
8869442;-0.37500
8872220;-0.36500
8874998;-0.36000
8877775;-0.37500
8880553;-0.37000
8883331;-0.36500
8886109;-0.36000
8888886;-0.35000
8891664;-0.36000
8894442;-0.37000
8897220;-0.37000
8899998;-0.36500
8902775;-0.36000
8905553;-0.35000
8908331;-0.36500
8911109;-0.36500
8913886;-0.38500
8916664;-0.37000
8919442;-0.36500
8922220;-0.35500
8924998;-0.36500
8927775;-0.37000
8930553;-0.37500
8933331;-0.37500
8936109;-0.36000
8938886;-0.36500
8941664;-0.37000
8944442;-0.37500
8947220;-0.37500
8949997;-0.37000
8952775;-0.36500
8955553;-0.36500
8958331;-0.36500
8961109;-0.37000
8963886;-0.38500
8966664;-0.36000
8969442;-0.36500
8972220;-0.35000
8974997;-0.34500
8977775;-0.34500
8980553;-0.35500
8983331;-0.35000
8986109;-0.33000
8988886;-0.32500
8991664;-0.32500
8994442;-0.31500
8997220;-0.30500
8999997;-0.31500
9002775;-0.28500
9005553;-0.28500
9008331;-0.28500
9011109;-0.27000
9013886;-0.29000
9016664;-0.27500
9019442;-0.26500
9022220;-0.24500
9024997;-0.24500
9027775;-0.25500
9030553;-0.25500
9033331;-0.26500
9036109;-0.24000
9038886;-0.24500
9041664;-0.24000
9044442;-0.23500
9047220;-0.24500
9049997;-0.23000
9052775;-0.22500
9055553;-0.22000
9058331;-0.23000
9061109;-0.24000
9063886;-0.23500
9066664;-0.23000
9069442;-0.23500
9072220;-0.24500
9074997;-0.24500
9077775;-0.25000
9080553;-0.25500
9083331;-0.25500
9086109;-0.24500
9088886;-0.24500
9091664;-0.26000
9094442;-0.25500
9097220;-0.25500
9099997;-0.26000
9102775;-0.24500
9105553;-0.24500
9108331;-0.24500
9111109;-0.26000
9113886;-0.26500
9116664;-0.27500
9119442;-0.25500
9122220;-0.27000
9124997;-0.28000
9127775;-0.28000
9130553;-0.28000
9133331;-0.29500
9136109;-0.28500
9138886;-0.28500
9141664;-0.28500
9144442;-0.29500
9147220;-0.30500
9149997;-0.29000
9152775;-0.28500
9155553;-0.29000
9158331;-0.29500
9161109;-0.29000
9163886;-0.30000
9166664;-0.30000
9169442;-0.29000
9172220;-0.29500
9174997;-0.29500
9177775;-0.30000
9180553;-0.31000
9183331;-0.30500
9186109;-0.29000
9188886;-0.29000
9191664;-0.30500
9194442;-0.30500
9197220;-0.31000
9199997;-0.31000
9202775;-0.30500
9205553;-0.30500
9208331;-0.30500
9211109;-0.32000
9213886;-0.33500
9216664;-0.32500
9219442;-0.31500
9222220;-0.30500
9224997;-0.32000
9227775;-0.30500
9230553;-0.33000
9233331;-0.32500
9236109;-0.30500
9238886;-0.30000
9241664;-0.29500
9244442;-0.29000
9247220;-0.28500
9249997;-0.26500
9252775;-0.25500
9255553;-0.23500
9258331;-0.23500
9261109;-0.24000
9263886;-0.24500
9266664;-0.22500
9269442;-0.21500
9272220;-0.19000
9274997;-0.18500
9277775;-0.18500
9280553;-0.19500
9283331;-0.19000
9286109;-0.18500
9288886;-0.19000
9291664;-0.20000
9294442;-0.22000
9297220;-0.21500
9299997;-0.20000
9302775;-0.19500
9305553;-0.19500
9308331;-0.18500
9311109;-0.17500
9313886;-0.16000
9316664;-0.16000
9319442;-0.18000
9322220;-0.21500
9324997;-0.24000
9327775;-0.25500
9330553;-0.26000
9333331;-0.26500
9336108;-0.27500
9338886;-0.30000
9341664;-0.29500
9344442;-0.31500
9347220;-0.34000
9349997;-0.33500
9352775;-0.32000
9355553;-0.32000
9358331;-0.31500
9361108;-0.33500
9363886;-0.35500
9366664;-0.34000
9369442;-0.34000
9372220;-0.34000
9374997;-0.34000
9377775;-0.36000
9380553;-0.37500
9383331;-0.37000
9386108;-0.36000
9388886;-0.35500
9391664;-0.35500
9394442;-0.35500
9397220;-0.37000
9399997;-0.37000
9402775;-0.36500
9405553;-0.36500
9408331;-0.36500
9411108;-0.38000
9413886;-0.42000
9416664;-0.46000
9419442;-0.48000
9422220;-0.50000
9424997;-0.53500
9427775;-0.56500
9430553;-0.58000
9433331;-0.49500
9436108;-0.37000
9438886;-0.23500
9441664;-0.11500
9444442;-0.02500
9447220;0.09500
9449997;0.29500
9452775;0.52000
9455553;0.73500
9458331;0.91500
9461108;1.02500
9463886;1.07000
9466664;0.96000
9469442;0.62500
9472220;0.12500
9474997;-0.28500
9477775;-0.50000
9480553;-0.52000
9483331;-0.45000
9486108;-0.38000
9488886;-0.37500
9491664;-0.37500
9494442;-0.39500
9497220;-0.40000
9499997;-0.39000
9502775;-0.38000
9505553;-0.38500
9508331;-0.38000
9511108;-0.40000
9513886;-0.41000
9516664;-0.40000
9519442;-0.39000
9522220;-0.40000
9524997;-0.40000
9527775;-0.42000
9530553;-0.41500
9533331;-0.41500
9536108;-0.40000
9538886;-0.40500
9541664;-0.41500
9544442;-0.41500
9547220;-0.41500
9549997;-0.42500
9552775;-0.39500
9555553;-0.39000
9558331;-0.40000
9561108;-0.41000
9563886;-0.41000
9566664;-0.40000
9569442;-0.39000
9572220;-0.39000
9574997;-0.39000
9577775;-0.39500
9580553;-0.40500
9583331;-0.41000
9586108;-0.41000
9588886;-0.39500
9591664;-0.40000
9594442;-0.39500
9597220;-0.41000
9599997;-0.40500
9602775;-0.40000
9605553;-0.40000
9608331;-0.40000
9611108;-0.40500
9613886;-0.39500
9616664;-0.40000
9619442;-0.39500
9622220;-0.38500
9624997;-0.39500
9627775;-0.39500
9630553;-0.41000
9633331;-0.39000
9636108;-0.37500
9638886;-0.38500
9641664;-0.38000
9644442;-0.39000
9647220;-0.40000
9649997;-0.38000
9652775;-0.38000
9655553;-0.37500
9658331;-0.38000
9661108;-0.40000
9663886;-0.41000
9666664;-0.40000
9669442;-0.40000
9672220;-0.38500
9674997;-0.38500
9677775;-0.41500
9680553;-0.42000
9683331;-0.41500
9686108;-0.40000
9688886;-0.39500
9691664;-0.39500
9694442;-0.39500
9697220;-0.40500
9699997;-0.39500
9702775;-0.37500
9705553;-0.38000
9708331;-0.37000
9711108;-0.37000
9713886;-0.39000
9716664;-0.36000
9719442;-0.36500
9722220;-0.34000
9724997;-0.34000
9727775;-0.34000
9730553;-0.34000
9733331;-0.33500
9736108;-0.32000
9738886;-0.29500
9741664;-0.30500
9744442;-0.30500
9747219;-0.32000
9749997;-0.31000
9752775;-0.29000
9755553;-0.30500
9758331;-0.30500
9761108;-0.28500
9763886;-0.30500
9766664;-0.29500
9769442;-0.28000
9772219;-0.28500
9774997;-0.29000
9777775;-0.29500
9780553;-0.30500
9783331;-0.29500
9786108;-0.29000
9788886;-0.28500
9791664;-0.28500
9794442;-0.28000
9797219;-0.30000
9799997;-0.28000
9802775;-0.28000
9805553;-0.28000
9808331;-0.28000
9811108;-0.29500
9813886;-0.30500
9816664;-0.31500
9819442;-0.31000
9822219;-0.31000
9824997;-0.31000
9827775;-0.32500
9830553;-0.33000
9833331;-0.32000
9836108;-0.33000
9838886;-0.32000
9841664;-0.32000
9844442;-0.33500
9847219;-0.35000
9849997;-0.33500
9852775;-0.34000
9855553;-0.34000
9858331;-0.32500
9861108;-0.34000
9863886;-0.34500
9866664;-0.34500
9869442;-0.33500
9872219;-0.33500
9874997;-0.34500
9877775;-0.35000
9880553;-0.37000
9883331;-0.35500
9886108;-0.34500
9888886;-0.34500
9891664;-0.34500
9894442;-0.35000
9897219;-0.35500
9899997;-0.35500
9902775;-0.35000
9905553;-0.34000
9908331;-0.35500
9911108;-0.37000
9913886;-0.38500
9916664;-0.37500
9919442;-0.35500
9922219;-0.35000
9924997;-0.35000
9927775;-0.35500
9930553;-0.37000
9933331;-0.36000
9936108;-0.36500
9938886;-0.35500
9941664;-0.36500
9944442;-0.36500
9947219;-0.36000
9949997;-0.35000
9952775;-0.34000
9955553;-0.33500
9958331;-0.33500
9961108;-0.34500
9963886;-0.36000
9966664;-0.36500
9969442;-0.35500
9972219;-0.36000
9974997;-0.35500
9977775;-0.35000
9980553;-0.34000
9983331;-0.33000
9986108;-0.30000
9988886;-0.28000
9991664;-0.28500
9994442;-0.28000
9997219;-0.29000
9999997;-0.27500
10002775;-0.27000
10005553;-0.26500
10008331;-0.26500
10011108;-0.25500
10013886;-0.25000
10016664;-0.24000
10019442;-0.23000
10022219;-0.21500
10024997;-0.22500
10027775;-0.24000
10030553;-0.24500
10033331;-0.24500
10036108;-0.24000
10038886;-0.24500
10041664;-0.24500
10044442;-0.25500
10047219;-0.25500
10049997;-0.25500
10052775;-0.24000
10055553;-0.20500
10058331;-0.20500
10061108;-0.24000
10063886;-0.29000
10066664;-0.30500
10069442;-0.31000
10072219;-0.31000
10074997;-0.32000
10077775;-0.35000
10080553;-0.38000
10083331;-0.38000
10086108;-0.37000
10088886;-0.37000
10091664;-0.37000
10094442;-0.36500
10097219;-0.39000
10099997;-0.38500
10102775;-0.37500
10105553;-0.38000
10108331;-0.37500
10111108;-0.39000
10113886;-0.39000
10116664;-0.37500
10119442;-0.38500
10122219;-0.39000
10124997;-0.40000
10127775;-0.40500
10130553;-0.41500
10133330;-0.41500
10136108;-0.40000
10138886;-0.39000
10141664;-0.38500
10144442;-0.40000
10147219;-0.41000
10149997;-0.41000
10152775;-0.41000
10155553;-0.42000
10158330;-0.44500
10161108;-0.49000
10163886;-0.50000
10166664;-0.51000
10169442;-0.51500
10172219;-0.53000
10174997;-0.56500
10177775;-0.60500
10180553;-0.58000
10183330;-0.47000
10186108;-0.32000
10188886;-0.15500
10191664;0.04500
10194442;0.30500
10197219;0.61000
10199997;0.84000
10202775;0.96000
10205553;0.94000
10208330;0.68500
10211108;0.27000
10213886;-0.16500
10216664;-0.46000
10219442;-0.57000
10222219;-0.54000
10224997;-0.48500
10227775;-0.44000
10230553;-0.44500
10233330;-0.44500
10236108;-0.44500
10238886;-0.43000
10241664;-0.42500
10244442;-0.43000
10247219;-0.46000
10249997;-0.44500
10252775;-0.44500
10255553;-0.44000
10258330;-0.44500
10261108;-0.44500
10263886;-0.46000
10266664;-0.46000
10269442;-0.44500
10272219;-0.43000
10274997;-0.42000
10277775;-0.42500
10280553;-0.43000
10283330;-0.43000
10286108;-0.42500
10288886;-0.42000
10291664;-0.43000
10294442;-0.44500
10297219;-0.45500
10299997;-0.45000
10302775;-0.44500
10305553;-0.44500
10308330;-0.45500
10311108;-0.45500
10313886;-0.47000
10316664;-0.45500
10319442;-0.45000
10322219;-0.44500
10324997;-0.44000
10327775;-0.46000
10330553;-0.47500
10333330;-0.46500
10336108;-0.45500
10338886;-0.44500
10341664;-0.45000
10344442;-0.46000
10347219;-0.47000
10349997;-0.46500
10352775;-0.45000
10355553;-0.43000
10358330;-0.44000
10361108;-0.44500
10363886;-0.46500
10366664;-0.46000
10369442;-0.45000
10372219;-0.44500
10374997;-0.44000
10377775;-0.45000
10380553;-0.45500
10383330;-0.45000
10386108;-0.44500
10388886;-0.44000
10391664;-0.44000
10394442;-0.45500
10397219;-0.46000
10399997;-0.46000
10402775;-0.45500
10405553;-0.44500
10408330;-0.46000
10411108;-0.46000
10413886;-0.47000
10416664;-0.45500
10419442;-0.45000
10422219;-0.44500
10424997;-0.45500
10427775;-0.46500
10430553;-0.47000
10433330;-0.46500
10436108;-0.45500
10438886;-0.47000
10441664;-0.45000
10444442;-0.46500
10447219;-0.47500
10449997;-0.46500
10452775;-0.46500
10455553;-0.47000
10458330;-0.46000
10461108;-0.45500
10463886;-0.46000
10466664;-0.45500
10469442;-0.42500
10472219;-0.43000
10474997;-0.43500
10477775;-0.43500
10480553;-0.44500
10483330;-0.43500
10486108;-0.40000
10488886;-0.39000
10491664;-0.38500
10494442;-0.38500
10497219;-0.39500
10499997;-0.38000
10502775;-0.37000
10505553;-0.36000
10508330;-0.35000
10511108;-0.35000
10513886;-0.36500
10516664;-0.35500
10519441;-0.32000
10522219;-0.32000
10524997;-0.32000
10527775;-0.33000
10530553;-0.34500
10533330;-0.34000
10536108;-0.32500
10538886;-0.32500
10541664;-0.33500
10544441;-0.36500
10547219;-0.35500
10549997;-0.36500
10552775;-0.36000
10555553;-0.35000
10558330;-0.34000
10561108;-0.35500
10563886;-0.36000
10566664;-0.35500
10569441;-0.34000
10572219;-0.34500
10574997;-0.35500
10577775;-0.36500
10580553;-0.38000
10583330;-0.37500
10586108;-0.37000
10588886;-0.35500
10591664;-0.35000
10594441;-0.37000
10597219;-0.38000
10599997;-0.37500
10602775;-0.36500
10605553;-0.37500
10608330;-0.38000
10611108;-0.39500
10613886;-0.39500
10616664;-0.38000
10619441;-0.37000
10622219;-0.36500
10624997;-0.38000
10627775;-0.40500
10630553;-0.42500
10633330;-0.42000
10636108;-0.41000
10638886;-0.39500
10641664;-0.39500
10644441;-0.41000
10647219;-0.42000
10649997;-0.41000
10652775;-0.41000
10655553;-0.41000
10658330;-0.41000
10661108;-0.41500
10663886;-0.43000
10666664;-0.42500
10669441;-0.44000
10672219;-0.42500
10674997;-0.42500
10677775;-0.43000
10680553;-0.43500
10683330;-0.43000
10686108;-0.41500
10688886;-0.40500
10691664;-0.40500
10694441;-0.41500
10697219;-0.42000
10699997;-0.42000
10702775;-0.41500
10705553;-0.40500
10708330;-0.41500
10711108;-0.41500
10713886;-0.43000
10716664;-0.42500
10719441;-0.42500
10722219;-0.41500
10724997;-0.41000
10727775;-0.43000
10730553;-0.43000
10733330;-0.41500
10736108;-0.41500
10738886;-0.40500
10741664;-0.40500
10744441;-0.42000
10747219;-0.42500
10749997;-0.44000
10752775;-0.42000
10755553;-0.42000
10758330;-0.41000
10761108;-0.42500
10763886;-0.43500
10766664;-0.42000
10769441;-0.41000
10772219;-0.39500
10774997;-0.39500
10777775;-0.39500
10780553;-0.40000
10783330;-0.40500
10786108;-0.38500
10788886;-0.37500
10791664;-0.36500
10794441;-0.38000
10797219;-0.38000
10799997;-0.37500
10802775;-0.36000
10805553;-0.35000
10808330;-0.34000
10811108;-0.33000
10813886;-0.34000
10816664;-0.32000
10819441;-0.28500
10822219;-0.27000
10824997;-0.27000
10827775;-0.28500
10830553;-0.31000
10833330;-0.31500
10836108;-0.31500
10838886;-0.31000
10841664;-0.32000
10844441;-0.30500
10847219;-0.32000
10849997;-0.32000
10852775;-0.31500
10855553;-0.30500
10858330;-0.29000
10861108;-0.28500
10863886;-0.31000
10866664;-0.32500
10869441;-0.35000
10872219;-0.35000
10874997;-0.36500
10877775;-0.40000
10880553;-0.44500
10883330;-0.44500
10886108;-0.45500
10888886;-0.44500
10891664;-0.43500
10894441;-0.43500
10897219;-0.45000
10899997;-0.44500
10902775;-0.44500
10905553;-0.43500
10908330;-0.43500
10911108;-0.43500
10913886;-0.44500
10916664;-0.44500
10919441;-0.45000
10922219;-0.44000
10924997;-0.45000
10927775;-0.45000
10930552;-0.45000
10933330;-0.45000
10936108;-0.43500
10938886;-0.44000
10941664;-0.46500
10944441;-0.48500
10947219;-0.48000
10949997;-0.47000
10952775;-0.47000
10955552;-0.47500
10958330;-0.49000
10961108;-0.53000
10963886;-0.59000
10966664;-0.59500
10969441;-0.61000
10972219;-0.64000
10974997;-0.67000
10977775;-0.65500
10980552;-0.57500
10983330;-0.45500
10986108;-0.30000
10988886;-0.11500
10991664;0.13000
10994441;0.41500
10997219;0.67000
10999997;0.87000
11002775;0.93000
11005552;0.82000
11008330;0.48000
11011108;0.03500
11013886;-0.34500
11016664;-0.53500
11019441;-0.57500
11022219;-0.55000
11024997;-0.52000
11027775;-0.49500
11030552;-0.50000
11033330;-0.50500
11036108;-0.49500
11038886;-0.48000
11041664;-0.48000
11044441;-0.48000
11047219;-0.49000
11049997;-0.50500
11052775;-0.49000
11055552;-0.48500
11058330;-0.48500
11061108;-0.48500
11063886;-0.49000
11066664;-0.49000
11069441;-0.48500
11072219;-0.48000
11074997;-0.47000
11077775;-0.48000
11080552;-0.49000
11083330;-0.48500
11086108;-0.48500
11088886;-0.47500
11091664;-0.47500
11094441;-0.48000
11097219;-0.48000
11099997;-0.48000
11102775;-0.46500
11105552;-0.47000
11108330;-0.47500
11111108;-0.49000
11113886;-0.50500
11116664;-0.50000
11119441;-0.48500
11122219;-0.49000
11124997;-0.50500
11127775;-0.50000
11130552;-0.50000
11133330;-0.49500
11136108;-0.48500
11138886;-0.48500
11141664;-0.49000
11144441;-0.49000
11147219;-0.50500
11149997;-0.49000
11152775;-0.48000
11155552;-0.47000
11158330;-0.46500
11161108;-0.47500
11163886;-0.48500
11166664;-0.49000
11169441;-0.47500
11172219;-0.47000
11174997;-0.46500
11177775;-0.47500
11180552;-0.49000
11183330;-0.48500
11186108;-0.49000
11188886;-0.48000
11191664;-0.47500
11194441;-0.47500
11197219;-0.49500
11199997;-0.48000
11202775;-0.47500
11205552;-0.47000
11208330;-0.47500
11211108;-0.47500
11213886;-0.48500
11216664;-0.49000
11219441;-0.49000
11222219;-0.47500
11224997;-0.48500
11227775;-0.49000
11230552;-0.49500
11233330;-0.50500
11236108;-0.49500
11238886;-0.48500
11241664;-0.49500
11244441;-0.49500
11247219;-0.51000
11249997;-0.50500
11252775;-0.50000
11255552;-0.50000
11258330;-0.50500
11261108;-0.51000
11263886;-0.51000
11266664;-0.50500
11269441;-0.50500
11272219;-0.49000
11274997;-0.47500
11277775;-0.47000
11280552;-0.47500
11283330;-0.45500
11286108;-0.43500
11288886;-0.41000
11291664;-0.40000
11294441;-0.40000
11297219;-0.39500
11299997;-0.38000
11302775;-0.36500
11305552;-0.34500
11308330;-0.34500
11311108;-0.34000
11313886;-0.34000
11316663;-0.33500
11319441;-0.31500
11322219;-0.31500
11324997;-0.31000
11327775;-0.33000
11330552;-0.33000
11333330;-0.32000
11336108;-0.31000
11338886;-0.31000
11341663;-0.31500
11344441;-0.32500
11347219;-0.33500
11349997;-0.32500
11352775;-0.32000
11355552;-0.31000
11358330;-0.31500
11361108;-0.31500
11363886;-0.32500
11366663;-0.32500
11369441;-0.32000
11372219;-0.30500
11374997;-0.30000
11377775;-0.32000
11380552;-0.32000
11383330;-0.31500
11386108;-0.31500
11388886;-0.30000
11391663;-0.30000
11394441;-0.31500
11397219;-0.31500
11399997;-0.32000
11402775;-0.31000
11405552;-0.31000
11408330;-0.31000
11411108;-0.31500
11413886;-0.32000
11416663;-0.32500
11419441;-0.32000
11422219;-0.32000
11424997;-0.33000
11427775;-0.33000
11430552;-0.35500
11433330;-0.34500
11436108;-0.34000
11438886;-0.33000
11441663;-0.33000
11444441;-0.34000
11447219;-0.36000
11449997;-0.35500
11452775;-0.35000
11455552;-0.33500
11458330;-0.34500
11461108;-0.35000
11463886;-0.37000
11466663;-0.36000
11469441;-0.35000
11472219;-0.33500
11474997;-0.33500
11477775;-0.33500
11480552;-0.34500
11483330;-0.34000
11486108;-0.33000
11488886;-0.32500
11491663;-0.33000
11494441;-0.33000
11497219;-0.35500
11499997;-0.34000
11502775;-0.34000
11505552;-0.33500
11508330;-0.33000
11511108;-0.34500
11513886;-0.35000
11516663;-0.34500
11519441;-0.34000
11522219;-0.34000
11524997;-0.34000
11527775;-0.34000
11530552;-0.35500
11533330;-0.35000
11536108;-0.35000
11538886;-0.35000
11541663;-0.33000
11544441;-0.34500
11547219;-0.34500
11549997;-0.34500
11552775;-0.33000
11555552;-0.32000
11558330;-0.33500
11561108;-0.32500
11563886;-0.34500
11566663;-0.32000
11569441;-0.31000
11572219;-0.29500
11574997;-0.29000
11577775;-0.29000
11580552;-0.29000
11583330;-0.28500
11586108;-0.27000
11588886;-0.25500
11591663;-0.24500
11594441;-0.25500
11597219;-0.26000
11599997;-0.25000
11602775;-0.22500
11605552;-0.21500
11608330;-0.22000
11611108;-0.21000
11613886;-0.21500
11616663;-0.21500
11619441;-0.20500
11622219;-0.19000
11624997;-0.20000
11627775;-0.21500
11630552;-0.22500
11633330;-0.21500
11636108;-0.19500
11638886;-0.18500
11641663;-0.18500
11644441;-0.17500
11647219;-0.17000
11649997;-0.14500
11652775;-0.16500
11655552;-0.20500
11658330;-0.24000
11661108;-0.26000
11663886;-0.27000
11666663;-0.28000
11669441;-0.29000
11672219;-0.28500
11674997;-0.33000
11677775;-0.33500
11680552;-0.34000
11683330;-0.33000
11686108;-0.32000
11688886;-0.30500
11691663;-0.30500
11694441;-0.31500
11697219;-0.32500
11699997;-0.33000
11702775;-0.32000
11705552;-0.32500
11708330;-0.33000
11711108;-0.32500
11713886;-0.34500
11716663;-0.33500
11719441;-0.32500
11722219;-0.32500
11724997;-0.32500
11727774;-0.34500
11730552;-0.34500
11733330;-0.34500
11736108;-0.34000
11738886;-0.33000
11741663;-0.33500
11744441;-0.35000
11747219;-0.35500
11749997;-0.35000
11752774;-0.35500
11755552;-0.37500
11758330;-0.41500
11761108;-0.45500
11763886;-0.48500
11766663;-0.51000
11769441;-0.53000
11772219;-0.53500
11774997;-0.47500
11777774;-0.35000
11780552;-0.19500
11783330;-0.02000
11786108;0.18000
11788886;0.42500
11791663;0.69500
11794441;0.92000
11797219;1.07000
11799997;1.18000
11802774;1.19000
11805552;0.99500
11808330;0.59000
11811108;0.08500
11813886;-0.30000
11816663;-0.47000
11819441;-0.45500
11822219;-0.38500
11824997;-0.34500
11827774;-0.34000
11830552;-0.35000
11833330;-0.36000
11836108;-0.35500
11838886;-0.35000
11841663;-0.35500
11844441;-0.36500
11847219;-0.38000
11849997;-0.37000
11852774;-0.37000
11855552;-0.37000
11858330;-0.36000
11861108;-0.36500
11863886;-0.38000
11866663;-0.38000
11869441;-0.36000
11872219;-0.35500
11874997;-0.36500
11877774;-0.37000
11880552;-0.38500
11883330;-0.37000
11886108;-0.36000
11888886;-0.35500
11891663;-0.35500
11894441;-0.37500
11897219;-0.38500
11899997;-0.38500
11902774;-0.36500
11905552;-0.35000
11908330;-0.35500
11911108;-0.36000
11913886;-0.37000
11916663;-0.36500
11919441;-0.36000
11922219;-0.35500
11924997;-0.35000
11927774;-0.36500
11930552;-0.37500
11933330;-0.36500
11936108;-0.36000
11938886;-0.34000
11941663;-0.34000
11944441;-0.34500
11947219;-0.36000
11949997;-0.36500
11952774;-0.34500
11955552;-0.34000
11958330;-0.33500
11961108;-0.34000
11963886;-0.35000
11966663;-0.34500
11969441;-0.36000
11972219;-0.35500
11974997;-0.36000
11977774;-0.35500
11980552;-0.36000
11983330;-0.35500
11986108;-0.35000
11988886;-0.34000
11991663;-0.34500
11994441;-0.35000
11997219;-0.36000
11999997;-0.35000
12002774;-0.34500
12005552;-0.34500
12008330;-0.34000
12011108;-0.34500
12013886;-0.36000
12016663;-0.35000
12019441;-0.34500
12022219;-0.34000
12024997;-0.33000
12027774;-0.33500
12030552;-0.33500
12033330;-0.33000
12036108;-0.32000
12038886;-0.31000
12041663;-0.31000
12044441;-0.32500
12047219;-0.34000
12049997;-0.35000
12052774;-0.33500
12055552;-0.35000
12058330;-0.34500
12061108;-0.34500
12063886;-0.36000
12066663;-0.35500
12069441;-0.34000
12072219;-0.34500
12074997;-0.35000
12077774;-0.35500
12080552;-0.34500
12083330;-0.35000
12086108;-0.33500
12088886;-0.33000
12091663;-0.32000
12094441;-0.31000
12097219;-0.31000
12099997;-0.29500
12102774;-0.27500
12105552;-0.26000
12108330;-0.26000
12111108;-0.26000
12113885;-0.26000
12116663;-0.24500
12119441;-0.24000
12122219;-0.22500
12124997;-0.21500
12127774;-0.22000
12130552;-0.23000
12133330;-0.22000
12136108;-0.22000
12138885;-0.21000
12141663;-0.21500
12144441;-0.23000
12147219;-0.22500
12149997;-0.22500
12152774;-0.22500
12155552;-0.22000
12158330;-0.23000
12161108;-0.22000
12163885;-0.23500
12166663;-0.23000
12169441;-0.21500
12172219;-0.20500
12174997;-0.21500
12177774;-0.22500
12180552;-0.23000
12183330;-0.24000
12186108;-0.23500
12188885;-0.23000
12191663;-0.23500
12194441;-0.24500
12197219;-0.25000
12199997;-0.25000
12202774;-0.23500
12205552;-0.23000
12208330;-0.23500
12211108;-0.24500
12213885;-0.26000
12216663;-0.25500
12219441;-0.24500
12222219;-0.24500
12224997;-0.25500
12227774;-0.26500
12230552;-0.27500
12233330;-0.27000
12236108;-0.27000
12238885;-0.26500
12241663;-0.26500
12244441;-0.27000
12247219;-0.28500
12249997;-0.29000
12252774;-0.28500
12255552;-0.28000
12258330;-0.28500
12261108;-0.29000
12263885;-0.29500
12266663;-0.28500
12269441;-0.29500
12272219;-0.28000
12274997;-0.28500
12277774;-0.29000
12280552;-0.30500
12283330;-0.30500
12286108;-0.30000
12288885;-0.30000
12291663;-0.29000
12294441;-0.29500
12297219;-0.31500
12299997;-0.30000
12302774;-0.30500
12305552;-0.29000
12308330;-0.29500
12311108;-0.30000
12313885;-0.31000
12316663;-0.30500
12319441;-0.29500
12322219;-0.29000
12324997;-0.28500
12327774;-0.29000
12330552;-0.30000
12333330;-0.29500
12336108;-0.28000
12338885;-0.28500
12341663;-0.28000
12344441;-0.28000
12347219;-0.29000
12349997;-0.29000
12352774;-0.27500
12355552;-0.26500
12358330;-0.27000
12361108;-0.27000
12363885;-0.28000
12366663;-0.26500
12369441;-0.24500
12372219;-0.24000
12374997;-0.23000
12377774;-0.23000
12380552;-0.23000
12383330;-0.22000
12386108;-0.21000
12388885;-0.20000
12391663;-0.21000
12394441;-0.20500
12397219;-0.20000
12399997;-0.19000
12402774;-0.17000
12405552;-0.15500
12408330;-0.15500
12411108;-0.17000
12413885;-0.17500
12416663;-0.18000
12419441;-0.17500
12422219;-0.16500
12424997;-0.15000
12427774;-0.15500
12430552;-0.17000
12433330;-0.16000
