time_ms;ecg_value
0;-0.50500
2778;-0.52000
5556;-0.52500
8333;-0.52000
11111;-0.51000
13889;-0.49500
16667;-0.50000
19444;-0.50000
22222;-0.51000
25000;-0.49000
27778;-0.48000
30556;-0.46500
33333;-0.46000
36111;-0.44500
38889;-0.45000
41667;-0.43500
44444;-0.41000
47222;-0.38500
50000;-0.38500
52778;-0.37000
55556;-0.37500
58333;-0.36000
61111;-0.35000
63889;-0.33500
66667;-0.33000
69444;-0.33500
72222;-0.34500
75000;-0.33000
77778;-0.31000
80556;-0.30000
83333;-0.30500
86111;-0.31500
88889;-0.31500
91667;-0.31000
94444;-0.30500
97222;-0.31000
100000;-0.30000
102778;-0.30500
105556;-0.32000
108333;-0.32500
111111;-0.32500
113889;-0.30500
116667;-0.32000
119444;-0.32000
122222;-0.33500
125000;-0.34000
127778;-0.31500
130556;-0.31000
133333;-0.31500
136111;-0.31000
138889;-0.33000
141667;-0.31500
144444;-0.32000
147222;-0.31000
150000;-0.31000
152778;-0.31000
155556;-0.31000
158333;-0.31500
161111;-0.29500
163889;-0.28500
166667;-0.29000
169444;-0.30000
172222;-0.31000
175000;-0.31500
177778;-0.30000
180556;-0.31500
183333;-0.32000
186111;-0.33500
188889;-0.33500
191667;-0.34000
194444;-0.33500
197222;-0.32500
200000;-0.32000
202778;-0.33500
205555;-0.34500
208333;-0.34000
211111;-0.33000
213889;-0.31500
216667;-0.32000
219444;-0.33000
222222;-0.33500
225000;-0.33000
227778;-0.32000
230555;-0.31000
233333;-0.31500
236111;-0.31500
238889;-0.32000
241667;-0.32500
244444;-0.31500
247222;-0.32000
250000;-0.31500
252778;-0.33500
255555;-0.32500
258333;-0.34000
261111;-0.32500
263889;-0.32000
266667;-0.31000
269444;-0.32000
272222;-0.33000
275000;-0.33000
277778;-0.32500
280555;-0.31000
283333;-0.30500
286111;-0.32000
288889;-0.33000
291667;-0.32500
294444;-0.31500
297222;-0.31500
300000;-0.30500
302778;-0.30500
305555;-0.32500
308333;-0.31500
311111;-0.30500
313889;-0.29500
316667;-0.29000
319444;-0.30000
322222;-0.31000
325000;-0.29000
327778;-0.29500
330555;-0.26500
333333;-0.26500
336111;-0.26000
338889;-0.26500
341667;-0.25500
344444;-0.24500
347222;-0.23000
350000;-0.22000
352778;-0.22500
355555;-0.22000
358333;-0.21000
361111;-0.19000
363889;-0.18000
366667;-0.17500
369444;-0.19500
372222;-0.21000
375000;-0.21000
377778;-0.21000
380555;-0.20500
383333;-0.20500
386111;-0.20000
388889;-0.22500
391667;-0.23000
394444;-0.21500
397222;-0.20000
400000;-0.18000
402778;-0.17500
405555;-0.20500
408333;-0.24500
411111;-0.26500
413889;-0.26000
416667;-0.27500
419444;-0.29500
422222;-0.32000
425000;-0.32000
427778;-0.32500
430555;-0.31500
433333;-0.31500
436111;-0.31500
438889;-0.32500
441667;-0.32500
444444;-0.31500
447222;-0.31000
450000;-0.30500
452778;-0.32000
455555;-0.32500
458333;-0.32500
461111;-0.31500
463889;-0.31500
466667;-0.32500
469444;-0.33000
472222;-0.33000
475000;-0.34000
477778;-0.32000
480555;-0.31000
483333;-0.31000
486111;-0.32000
488889;-0.33500
491667;-0.36000
494444;-0.36500
497222;-0.39000
500000;-0.43500
502778;-0.46000
505555;-0.50000
508333;-0.52500
511111;-0.50500
513889;-0.40500
516667;-0.23000
519444;-0.03500
522222;0.16500
525000;0.43000
527778;0.76000
530555;1.01500
533333;1.16500
536111;1.16500
538889;0.98000
541667;0.53500
544444;0.02500
547222;-0.33500
550000;-0.44500
552778;-0.41500
555555;-0.35500
558333;-0.32000
561111;-0.32500
563889;-0.33000
566667;-0.34000
569444;-0.34000
572222;-0.35000
575000;-0.34500
577778;-0.35500
580555;-0.33500
583333;-0.33500
586111;-0.34500
588889;-0.36500
591667;-0.36000
594444;-0.35000
597222;-0.33500
600000;-0.34500
602778;-0.34500
605555;-0.35500
608333;-0.36500
611111;-0.35500
613889;-0.35000
616666;-0.36000
619444;-0.36000
622222;-0.37000
625000;-0.37500
627778;-0.36500
630555;-0.35500
633333;-0.35500
636111;-0.37000
638889;-0.37500
641666;-0.37500
644444;-0.38000
647222;-0.36000
650000;-0.35500
652778;-0.37000
655555;-0.37000
658333;-0.37500
661111;-0.35500
663889;-0.35500
666666;-0.34500
669444;-0.36000
672222;-0.35500
675000;-0.36000
677778;-0.35000
680555;-0.35000
683333;-0.35500
686111;-0.36000
688889;-0.37500
691666;-0.37000
694444;-0.36000
697222;-0.35500
700000;-0.36500
702778;-0.37500
705555;-0.37000
708333;-0.38000
711111;-0.37000
713889;-0.37000
716666;-0.35500
719444;-0.37000
722222;-0.38000
725000;-0.37500
727778;-0.37500
730555;-0.36000
733333;-0.35500
736111;-0.36500
738889;-0.38000
741666;-0.38000
744444;-0.37000
747222;-0.36000
750000;-0.37000
752778;-0.39000
755555;-0.39500
758333;-0.40000
761111;-0.39000
763889;-0.38500
766666;-0.39000
769444;-0.38500
772222;-0.39500
775000;-0.39500
777778;-0.39000
780555;-0.37500
783333;-0.38500
786111;-0.39500
788889;-0.40000
791666;-0.41000
794444;-0.39500
797222;-0.38500
800000;-0.38500
802778;-0.39000
805555;-0.38500
808333;-0.38500
811111;-0.37500
813889;-0.36000
816666;-0.36000
819444;-0.36000
822222;-0.35000
825000;-0.35500
827778;-0.33500
830555;-0.31500
833333;-0.31000
836111;-0.31500
838889;-0.30500
841666;-0.30000
844444;-0.28500
847222;-0.27000
850000;-0.27000
852778;-0.27500
855555;-0.28000
858333;-0.27500
861111;-0.26500
863889;-0.25000
866666;-0.25000
869444;-0.26000
872222;-0.26500
875000;-0.27000
877778;-0.25000
880555;-0.24500
883333;-0.25000
886111;-0.25000
888889;-0.26000
891666;-0.26000
894444;-0.25000
897222;-0.24500
900000;-0.24500
902778;-0.26000
905555;-0.26500
908333;-0.26500
911111;-0.26500
913889;-0.25500
916666;-0.26000
919444;-0.27000
922222;-0.27500
925000;-0.28500
927778;-0.28000
930555;-0.27000
933333;-0.28000
936111;-0.27500
938889;-0.29000
941666;-0.29500
944444;-0.29000
947222;-0.27000
950000;-0.29000
952778;-0.29500
955555;-0.29000
958333;-0.30000
961111;-0.29500
963889;-0.28500
966666;-0.29000
969444;-0.29000
972222;-0.31000
975000;-0.30000
977778;-0.29000
980555;-0.27500
983333;-0.29500
986111;-0.30500
988889;-0.32500
991666;-0.31500
994444;-0.30000
997222;-0.30000
1000000;-0.30000
1002777;-0.31500
1005555;-0.31000
1008333;-0.32000
1011111;-0.30000
1013889;-0.30000
1016666;-0.30000
1019444;-0.31500
1022222;-0.32500
1025000;-0.31000
1027777;-0.31500
1030555;-0.30500
1033333;-0.30500
1036111;-0.31500
1038889;-0.32500
1041666;-0.32000
1044444;-0.32000
1047222;-0.30000
1050000;-0.30000
1052777;-0.29500
1055555;-0.30000
1058333;-0.31500
1061111;-0.29500
1063889;-0.30000
1066666;-0.30500
1069444;-0.31000
1072222;-0.31500
1075000;-0.32000
1077777;-0.32000
1080555;-0.30500
1083333;-0.30000
1086111;-0.30500
1088889;-0.31500
1091666;-0.31000
1094444;-0.30500
1097222;-0.29500
1100000;-0.30000
1102777;-0.30000
1105555;-0.30500
1108333;-0.29500
1111111;-0.28000
1113889;-0.26000
1116666;-0.25500
1119444;-0.25000
1122222;-0.24000
1125000;-0.23500
1127777;-0.22000
1130555;-0.21000
1133333;-0.21500
1136111;-0.21000
1138889;-0.21500
1141666;-0.22500
1144444;-0.19000
1147222;-0.17000
1150000;-0.18000
1152777;-0.18500
1155555;-0.20000
1158333;-0.21000
1161111;-0.21000
1163889;-0.19500
1166666;-0.20000
1169444;-0.21500
1172222;-0.21000
1175000;-0.22000
1177777;-0.21000
1180555;-0.19500
1183333;-0.17000
1186111;-0.15500
1188889;-0.17500
1191666;-0.18500
1194444;-0.20000
1197222;-0.20500
1200000;-0.22500
1202777;-0.23000
1205555;-0.25000
1208333;-0.26500
1211111;-0.28000
1213889;-0.27500
1216666;-0.28500
1219444;-0.29500
1222222;-0.31000
1225000;-0.32500
1227777;-0.31500
1230555;-0.31000
1233333;-0.31500
1236111;-0.31500
1238889;-0.33000
1241666;-0.33000
1244444;-0.32000
1247222;-0.31000
1250000;-0.32500
1252777;-0.32500
1255555;-0.33500
1258333;-0.35000
1261111;-0.34000
1263889;-0.31500
1266666;-0.32500
1269444;-0.32500
1272222;-0.34500
1275000;-0.34000
1277777;-0.33000
1280555;-0.33500
1283333;-0.36000
1286111;-0.41000
1288889;-0.46000
1291666;-0.49000
1294444;-0.50500
1297222;-0.55000
1300000;-0.57000
1302777;-0.54000
1305555;-0.47000
1308333;-0.36500
1311111;-0.24000
1313889;-0.13000
1316666;-0.01500
1319444;0.13500
1322222;0.35500
1325000;0.64000
1327777;0.91500
1330555;1.10500
1333333;1.14500
1336111;1.03000
1338889;0.69500
1341666;0.21000
1344444;-0.18000
1347222;-0.39000
1350000;-0.43000
1352777;-0.38000
1355555;-0.34000
1358333;-0.33000
1361111;-0.33500
1363889;-0.33000
1366666;-0.34000
1369444;-0.34500
1372222;-0.36000
1375000;-0.37000
1377777;-0.36500
1380555;-0.36000
1383333;-0.36000
1386111;-0.37000
1388888;-0.38000
1391666;-0.38000
1394444;-0.37500
1397222;-0.37500
1400000;-0.37000
1402777;-0.38000
1405555;-0.38500
1408333;-0.38000
1411111;-0.38500
1413888;-0.36500
1416666;-0.37500
1419444;-0.37000
1422222;-0.38000
1425000;-0.38000
1427777;-0.37000
1430555;-0.36000
1433333;-0.37000
1436111;-0.37000
1438888;-0.38000
1441666;-0.39000
1444444;-0.37500
1447222;-0.36500
1450000;-0.36000
1452777;-0.38000
1455555;-0.38000
1458333;-0.38500
1461111;-0.37500
1463888;-0.36500
1466666;-0.36000
1469444;-0.37000
1472222;-0.38500
1475000;-0.38500
1477777;-0.37000
1480555;-0.36000
1483333;-0.36500
1486111;-0.38500
1488888;-0.38000
1491666;-0.38500
1494444;-0.37000
1497222;-0.35000
1500000;-0.36000
1502777;-0.37000
1505555;-0.37500
1508333;-0.38000
1511111;-0.36000
1513888;-0.34500
1516666;-0.36000
1519444;-0.37500
1522222;-0.39000
1525000;-0.39500
1527777;-0.38500
1530555;-0.37500
1533333;-0.38000
1536111;-0.39500
1538888;-0.39500
1541666;-0.39000
1544444;-0.38000
1547222;-0.38500
1550000;-0.39000
1552777;-0.39500
1555555;-0.39500
1558333;-0.40000
1561111;-0.39500
1563888;-0.37500
1566666;-0.38500
1569444;-0.39500
1572222;-0.41000
1575000;-0.41000
1577777;-0.39000
1580555;-0.40000
1583333;-0.38500
1586111;-0.41000
1588888;-0.42000
1591666;-0.41000
1594444;-0.39500
1597222;-0.39000
1600000;-0.38500
1602777;-0.39000
1605555;-0.40000
1608333;-0.40500
1611111;-0.38500
1613888;-0.37000
1616666;-0.36000
1619444;-0.36500
1622222;-0.35500
1625000;-0.35500
1627777;-0.34000
1630555;-0.31500
1633333;-0.30500
1636111;-0.30500
1638888;-0.32000
1641666;-0.31000
1644444;-0.29500
1647222;-0.28000
1650000;-0.27500
1652777;-0.28000
1655555;-0.28500
1658333;-0.28000
1661111;-0.28000
1663888;-0.26500
1666666;-0.27000
1669444;-0.28000
1672222;-0.28500
1675000;-0.28000
1677777;-0.27500
1680555;-0.27000
1683333;-0.27000
1686111;-0.26000
1688888;-0.27500
1691666;-0.28500
1694444;-0.28500
1697222;-0.27000
1700000;-0.27500
1702777;-0.28000
1705555;-0.29000
1708333;-0.29000
1711111;-0.29000
1713888;-0.28500
1716666;-0.29000
1719444;-0.28500
1722222;-0.30000
1725000;-0.30000
1727777;-0.29000
1730555;-0.29500
1733333;-0.29500
1736111;-0.30000
1738888;-0.30500
1741666;-0.30500
1744444;-0.30000
1747222;-0.28500
1750000;-0.29500
1752777;-0.30000
1755555;-0.31000
1758333;-0.30500
1761111;-0.30500
1763888;-0.29500
1766666;-0.30500
1769444;-0.30500
1772222;-0.31500
1775000;-0.31500
1777777;-0.31000
1780555;-0.30000
1783333;-0.30000
1786111;-0.32000
1788888;-0.33000
1791666;-0.32500
1794444;-0.32000
1797222;-0.32000
1799999;-0.31500
1802777;-0.34000
1805555;-0.33500
1808333;-0.35500
1811111;-0.34000
1813888;-0.34000
1816666;-0.34000
1819444;-0.34500
1822222;-0.34500
1824999;-0.34500
1827777;-0.33500
1830555;-0.33000
1833333;-0.34000
1836111;-0.34500
1838888;-0.34500
1841666;-0.35500
1844444;-0.33500
1847222;-0.33000
1849999;-0.34000
1852777;-0.32500
1855555;-0.33000
1858333;-0.34500
1861111;-0.33000
1863888;-0.33000
1866666;-0.34000
1869444;-0.33500
1872222;-0.34500
1874999;-0.35000
1877777;-0.35000
1880555;-0.32500
1883333;-0.33500
1886111;-0.34000
1888888;-0.34500
1891666;-0.34500
1894444;-0.34500
1897222;-0.34000
1899999;-0.33000
1902777;-0.34500
1905555;-0.34500
1908333;-0.35000
1911111;-0.34000
1913888;-0.33000
1916666;-0.32500
1919444;-0.31500
1922222;-0.30500
1924999;-0.27500
1927777;-0.26000
1930555;-0.24500
1933333;-0.24500
1936111;-0.24500
1938888;-0.26000
1941666;-0.25000
1944444;-0.24000
1947222;-0.22500
1949999;-0.21500
1952777;-0.21500
1955555;-0.22000
1958333;-0.22500
1961111;-0.22500
1963888;-0.22000
1966666;-0.23000
1969444;-0.24000
1972222;-0.25500
1974999;-0.25500
1977777;-0.25000
1980555;-0.22500
1983333;-0.23000
1986111;-0.23500
1988888;-0.25500
1991666;-0.25000
1994444;-0.22500
1997222;-0.19000
1999999;-0.20000
2002777;-0.22500
2005555;-0.26000
2008333;-0.27500
2011111;-0.27000
2013888;-0.28500
2016666;-0.30500
2019444;-0.31500
2022222;-0.33500
2024999;-0.35000
2027777;-0.34500
2030555;-0.34000
2033333;-0.35500
2036111;-0.35500
2038888;-0.34500
2041666;-0.34500
2044444;-0.34500
2047222;-0.34500
2049999;-0.36000
2052777;-0.37000
2055555;-0.37000
2058333;-0.36500
2061111;-0.36000
2063888;-0.35500
2066666;-0.35500
2069444;-0.35500
2072222;-0.37500
2074999;-0.35500
2077777;-0.36000
2080555;-0.36000
2083333;-0.35500
2086111;-0.37000
2088888;-0.37000
2091666;-0.36500
2094444;-0.35500
2097222;-0.35000
2099999;-0.35500
2102777;-0.36000
2105555;-0.39000
2108333;-0.43500
2111111;-0.47500
2113888;-0.48500
2116666;-0.52500
2119444;-0.55500
2122222;-0.57500
2124999;-0.55500
2127777;-0.44500
2130555;-0.30000
2133333;-0.14000
2136111;0.03500
2138888;0.23000
2141666;0.50000
2144444;0.76000
2147222;0.93500
2149999;1.01500
2152777;0.96500
2155555;0.74500
2158333;0.36000
2161111;-0.04000
2163888;-0.31000
2166666;-0.45500
2169444;-0.47500
2172222;-0.44500
2174999;-0.40000
2177777;-0.38500
2180555;-0.37500
2183333;-0.38500
2186110;-0.39500
2188888;-0.41500
2191666;-0.40500
2194444;-0.40500
2197222;-0.39500
2199999;-0.41000
2202777;-0.40500
2205555;-0.41000
2208333;-0.42000
2211110;-0.41000
2213888;-0.40500
2216666;-0.40000
2219444;-0.40500
2222222;-0.41500
2224999;-0.42000
2227777;-0.41000
2230555;-0.39000
2233333;-0.40000
2236110;-0.42000
2238888;-0.42500
2241666;-0.43500
2244444;-0.42000
2247222;-0.41500
2249999;-0.41500
2252777;-0.41500
2255555;-0.41500
2258333;-0.41000
2261110;-0.40500
2263888;-0.40000
2266666;-0.40500
2269444;-0.40500
2272222;-0.40500
2274999;-0.40000
2277777;-0.39000
2280555;-0.38500
2283333;-0.39000
2286110;-0.40000
2288888;-0.41000
2291666;-0.42000
2294444;-0.39500
2297222;-0.39500
2299999;-0.40000
2302777;-0.39500
2305555;-0.41000
2308333;-0.41000
2311110;-0.40000
2313888;-0.39500
2316666;-0.41000
2319444;-0.41500
2322222;-0.42000
2324999;-0.41000
2327777;-0.41500
2330555;-0.42000
2333333;-0.42000
2336110;-0.43000
2338888;-0.43000
2341666;-0.43500
2344444;-0.42000
2347222;-0.40000
2349999;-0.41000
2352777;-0.40000
2355555;-0.41500
2358333;-0.41500
2361110;-0.41000
2363888;-0.40000
2366666;-0.40500
2369444;-0.41500
2372222;-0.42000
2374999;-0.44000
2377777;-0.42500
2380555;-0.43000
2383333;-0.42500
2386110;-0.42000
2388888;-0.43000
2391666;-0.44000
2394444;-0.43500
2397222;-0.42000
2399999;-0.44000
2402777;-0.45000
2405555;-0.46000
2408333;-0.46000
2411110;-0.46000
2413888;-0.44000
2416666;-0.44000
2419444;-0.45500
2422222;-0.46000
2424999;-0.46500
2427777;-0.46500
2430555;-0.45500
2433333;-0.45500
2436110;-0.44000
2438888;-0.44500
2441666;-0.44000
2444444;-0.43500
2447222;-0.41000
2449999;-0.41500
2452777;-0.42500
2455555;-0.41500
2458333;-0.41000
2461110;-0.40500
2463888;-0.41000
2466666;-0.38500
2469444;-0.39500
2472222;-0.40000
2474999;-0.39000
2477777;-0.36500
2480555;-0.33500
2483333;-0.33500
2486110;-0.34500
2488888;-0.35000
2491666;-0.35000
2494444;-0.35000
2497222;-0.34000
2499999;-0.33500
2502777;-0.35500
2505555;-0.33000
2508333;-0.33500
2511110;-0.31500
2513888;-0.30000
2516666;-0.29500
2519444;-0.30500
2522222;-0.30500
2524999;-0.32500
2527777;-0.31500
2530555;-0.32000
2533333;-0.34000
2536110;-0.33500
2538888;-0.33500
2541666;-0.34000
2544444;-0.32500
2547222;-0.31500
2549999;-0.32500
2552777;-0.33500
2555555;-0.36000
2558333;-0.35500
2561110;-0.35000
2563888;-0.33500
2566666;-0.33000
2569444;-0.33000
2572222;-0.33000
2574999;-0.35000
2577777;-0.35500
2580555;-0.35000
2583333;-0.36500
2586110;-0.38500
2588888;-0.38000
2591666;-0.38000
2594444;-0.37500
2597221;-0.36500
2599999;-0.37500
2602777;-0.37500
2605555;-0.37500
2608333;-0.39500
2611110;-0.38000
2613888;-0.37500
2616666;-0.37500
2619444;-0.38500
2622221;-0.39500
2624999;-0.39500
2627777;-0.38500
2630555;-0.37500
2633333;-0.37500
2636110;-0.38500
2638888;-0.39500
2641666;-0.40000
2644444;-0.39000
2647221;-0.38000
2649999;-0.36500
2652777;-0.37500
2655555;-0.38500
2658333;-0.39500
2661110;-0.39500
2663888;-0.39500
2666666;-0.40000
2669444;-0.41000
2672221;-0.40000
2674999;-0.40500
2677777;-0.39000
2680555;-0.38000
2683333;-0.39000
2686110;-0.39000
2688888;-0.40500
2691666;-0.40500
2694444;-0.40500
2697221;-0.41500
2699999;-0.41000
2702777;-0.41500
2705555;-0.40000
2708333;-0.41000
2711110;-0.40000
2713888;-0.38500
2716666;-0.38000
2719444;-0.39000
2722221;-0.40000
2724999;-0.40500
2727777;-0.39500
2730555;-0.39500
2733333;-0.38500
2736110;-0.38000
2738888;-0.38500
2741666;-0.40500
2744444;-0.39000
2747221;-0.37000
2749999;-0.37500
2752777;-0.39000
2755555;-0.40000
2758333;-0.40500
2761110;-0.38000
2763888;-0.36000
2766666;-0.35000
2769444;-0.34500
2772221;-0.34500
2774999;-0.34500
2777777;-0.33500
2780555;-0.33500
2783333;-0.34000
2786110;-0.33500
2788888;-0.33000
2791666;-0.32500
2794444;-0.31000
2797221;-0.29500
2799999;-0.29000
2802777;-0.27500
2805555;-0.28000
2808333;-0.29500
2811110;-0.27500
2813888;-0.27500
2816666;-0.27000
2819444;-0.27500
2822221;-0.29500
2824999;-0.31000
2827777;-0.30500
2830555;-0.29500
2833333;-0.29000
2836110;-0.30500
2838888;-0.32000
2841666;-0.35000
2844444;-0.34000
2847221;-0.34000
2849999;-0.32500
2852777;-0.30000
2855555;-0.29500
2858333;-0.30500
2861110;-0.32500
2863888;-0.34000
2866666;-0.35000
2869444;-0.37500
2872221;-0.40000
2874999;-0.41000
2877777;-0.42000
2880555;-0.40500
2883333;-0.42500
2886110;-0.43000
2888888;-0.43500
2891666;-0.42500
2894444;-0.42000
2897221;-0.41500
2899999;-0.42000
2902777;-0.42000
2905555;-0.41000
2908333;-0.42500
2911110;-0.43000
2913888;-0.43000
2916666;-0.43000
2919444;-0.45000
2922221;-0.45500
2924999;-0.44500
2927777;-0.44500
2930555;-0.42500
2933333;-0.43000
2936110;-0.44500
2938888;-0.45500
2941666;-0.46500
2944444;-0.46500
2947221;-0.45000
2949999;-0.48000
2952777;-0.52500
2955555;-0.55000
2958333;-0.59000
2961110;-0.61500
2963888;-0.63000
2966666;-0.58000
2969444;-0.50000
2972221;-0.37500
2974999;-0.20500
2977777;-0.01500
2980555;0.21500
2983332;0.49500
2986110;0.72000
2988888;0.87000
2991666;0.92500
2994444;0.81000
2997221;0.48500
2999999;0.03000
3002777;-0.34000
3005555;-0.52000
3008332;-0.57000
3011110;-0.54000
3013888;-0.50500
3016666;-0.48500
3019444;-0.48000
3022221;-0.48500
3024999;-0.48500
3027777;-0.47000
3030555;-0.45000
3033332;-0.42500
3036110;-0.43000
3038888;-0.43500
3041666;-0.45500
3044444;-0.46000
3047221;-0.45500
3049999;-0.46000
3052777;-0.46500
3055555;-0.47500
3058332;-0.47500
3061110;-0.46000
3063888;-0.45500
3066666;-0.45500
3069444;-0.45500
3072221;-0.47500
3074999;-0.47500
3077777;-0.46000
3080555;-0.44500
3083332;-0.45000
3086110;-0.46500
3088888;-0.48000
3091666;-0.48500
3094444;-0.47000
3097221;-0.46500
3099999;-0.45500
3102777;-0.45500
3105555;-0.46000
3108332;-0.45500
3111110;-0.45500
3113888;-0.45000
3116666;-0.46500
3119444;-0.46500
3122221;-0.47500
3124999;-0.49000
3127777;-0.46500
3130555;-0.44500
3133332;-0.46500
3136110;-0.47000
3138888;-0.48500
3141666;-0.49500
3144444;-0.47000
3147221;-0.45000
3149999;-0.45000
3152777;-0.47000
3155555;-0.48000
3158332;-0.47500
3161110;-0.46000
3163888;-0.45500
3166666;-0.46500
3169444;-0.48500
3172221;-0.48500
3174999;-0.47000
3177777;-0.47000
3180555;-0.45500
3183332;-0.45500
3186110;-0.47000
3188888;-0.46000
3191666;-0.46500
3194444;-0.47000
3197221;-0.47500
3199999;-0.49000
3202777;-0.48000
3205555;-0.47000
3208332;-0.47500
3211110;-0.47000
3213888;-0.47500
3216666;-0.47000
3219444;-0.49000
3222221;-0.50500
3224999;-0.51000
3227777;-0.49500
3230555;-0.48500
3233332;-0.48000
3236110;-0.49500
3238888;-0.49500
3241666;-0.50000
3244444;-0.50000
3247221;-0.49000
3249999;-0.49000
3252777;-0.51500
3255555;-0.52500
3258332;-0.54000
3261110;-0.53500
3263888;-0.52500
3266666;-0.52500
3269444;-0.53000
3272221;-0.54500
3274999;-0.54000
3277777;-0.52500
3280555;-0.52000
3283332;-0.51500
3286110;-0.53000
3288888;-0.52500
3291666;-0.52500
3294444;-0.51000
3297221;-0.49000
3299999;-0.48000
3302777;-0.48000
3305555;-0.47000
3308332;-0.46000
3311110;-0.43500
3313888;-0.41000
3316666;-0.40500
3319444;-0.40000
3322221;-0.40000
3324999;-0.39500
3327777;-0.37500
3330555;-0.35000
3333332;-0.34500
3336110;-0.35500
3338888;-0.36500
3341666;-0.35500
3344444;-0.34500
3347221;-0.33500
3349999;-0.32500
3352777;-0.34000
3355555;-0.34000
3358332;-0.33500
3361110;-0.32500
3363888;-0.32000
3366666;-0.33000
3369444;-0.35000
3372221;-0.34000
3374999;-0.35000
3377777;-0.34000
3380555;-0.33500
3383332;-0.33500
3386110;-0.33500
3388888;-0.34000
3391666;-0.33500
3394443;-0.35500
3397221;-0.34000
3399999;-0.33500
3402777;-0.33500
3405555;-0.35500
3408332;-0.37000
3411110;-0.34500
3413888;-0.34000
3416666;-0.34000
3419443;-0.34500
3422221;-0.35500
3424999;-0.35000
3427777;-0.34500
3430555;-0.34000
3433332;-0.34500
3436110;-0.34500
3438888;-0.36000
3441666;-0.35500
3444443;-0.35500
3447221;-0.35000
3449999;-0.36500
3452777;-0.37500
3455555;-0.38000
3458332;-0.38000
3461110;-0.36000
3463888;-0.35500
3466666;-0.35500
3469443;-0.36000
3472221;-0.37000
3474999;-0.37500
3477777;-0.36000
3480555;-0.35500
3483332;-0.35500
3486110;-0.36000
3488888;-0.37000
3491666;-0.36500
3494443;-0.35500
3497221;-0.35000
3499999;-0.35000
3502777;-0.34500
3505555;-0.35000
3508332;-0.34500
3511110;-0.33000
3513888;-0.32500
3516666;-0.32500
3519443;-0.33000
3522221;-0.34000
3524999;-0.34000
3527777;-0.33000
3530555;-0.32000
3533332;-0.32000
3536110;-0.33500
3538888;-0.34000
3541666;-0.34000
3544443;-0.33000
3547221;-0.33000
3549999;-0.32000
3552777;-0.34000
3555555;-0.34000
3558332;-0.34500
3561110;-0.33000
3563888;-0.31000
3566666;-0.31500
3569443;-0.32000
3572221;-0.32000
3574999;-0.33000
3577777;-0.32000
3580555;-0.30500
3583332;-0.30500
3586110;-0.30500
3588888;-0.31000
3591666;-0.31500
3594443;-0.30500
3597221;-0.29500
3599999;-0.29500
3602777;-0.28000
3605555;-0.28500
3608332;-0.27500
3611110;-0.26500
3613888;-0.24500
3616666;-0.24500
3619443;-0.25000
3622221;-0.24500
3624999;-0.24000
3627777;-0.22500
3630555;-0.20500
3633332;-0.19500
3636110;-0.21000
3638888;-0.21000
3641666;-0.21000
3644443;-0.20500
3647221;-0.20000
3649999;-0.21500
3652777;-0.22000
3655555;-0.23000
3658332;-0.23000
3661110;-0.21000
3663888;-0.20500
3666666;-0.20500
3669443;-0.22000
3672221;-0.22500
3674999;-0.20500
3677777;-0.19500
3680555;-0.17000
3683332;-0.17000
3686110;-0.20000
3688888;-0.24000
3691666;-0.26500
3694443;-0.26500
3697221;-0.27000
3699999;-0.29000
3702777;-0.31000
3705555;-0.31500
3708332;-0.32500
3711110;-0.32000
3713888;-0.31500
3716666;-0.32500
3719443;-0.33000
3722221;-0.33500
3724999;-0.33000
3727777;-0.32000
3730555;-0.30000
3733332;-0.31500
3736110;-0.32500
3738888;-0.34000
3741666;-0.34500
3744443;-0.33500
3747221;-0.31000
3749999;-0.32000
3752777;-0.33000
3755555;-0.33500
3758332;-0.34000
3761110;-0.34000
3763888;-0.33000
3766666;-0.32500
3769443;-0.33500
3772221;-0.34000
3774999;-0.36500
3777777;-0.37500
3780554;-0.39500
3783332;-0.43500
3786110;-0.45000
3788888;-0.48000
3791666;-0.49000
3794443;-0.51500
3797221;-0.55000
3799999;-0.59000
3802777;-0.57500
3805554;-0.53000
3808332;-0.43500
3811110;-0.30500
3813888;-0.16000
3816666;-0.02000
3819443;0.15000
3822221;0.37500
3824999;0.67000
3827777;0.93500
3830554;1.11500
3833332;1.17000
3836110;1.08000
3838888;0.77500
3841666;0.30000
3844443;-0.14000
3847221;-0.38500
3849999;-0.44000
3852777;-0.42000
3855554;-0.37000
3858332;-0.34000
3861110;-0.32500
3863888;-0.32500
3866666;-0.34000
3869443;-0.35000
3872221;-0.35000
3874999;-0.36500
3877777;-0.35500
3880554;-0.34500
3883332;-0.34500
3886110;-0.35500
3888888;-0.35500
3891666;-0.37000
3894443;-0.36000
3897221;-0.35000
3899999;-0.34500
3902777;-0.34500
3905554;-0.34500
3908332;-0.36000
3911110;-0.34500
3913888;-0.34000
3916666;-0.33500
3919443;-0.34000
3922221;-0.34500
3924999;-0.34500
3927777;-0.33000
3930554;-0.32500
3933332;-0.33000
3936110;-0.34000
3938888;-0.34000
3941666;-0.34500
3944443;-0.33500
3947221;-0.32500
3949999;-0.33000
3952777;-0.33500
3955554;-0.35000
3958332;-0.34500
3961110;-0.34500
3963888;-0.33500
3966666;-0.33000
3969443;-0.34000
3972221;-0.34500
3974999;-0.36000
3977777;-0.34000
3980554;-0.33500
3983332;-0.33500
3986110;-0.34000
3988888;-0.35500
3991666;-0.35500
3994443;-0.34500
3997221;-0.33000
3999999;-0.33000
4002777;-0.32500
4005554;-0.33500
4008332;-0.34000
4011110;-0.34000
4013888;-0.33500
4016666;-0.33000
4019443;-0.32500
4022221;-0.33000
4024999;-0.34500
4027777;-0.34000
4030554;-0.33500
4033332;-0.34000
4036110;-0.34000
4038888;-0.35500
4041666;-0.35000
4044443;-0.34000
4047221;-0.33000
4049999;-0.33000
4052777;-0.33500
4055554;-0.35500
4058332;-0.35500
4061110;-0.33500
4063888;-0.33500
4066666;-0.35000
4069443;-0.35500
4072221;-0.36500
4074999;-0.36000
4077777;-0.37000
4080554;-0.37000
4083332;-0.36500
4086110;-0.37000
4088888;-0.38000
4091666;-0.37500
4094443;-0.37500
4097221;-0.37000
4099999;-0.36000
4102777;-0.37500
4105554;-0.38500
4108332;-0.37500
4111110;-0.36000
4113888;-0.34500
4116666;-0.33000
4119443;-0.33500
4122221;-0.34000
4124999;-0.32500
4127777;-0.30000
4130554;-0.28500
4133332;-0.26000
4136110;-0.27000
4138888;-0.28000
4141666;-0.26000
4144443;-0.25000
4147221;-0.24000
4149999;-0.22500
4152777;-0.23000
4155554;-0.24000
4158332;-0.23000
4161110;-0.22000
4163888;-0.21000
4166666;-0.20500
4169443;-0.21000
4172221;-0.23000
4174999;-0.21500
4177777;-0.21500
4180554;-0.20000
4183332;-0.19500
4186110;-0.20000
4188888;-0.22000
4191665;-0.21000
4194443;-0.20500
4197221;-0.20000
4199999;-0.20500
4202777;-0.20500
4205554;-0.22000
4208332;-0.23000
4211110;-0.23000
4213888;-0.22500
4216665;-0.21500
4219443;-0.22000
4222221;-0.23000
4224999;-0.23000
4227777;-0.24000
4230554;-0.22000
4233332;-0.22500
4236110;-0.24000
4238888;-0.23500
4241665;-0.25000
4244443;-0.23500
4247221;-0.22000
4249999;-0.22500
4252777;-0.24000
4255554;-0.25000
4258332;-0.25000
4261110;-0.23000
4263888;-0.22500
4266665;-0.22500
4269443;-0.23500
4272221;-0.25000
4274999;-0.26000
4277777;-0.25000
4280554;-0.25500
4283332;-0.24500
4286110;-0.25000
4288888;-0.27000
4291665;-0.26000
4294443;-0.25500
4297221;-0.26000
4299999;-0.25500
4302777;-0.25000
4305554;-0.25000
4308332;-0.26000
4311110;-0.26000
4313888;-0.24500
4316665;-0.24500
4319443;-0.25000
4322221;-0.26500
4324999;-0.26500
4327777;-0.25500
4330554;-0.25500
4333332;-0.25000
4336110;-0.25500
4338888;-0.26500
4341665;-0.27000
4344443;-0.25500
4347221;-0.24500
4349999;-0.23500
4352777;-0.24000
4355554;-0.25000
4358332;-0.24500
4361110;-0.23500
4363888;-0.23500
4366665;-0.23000
4369443;-0.24000
4372221;-0.26000
4374999;-0.26000
4377777;-0.25500
4380554;-0.24500
4383332;-0.24500
4386110;-0.24500
4388888;-0.26500
4391665;-0.25000
4394443;-0.23000
4397221;-0.24000
4399999;-0.24000
4402777;-0.24000
4405554;-0.25000
4408332;-0.24000
4411110;-0.22500
4413888;-0.21500
4416665;-0.18500
4419443;-0.19500
4422221;-0.19500
4424999;-0.18000
4427777;-0.15000
4430554;-0.16000
4433332;-0.13500
4436110;-0.14000
4438888;-0.15000
4441665;-0.14000
4444443;-0.12000
4447221;-0.11500
4449999;-0.13500
4452777;-0.15000
4455554;-0.15000
4458332;-0.16500
4461110;-0.16000
4463888;-0.16000
4466665;-0.15000
4469443;-0.15000
4472221;-0.16500
4474999;-0.17500
4477777;-0.16500
4480554;-0.14500
4483332;-0.11500
4486110;-0.10500
4488888;-0.11000
4491665;-0.14500
4494443;-0.16500
4497221;-0.17500
4499999;-0.19000
4502777;-0.20000
4505554;-0.22500
4508332;-0.24500
4511110;-0.24000
4513888;-0.25000
4516665;-0.24500
4519443;-0.26000
4522221;-0.27000
4524999;-0.27500
4527777;-0.26500
4530554;-0.26500
4533332;-0.27000
4536110;-0.27500
4538888;-0.28500
4541665;-0.30000
4544443;-0.29000
4547221;-0.27500
4549999;-0.27500
4552777;-0.28000
4555554;-0.28500
4558332;-0.29000
4561110;-0.28500
4563888;-0.28000
4566665;-0.28000
4569443;-0.28500
4572221;-0.28500
4574999;-0.30000
4577776;-0.29500
4580554;-0.33000
4583332;-0.36500
4586110;-0.41000
4588888;-0.44500
4591665;-0.47000
4594443;-0.49500
4597221;-0.47500
4599999;-0.38000
4602776;-0.24500
4605554;-0.06500
4608332;0.13500
4611110;0.37000
4613888;0.66000
4616665;0.95500
4619443;1.14500
4622221;1.22000
4624999;1.16000
4627776;0.88500
4630554;0.44000
4633332;-0.02000
4636110;-0.33000
4638888;-0.45500
4641665;-0.47000
4644443;-0.44000
4647221;-0.42500
4649999;-0.40500
4652776;-0.37500
4655554;-0.34500
4658332;-0.32500
4661110;-0.30500
4663888;-0.30500
4666665;-0.32000
4669443;-0.32500
4672221;-0.33000
4674999;-0.33000
4677776;-0.33000
4680554;-0.32500
4683332;-0.33000
4686110;-0.34000
4688888;-0.35500
4691665;-0.36000
4694443;-0.34500
4697221;-0.33000
4699999;-0.33000
4702776;-0.34500
4705554;-0.35000
4708332;-0.37000
4711110;-0.35000
4713888;-0.34500
4716665;-0.33000
4719443;-0.34000
4722221;-0.35000
4724999;-0.35500
4727776;-0.34000
4730554;-0.33500
4733332;-0.33000
4736110;-0.33000
4738888;-0.35000
4741665;-0.35000
4744443;-0.33500
4747221;-0.33500
4749999;-0.33000
4752776;-0.33500
4755554;-0.34000
4758332;-0.35000
4761110;-0.35000
4763888;-0.32500
4766665;-0.33000
4769443;-0.34000
4772221;-0.35000
4774999;-0.34500
4777776;-0.34000
4780554;-0.32500
4783332;-0.32500
4786110;-0.34500
4788888;-0.34500
4791665;-0.34500
4794443;-0.34000
4797221;-0.33500
4799999;-0.33000
4802776;-0.34000
4805554;-0.34500
4808332;-0.35500
4811110;-0.34000
4813888;-0.34000
4816665;-0.34000
4819443;-0.34500
4822221;-0.35500
4824999;-0.36000
4827776;-0.34500
4830554;-0.33000
4833332;-0.33000
4836110;-0.33500
4838888;-0.34500
4841665;-0.35500
4844443;-0.35000
4847221;-0.33500
4849999;-0.34000
4852776;-0.33500
4855554;-0.34500
4858332;-0.35000
4861110;-0.34000
4863888;-0.34500
4866665;-0.34000
4869443;-0.35000
4872221;-0.35000
4874999;-0.37000
4877776;-0.35000
4880554;-0.34500
4883332;-0.33000
4886110;-0.34000
4888888;-0.34500
4891665;-0.35000
4894443;-0.33500
4897221;-0.33000
4899999;-0.33000
4902776;-0.32000
4905554;-0.32000
4908332;-0.33000
4911110;-0.31000
4913888;-0.29500
4916665;-0.28500
4919443;-0.29500
4922221;-0.29000
4924999;-0.28500
4927776;-0.26500
4930554;-0.24500
4933332;-0.23500
4936110;-0.23000
4938888;-0.23500
4941665;-0.23000
4944443;-0.22000
4947221;-0.21500
4949999;-0.20000
4952776;-0.20500
4955554;-0.21500
4958332;-0.21500
4961110;-0.21000
4963887;-0.21500
4966665;-0.22000
4969443;-0.22000
4972221;-0.22000
4974999;-0.23500
4977776;-0.21500
4980554;-0.21500
4983332;-0.19000
4986110;-0.21000
4988887;-0.21500
4991665;-0.22500
4994443;-0.21000
4997221;-0.19500
4999999;-0.21500
5002776;-0.21000
5005554;-0.23500
5008332;-0.23500
5011110;-0.24000
5013887;-0.22000
5016665;-0.22000
5019443;-0.23000
5022221;-0.25000
5024999;-0.23500
5027776;-0.24000
5030554;-0.22500
5033332;-0.23000
5036110;-0.23000
5038887;-0.23500
5041665;-0.24500
5044443;-0.23500
5047221;-0.23500
5049999;-0.23500
5052776;-0.25000
5055554;-0.24500
5058332;-0.25500
5061110;-0.24500
5063887;-0.25000
5066665;-0.24500
5069443;-0.26000
5072221;-0.27000
5074999;-0.28000
5077776;-0.27500
5080554;-0.27000
5083332;-0.26000
5086110;-0.26500
5088887;-0.27000
5091665;-0.27500
5094443;-0.27500
5097221;-0.26500
5099999;-0.26500
5102776;-0.27000
5105554;-0.29500
5108332;-0.28500
5111110;-0.28500
5113887;-0.26500
5116665;-0.27000
5119443;-0.26000
5122221;-0.27000
5124999;-0.27000
5127776;-0.26000
5130554;-0.25500
5133332;-0.24500
5136110;-0.26000
5138887;-0.26500
5141665;-0.27500
5144443;-0.25500
5147221;-0.24000
5149999;-0.25500
5152776;-0.27500
5155554;-0.27500
5158332;-0.27000
5161110;-0.27500
5163887;-0.25500
5166665;-0.26500
5169443;-0.26500
5172221;-0.27000
5174999;-0.26500
5177776;-0.26500
5180554;-0.25000
5183332;-0.24500
5186110;-0.25000
5188887;-0.26000
5191665;-0.25500
5194443;-0.25000
5197221;-0.21500
5199999;-0.21000
5202776;-0.20000
5205554;-0.19500
5208332;-0.19500
5211110;-0.19000
5213887;-0.16500
5216665;-0.16500
5219443;-0.17000
5222221;-0.17500
5224999;-0.17000
5227776;-0.16000
5230554;-0.15000
5233332;-0.13500
5236110;-0.15000
5238887;-0.16000
5241665;-0.17000
5244443;-0.17000
5247221;-0.16000
5249999;-0.15500
5252776;-0.17000
5255554;-0.17500
5258332;-0.18500
5261110;-0.18000
5263887;-0.18000
5266665;-0.16000
5269443;-0.14500
5272221;-0.12500
5274999;-0.13500
5277776;-0.14000
5280554;-0.16000
5283332;-0.19000
5286110;-0.19500
5288887;-0.20500
5291665;-0.22500
5294443;-0.22500
5297221;-0.23000
5299999;-0.25500
5302776;-0.26500
5305554;-0.27500
5308332;-0.28500
5311110;-0.28500
5313887;-0.28500
5316665;-0.27000
5319443;-0.28000
5322221;-0.28000
5324999;-0.28500
5327776;-0.27500
5330554;-0.27500
5333332;-0.28500
5336110;-0.28500
5338887;-0.29500
5341665;-0.29500
5344443;-0.28500
5347221;-0.28000
5349999;-0.27000
5352776;-0.28000
5355554;-0.29500
5358332;-0.28500
5361110;-0.28500
5363887;-0.28500
5366665;-0.28500
5369443;-0.30500
5372221;-0.33000
5374998;-0.38000
5377776;-0.41500
5380554;-0.42000
5383332;-0.45500
5386110;-0.49000
5388887;-0.52000
5391665;-0.45500
5394443;-0.32000
5397221;-0.13500
5399998;0.04000
5402776;0.25000
5405554;0.49000
5408332;0.77000
5411110;0.99500
5413887;1.12500
5416665;1.13500
5419443;0.93000
5422221;0.53000
5424998;0.04000
5427776;-0.31000
5430554;-0.42000
5433332;-0.39000
5436110;-0.34500
5438887;-0.30000
5441665;-0.31500
5444443;-0.31500
5447221;-0.32000
5449998;-0.32000
5452776;-0.33000
5455554;-0.33500
5458332;-0.34500
5461110;-0.34000
5463887;-0.33000
5466665;-0.33500
5469443;-0.32000
5472221;-0.33500
5474998;-0.34500
5477776;-0.33000
5480554;-0.31500
5483332;-0.31000
5486110;-0.31500
5488887;-0.32500
5491665;-0.33000
5494443;-0.32000
5497221;-0.32500
5499998;-0.32500
5502776;-0.32500
5505554;-0.33000
5508332;-0.33000
5511110;-0.33000
5513887;-0.32500
5516665;-0.32000
5519443;-0.32500
5522221;-0.33500
5524998;-0.34500
5527776;-0.35000
5530554;-0.32500
5533332;-0.33000
5536110;-0.34000
5538887;-0.33500
5541665;-0.34500
5544443;-0.34000
5547221;-0.33500
5549998;-0.32500
5552776;-0.32500
5555554;-0.33000
5558332;-0.34000
5561110;-0.33500
5563887;-0.32000
5566665;-0.31500
5569443;-0.31500
5572221;-0.32000
5574998;-0.33500
5577776;-0.33500
5580554;-0.32500
5583332;-0.32000
5586110;-0.33500
5588887;-0.33500
5591665;-0.33500
5594443;-0.32500
5597221;-0.32000
5599998;-0.31500
5602776;-0.33000
5605554;-0.34000
5608332;-0.35000
5611110;-0.34500
5613887;-0.34500
5616665;-0.34000
5619443;-0.34500
5622221;-0.34000
5624998;-0.34500
5627776;-0.34000
5630554;-0.34000
5633332;-0.32500
5636110;-0.33500
5638887;-0.34000
5641665;-0.34500
5644443;-0.34000
5647221;-0.34500
5649998;-0.34000
5652776;-0.34500
5655554;-0.34000
5658332;-0.35000
5661110;-0.35000
5663887;-0.35000
5666665;-0.34000
5669443;-0.34000
5672221;-0.34000
5674998;-0.36000
5677776;-0.36500
5680554;-0.35500
5683332;-0.34500
5686110;-0.34000
5688887;-0.32500
5691665;-0.33500
5694443;-0.31500
5697221;-0.30000
5699998;-0.28500
5702776;-0.28500
5705554;-0.27000
5708332;-0.27500
5711110;-0.26000
5713887;-0.25500
5716665;-0.24500
5719443;-0.24000
5722221;-0.25000
5724998;-0.23500
5727776;-0.22500
5730554;-0.22000
5733332;-0.21500
5736110;-0.23000
5738887;-0.24000
5741665;-0.24000
5744443;-0.22500
5747221;-0.22000
5749998;-0.22000
5752776;-0.23000
5755554;-0.23000
5758332;-0.23500
5761109;-0.23500
5763887;-0.23500
5766665;-0.23000
5769443;-0.22500
5772221;-0.24500
5774998;-0.25000
5777776;-0.25000
5780554;-0.24500
5783332;-0.24000
5786109;-0.24000
5788887;-0.24500
5791665;-0.25500
5794443;-0.24500
5797221;-0.23500
5799998;-0.23000
5802776;-0.25000
5805554;-0.26500
5808332;-0.26500
5811109;-0.27000
5813887;-0.24500
5816665;-0.25000
5819443;-0.26000
5822221;-0.27500
5824998;-0.28500
5827776;-0.29500
5830554;-0.29000
5833332;-0.28500
5836109;-0.28500
5838887;-0.28000
5841665;-0.29000
5844443;-0.28500
5847221;-0.28000
5849998;-0.28000
5852776;-0.28000
5855554;-0.28500
5858332;-0.30000
5861109;-0.30000
5863887;-0.28500
5866665;-0.28000
5869443;-0.30000
5872221;-0.29000
5874998;-0.29500
5877776;-0.29500
5880554;-0.28500
5883332;-0.30000
5886109;-0.30000
5888887;-0.30500
5891665;-0.31000
5894443;-0.30000
5897221;-0.30500
5899998;-0.29500
5902776;-0.30500
5905554;-0.33000
5908332;-0.33000
5911109;-0.31500
5913887;-0.30500
5916665;-0.31000
5919443;-0.32000
5922221;-0.33000
5924998;-0.32500
5927776;-0.31500
5930554;-0.31000
5933332;-0.29000
5936109;-0.30500
5938887;-0.30500
5941665;-0.30500
5944443;-0.27500
5947221;-0.28500
5949998;-0.28500
5952776;-0.30000
5955554;-0.30000
5958332;-0.31000
5961109;-0.30500
5963887;-0.29500
5966665;-0.30000
5969443;-0.29000
5972221;-0.30500
5974998;-0.31500
5977776;-0.30500
5980554;-0.28500
5983332;-0.25500
5986109;-0.25500
5988887;-0.26000
5991665;-0.25500
5994443;-0.26000
5997221;-0.25000
5999998;-0.23500
6002776;-0.22000
6005554;-0.23500
6008332;-0.21500
6011109;-0.21500
6013887;-0.20000
6016665;-0.19000
6019443;-0.19000
6022221;-0.19000
6024998;-0.20000
6027776;-0.21000
6030554;-0.22000
6033332;-0.22000
6036109;-0.22500
6038887;-0.23500
6041665;-0.24000
6044443;-0.23000
6047221;-0.22000
6049998;-0.21000
6052776;-0.21000
6055554;-0.21000
6058332;-0.24500
6061109;-0.27500
6063887;-0.29500
6066665;-0.29500
6069443;-0.32000
6072221;-0.33000
6074998;-0.34500
6077776;-0.35000
6080554;-0.35000
6083332;-0.34500
6086109;-0.35500
6088887;-0.37000
6091665;-0.36500
6094443;-0.36500
6097221;-0.35500
6099998;-0.36500
6102776;-0.37000
6105554;-0.39000
6108332;-0.38500
6111109;-0.36000
6113887;-0.34000
6116665;-0.34500
6119443;-0.34000
6122221;-0.36500
6124998;-0.37000
6127776;-0.36500
6130554;-0.37000
6133332;-0.36000
6136109;-0.38500
6138887;-0.40500
6141665;-0.43500
6144443;-0.45500
6147221;-0.48000
6149998;-0.49500
6152776;-0.53000
6155554;-0.58500
6158332;-0.63000
6161109;-0.62500
6163887;-0.57000
6166665;-0.49500
6169443;-0.43000
6172220;-0.35500
6174998;-0.23000
6177776;-0.07500
6180554;0.10000
6183332;0.31500
6186109;0.54000
6188887;0.75000
6191665;0.89500
6194443;1.00500
6197220;1.02000
6199998;0.88000
6202776;0.54000
6205554;0.11000
6208332;-0.26000
6211109;-0.43500
6213887;-0.50000
6216665;-0.48500
6219443;-0.43000
6222220;-0.42000
6224998;-0.42500
6227776;-0.42000
6230554;-0.41500
6233332;-0.41000
6236109;-0.41000
6238887;-0.41000
6241665;-0.41500
6244443;-0.41500
6247220;-0.42500
6249998;-0.42500
6252776;-0.42000
6255554;-0.43500
6258332;-0.42000
6261109;-0.40500
6263887;-0.41000
6266665;-0.40000
6269443;-0.41500
6272220;-0.43000
6274998;-0.44000
6277776;-0.42500
6280554;-0.41500
6283332;-0.42000
6286109;-0.43500
6288887;-0.44500
6291665;-0.46000
6294443;-0.43500
6297220;-0.43500
6299998;-0.43000
6302776;-0.44500
6305554;-0.44500
6308332;-0.43500
6311109;-0.42500
6313887;-0.42500
6316665;-0.41500
6319443;-0.41500
6322220;-0.42500
6324998;-0.43500
6327776;-0.42500
6330554;-0.42500
6333332;-0.42500
6336109;-0.43000
6338887;-0.43000
6341665;-0.42500
6344443;-0.41500
6347220;-0.41500
6349998;-0.42500
6352776;-0.43000
6355554;-0.45000
6358332;-0.44500
6361109;-0.42500
6363887;-0.40500
6366665;-0.40500
6369443;-0.41500
6372220;-0.43000
6374998;-0.43500
6377776;-0.43000
6380554;-0.41500
6383332;-0.42000
6386109;-0.42500
6388887;-0.43500
6391665;-0.44000
6394443;-0.42000
6397220;-0.41000
6399998;-0.41500
6402776;-0.44000
6405554;-0.45500
6408332;-0.45500
6411109;-0.46500
6413887;-0.44000
6416665;-0.44000
6419443;-0.44500
6422220;-0.45500
6424998;-0.46500
6427776;-0.44500
6430554;-0.45500
6433332;-0.46500
6436109;-0.48000
6438887;-0.48000
6441665;-0.49500
6444443;-0.49500
6447220;-0.49000
6449998;-0.49000
6452776;-0.49500
6455554;-0.51000
6458332;-0.51500
6461109;-0.52000
6463887;-0.52500
6466665;-0.51500
6469443;-0.52500
6472220;-0.49000
6474998;-0.48500
6477776;-0.46000
6480554;-0.45000
6483332;-0.43500
6486109;-0.44000
6488887;-0.44500
6491665;-0.44500
6494443;-0.41500
6497220;-0.40500
6499998;-0.38500
6502776;-0.36500
6505554;-0.36000
6508332;-0.35500
6511109;-0.36000
6513887;-0.35500
6516665;-0.34000
6519443;-0.34500
6522220;-0.35000
6524998;-0.33500
6527776;-0.33000
6530554;-0.33000
6533332;-0.33500
6536109;-0.33500
6538887;-0.34000
6541665;-0.34000
6544443;-0.34000
6547220;-0.33000
6549998;-0.33000
6552776;-0.34500
6555554;-0.34500
6558331;-0.35000
6561109;-0.34500
6563887;-0.34500
6566665;-0.36000
6569443;-0.35500
6572220;-0.36000
6574998;-0.35500
6577776;-0.34000
6580554;-0.35000
6583331;-0.35000
6586109;-0.36500
6588887;-0.37500
6591665;-0.37000
6594443;-0.37000
6597220;-0.36500
6599998;-0.36000
6602776;-0.36500
6605554;-0.38500
6608331;-0.38000
6611109;-0.37500
6613887;-0.36000
6616665;-0.36000
6619443;-0.37500
6622220;-0.39000
6624998;-0.39000
6627776;-0.38000
6630554;-0.38000
6633331;-0.38500
6636109;-0.40000
6638887;-0.41000
6641665;-0.41000
6644443;-0.39000
6647220;-0.38500
6649998;-0.36500
6652776;-0.38500
6655554;-0.38000
6658331;-0.39500
6661109;-0.39000
6663887;-0.38000
6666665;-0.39000
6669443;-0.38500
6672220;-0.40500
6674998;-0.43000
6677776;-0.41000
6680554;-0.40000
6683331;-0.40000
6686109;-0.38500
6688887;-0.38500
6691665;-0.40000
6694443;-0.41000
6697220;-0.41000
6699998;-0.40000
6702776;-0.41000
6705554;-0.40500
6708331;-0.40000
6711109;-0.40000
6713887;-0.39000
6716665;-0.39000
6719443;-0.39500
6722220;-0.39500
6724998;-0.39500
6727776;-0.39000
6730554;-0.37500
6733331;-0.37000
6736109;-0.38500
6738887;-0.39000
6741665;-0.40000
6744443;-0.39000
6747220;-0.38000
6749998;-0.38000
6752776;-0.40500
6755554;-0.40000
6758331;-0.40000
6761109;-0.39000
6763887;-0.37000
6766665;-0.34500
6769443;-0.33500
6772220;-0.33500
6774998;-0.33500
6777776;-0.33000
6780554;-0.31000
6783331;-0.31000
6786109;-0.32000
6788887;-0.31000
6791665;-0.31500
6794443;-0.29000
6797220;-0.26500
6799998;-0.27000
6802776;-0.27000
6805554;-0.29000
6808331;-0.32000
6811109;-0.30500
6813887;-0.30000
6816665;-0.30500
6819443;-0.29500
6822220;-0.31000
6824998;-0.34000
6827776;-0.33500
6830554;-0.33000
6833331;-0.31500
6836109;-0.31000
6838887;-0.29500
6841665;-0.30000
6844443;-0.31500
6847220;-0.33000
6849998;-0.35000
6852776;-0.35500
6855554;-0.38000
6858331;-0.40000
6861109;-0.40500
6863887;-0.40500
6866665;-0.40000
6869443;-0.40500
6872220;-0.41000
6874998;-0.41000
6877776;-0.40000
6880554;-0.39000
6883331;-0.38500
6886109;-0.40000
6888887;-0.41500
6891665;-0.43000
6894443;-0.41500
6897220;-0.41000
6899998;-0.41500
6902776;-0.42500
6905554;-0.43000
6908331;-0.43000
6911109;-0.43500
6913887;-0.42000
6916665;-0.41000
6919443;-0.42500
6922220;-0.42500
6924998;-0.43500
6927776;-0.42000
6930554;-0.42000
6933331;-0.44000
6936109;-0.48500
6938887;-0.51500
6941665;-0.54500
6944442;-0.56500
6947220;-0.58500
6949998;-0.58000
6952776;-0.51500
6955554;-0.38500
6958331;-0.24000
6961109;-0.05000
6963887;0.15000
6966665;0.41000
6969442;0.68000
6972220;0.88500
6974998;0.97500
6977776;0.94000
6980554;0.68500
6983331;0.25000
6986109;-0.19000
6988887;-0.45500
6991665;-0.54500
6994442;-0.51500
6997220;-0.47500
6999998;-0.43500
7002776;-0.42500
7005554;-0.42500
7008331;-0.43500
7011109;-0.42500
7013887;-0.42000
7016665;-0.41500
7019442;-0.42500
7022220;-0.43000
7024998;-0.43500
7027776;-0.42500
7030554;-0.42000
7033331;-0.42000
7036109;-0.43000
7038887;-0.44000
7041665;-0.44500
7044442;-0.43500
7047220;-0.43500
7049998;-0.43500
7052776;-0.44500
7055554;-0.44500
7058331;-0.44500
7061109;-0.44500
7063887;-0.43000
7066665;-0.42500
7069442;-0.44000
7072220;-0.44000
7074998;-0.45000
7077776;-0.44000
7080554;-0.42500
7083331;-0.43000
7086109;-0.42500
7088887;-0.43500
7091665;-0.44000
7094442;-0.43500
7097220;-0.42500
7099998;-0.41500
7102776;-0.42500
7105554;-0.42500
7108331;-0.44000
7111109;-0.43000
7113887;-0.41500
7116665;-0.41500
7119442;-0.42000
7122220;-0.42500
7124998;-0.44500
7127776;-0.43500
7130554;-0.43000
7133331;-0.42500
7136109;-0.43500
7138887;-0.43000
7141665;-0.45000
7144442;-0.44500
7147220;-0.43000
7149998;-0.42500
7152776;-0.43000
7155554;-0.43000
7158331;-0.44500
7161109;-0.43500
7163887;-0.42000
7166665;-0.42000
7169442;-0.43500
7172220;-0.43000
7174998;-0.44000
7177776;-0.43000
7180554;-0.42500
7183331;-0.41500
7186109;-0.43000
7188887;-0.43000
7191665;-0.44500
7194442;-0.45000
7197220;-0.43500
7199998;-0.44000
7202776;-0.43500
7205554;-0.44500
7208331;-0.46500
7211109;-0.46000
7213887;-0.46000
7216665;-0.46000
7219442;-0.46000
7222220;-0.47500
7224998;-0.49000
7227776;-0.48000
7230554;-0.47500
7233331;-0.47000
7236109;-0.47500
7238887;-0.47500
7241665;-0.48000
7244442;-0.47000
7247220;-0.45500
7249998;-0.45500
7252776;-0.47000
7255554;-0.46500
7258331;-0.48500
7261109;-0.48000
7263887;-0.46500
7266665;-0.46000
7269442;-0.46500
7272220;-0.45500
7274998;-0.46500
7277776;-0.44500
7280554;-0.42500
7283331;-0.40500
7286109;-0.39500
7288887;-0.39500
7291665;-0.38500
7294442;-0.36500
7297220;-0.35500
7299998;-0.34500
7302776;-0.34000
7305554;-0.34000
7308331;-0.34500
7311109;-0.33000
7313887;-0.31500
7316665;-0.31500
7319442;-0.31000
7322220;-0.32000
7324998;-0.32500
7327776;-0.32000
7330554;-0.30500
7333331;-0.30000
7336109;-0.30000
7338887;-0.30500
7341665;-0.32000
7344442;-0.30000
7347220;-0.29500
7349998;-0.29000
7352776;-0.30500
7355553;-0.29000
7358331;-0.30500
7361109;-0.30500
7363887;-0.29000
7366665;-0.28500
7369442;-0.29500
7372220;-0.29500
7374998;-0.31000
7377776;-0.30500
7380553;-0.30500
7383331;-0.30500
7386109;-0.31500
7388887;-0.31500
7391665;-0.32500
7394442;-0.32000
7397220;-0.30000
7399998;-0.30500
7402776;-0.30500
7405553;-0.31500
7408331;-0.32000
7411109;-0.32500
7413887;-0.32500
7416665;-0.32000
7419442;-0.32000
7422220;-0.33000
7424998;-0.33500
7427776;-0.32500
7430553;-0.32000
7433331;-0.31500
7436109;-0.32500
7438887;-0.32000
7441665;-0.32000
7444442;-0.32500
7447220;-0.31500
7449998;-0.32000
7452776;-0.33000
7455553;-0.33500
7458331;-0.33500
7461109;-0.33500
7463887;-0.33000
7466665;-0.32000
7469442;-0.33500
7472220;-0.34000
7474998;-0.35000
7477776;-0.34500
7480553;-0.33500
7483331;-0.33000
7486109;-0.34000
7488887;-0.34000
7491665;-0.35000
7494442;-0.34000
7497220;-0.34000
7499998;-0.33500
7502776;-0.33000
7505553;-0.33000
7508331;-0.34500
7511109;-0.33000
7513887;-0.33500
7516665;-0.31500
7519442;-0.32000
7522220;-0.33500
7524998;-0.33500
7527776;-0.34000
7530553;-0.33000
7533331;-0.31000
7536109;-0.32000
7538887;-0.32500
7541665;-0.33000
7544442;-0.32000
7547220;-0.31000
7549998;-0.31000
7552776;-0.32500
7555553;-0.34500
7558331;-0.34500
7561109;-0.34000
7563887;-0.32500
7566665;-0.32500
7569442;-0.33000
7572220;-0.33000
7574998;-0.34500
7577776;-0.33000
7580553;-0.33000
7583331;-0.33500
7586109;-0.30500
7588887;-0.30500
7591665;-0.30000
7594442;-0.28500
7597220;-0.26000
7599998;-0.25500
7602776;-0.25500
7605553;-0.25000
7608331;-0.25500
7611109;-0.23000
7613887;-0.22500
7616665;-0.22500
7619442;-0.22000
7622220;-0.20000
7624998;-0.22000
7627776;-0.22000
7630553;-0.21500
7633331;-0.22000
7636109;-0.22500
7638887;-0.24000
7641665;-0.26500
7644442;-0.25000
7647220;-0.23500
7649998;-0.23500
7652776;-0.25500
7655553;-0.27000
7658331;-0.26000
7661109;-0.22500
7663887;-0.20000
7666665;-0.20000
7669442;-0.23000
7672220;-0.27000
7674998;-0.30000
7677776;-0.31000
7680553;-0.31000
7683331;-0.31500
7686109;-0.32500
7688887;-0.34500
7691665;-0.35500
7694442;-0.35000
7697220;-0.35000
7699998;-0.34500
7702776;-0.36000
7705553;-0.36500
7708331;-0.39000
7711109;-0.37500
7713887;-0.37000
7716665;-0.36000
7719442;-0.36500
7722220;-0.37000
7724998;-0.38000
7727776;-0.37500
7730553;-0.37000
7733331;-0.35500
7736109;-0.36000
7738887;-0.37000
7741664;-0.38500
7744442;-0.37500
7747220;-0.37500
7749998;-0.37500
7752776;-0.39000
7755553;-0.43000
7758331;-0.50500
7761109;-0.51500
7763887;-0.53500
7766664;-0.55500
7769442;-0.59500
7772220;-0.58000
7774998;-0.51000
7777776;-0.38500
7780553;-0.22500
7783331;-0.08000
7786109;0.06500
7788887;0.21500
7791664;0.41000
7794442;0.68500
7797220;0.92500
7799998;1.10500
7802776;1.22000
7805553;1.29500
7808331;1.30000
7811109;1.15000
7813887;0.79000
7816664;0.27000
7819442;-0.18500
7822220;-0.44000
7824998;-0.47000
7827776;-0.41000
7830553;-0.35500
7833331;-0.34000
7836109;-0.35000
7838887;-0.38000
7841664;-0.39500
7844442;-0.39500
7847220;-0.40000
7849998;-0.40000
7852776;-0.40500
7855553;-0.41500
7858331;-0.42500
7861109;-0.42500
7863887;-0.42000
7866664;-0.41500
7869442;-0.42000
7872220;-0.42500
7874998;-0.43000
7877776;-0.42000
7880553;-0.42000
7883331;-0.41500
7886109;-0.42000
7888887;-0.42000
7891664;-0.42500
7894442;-0.42000
7897220;-0.41500
7899998;-0.41000
7902776;-0.41000
7905553;-0.42500
7908331;-0.43500
7911109;-0.42500
7913887;-0.42500
7916664;-0.42500
7919442;-0.42500
7922220;-0.43000
7924998;-0.43500
7927776;-0.43000
7930553;-0.41000
7933331;-0.42500
7936109;-0.41500
7938887;-0.43500
7941664;-0.43500
7944442;-0.43000
7947220;-0.42500
7949998;-0.42500
7952776;-0.42500
7955553;-0.41500
7958331;-0.43500
7961109;-0.43500
7963887;-0.41500
7966664;-0.41000
7969442;-0.41000
7972220;-0.42500
7974998;-0.43500
7977776;-0.43000
7980553;-0.42000
7983331;-0.40500
7986109;-0.41000
7988887;-0.42000
7991664;-0.44000
7994442;-0.43000
7997220;-0.42500
7999998;-0.43000
8002776;-0.43000
8005553;-0.44500
8008331;-0.46000
8011109;-0.44500
8013887;-0.43500
8016664;-0.44000
8019442;-0.44000
8022220;-0.46000
8024998;-0.46000
8027776;-0.44000
8030553;-0.44000
8033331;-0.43000
8036109;-0.43500
8038887;-0.45000
8041664;-0.45000
8044442;-0.45000
8047220;-0.45000
8049998;-0.44000
8052776;-0.44500
8055553;-0.45000
8058331;-0.45500
8061109;-0.45000
8063887;-0.45000
8066664;-0.45000
8069442;-0.46000
8072220;-0.47000
8074998;-0.46000
8077776;-0.45500
8080553;-0.45000
8083331;-0.45000
8086109;-0.45500
8088887;-0.45500
8091664;-0.46000
8094442;-0.44500
8097220;-0.43000
8099998;-0.42000
8102776;-0.42500
8105553;-0.42000
8108331;-0.42500
8111109;-0.40500
8113887;-0.39000
8116664;-0.38000
8119442;-0.36500
8122220;-0.37500
8124998;-0.37000
8127776;-0.35500
8130553;-0.35000
8133331;-0.32000
8136109;-0.32000
8138887;-0.32500
8141664;-0.33000
8144442;-0.34000
8147220;-0.32500
8149998;-0.32000
8152775;-0.32000
8155553;-0.32000
8158331;-0.33000
8161109;-0.32500
8163887;-0.32500
8166664;-0.31000
8169442;-0.31500
8172220;-0.32500
8174998;-0.34000
8177775;-0.32500
8180553;-0.31000
8183331;-0.31500
8186109;-0.31500
8188887;-0.31500
8191664;-0.33500
8194442;-0.32000
8197220;-0.31000
8199998;-0.31000
8202775;-0.32000
8205553;-0.32000
8208331;-0.32500
8211109;-0.33500
8213887;-0.31500
8216664;-0.31500
8219442;-0.32000
8222220;-0.32000
8224998;-0.33000
8227775;-0.33000
8230553;-0.32000
8233331;-0.32500
8236109;-0.33500
8238887;-0.34500
8241664;-0.35000
8244442;-0.35000
8247220;-0.34500
8249998;-0.34000
8252775;-0.35000
8255553;-0.36000
8258331;-0.36000
8261109;-0.35500
8263887;-0.34500
8266664;-0.34500
8269442;-0.35000
8272220;-0.35500
8274998;-0.36500
8277775;-0.36500
8280553;-0.35500
8283331;-0.34500
8286109;-0.35000
8288887;-0.37500
8291664;-0.38500
8294442;-0.38000
8297220;-0.37000
8299998;-0.37000
8302775;-0.37000
8305553;-0.38500
8308331;-0.38500
8311109;-0.38000
8313887;-0.38000
8316664;-0.37000
8319442;-0.37000
8322220;-0.37000
8324998;-0.36500
8327775;-0.37000
8330553;-0.36000
8333331;-0.35500
8336109;-0.37000
8338887;-0.37500
8341664;-0.39500
8344442;-0.38500
8347220;-0.37000
8349998;-0.37000
8352775;-0.37500
8355553;-0.37500
8358331;-0.39000
8361109;-0.38500
8363887;-0.37000
8366664;-0.36000
8369442;-0.36500
8372220;-0.37000
8374998;-0.38000
8377775;-0.36500
8380553;-0.35500
8383331;-0.35500
8386109;-0.35500
8388887;-0.37000
8391664;-0.37000
8394442;-0.36500
8397220;-0.35500
8399998;-0.35000
8402775;-0.36000
8405553;-0.36000
8408331;-0.35500
8411109;-0.35000
8413887;-0.33000
8416664;-0.31000
8419442;-0.30500
8422220;-0.31000
8424998;-0.31000
8427775;-0.30000
8430553;-0.29000
8433331;-0.27500
8436109;-0.28500
8438887;-0.28500
8441664;-0.27500
8444442;-0.27000
8447220;-0.26000
8449998;-0.24500
8452775;-0.23500
8455553;-0.24000
8458331;-0.26000
8461109;-0.25500
8463887;-0.25000
8466664;-0.26000
8469442;-0.27500
8472220;-0.28000
8474998;-0.29000
8477775;-0.28000
8480553;-0.29000
8483331;-0.29000
8486109;-0.28000
8488887;-0.25500
8491664;-0.25000
8494442;-0.25500
8497220;-0.28000
8499998;-0.30000
8502775;-0.32000
8505553;-0.34000
8508331;-0.35000
8511109;-0.36000
8513887;-0.37000
8516664;-0.36500
8519442;-0.37000
8522220;-0.38500
8524998;-0.38500
8527775;-0.37000
8530553;-0.37000
8533331;-0.36500
8536109;-0.37000
8538886;-0.37500
8541664;-0.39000
8544442;-0.37500
8547220;-0.37500
8549998;-0.37500
8552775;-0.37000
8555553;-0.38500
8558331;-0.39000
8561109;-0.39000
8563886;-0.39000
8566664;-0.39000
8569442;-0.38500
8572220;-0.40500
8574998;-0.40500
8577775;-0.39500
8580553;-0.40000
8583331;-0.38500
8586109;-0.40000
8588886;-0.42000
8591664;-0.46500
8594442;-0.51500
8597220;-0.52000
8599998;-0.55000
8602775;-0.57000
8605553;-0.60500
8608331;-0.57500
8611109;-0.44500
8613886;-0.27000
8616664;-0.07000
8619442;0.13500
8622220;0.37500
8624998;0.67000
8627775;0.92500
8630553;1.07500
8633331;1.09500
8636109;0.92500
8638886;0.54500
8641664;0.06000
8644442;-0.34000
8647220;-0.50500
8649998;-0.49000
8652775;-0.43500
8655553;-0.41000
8658331;-0.41000
8661109;-0.41500
8663886;-0.42500
8666664;-0.41500
8669442;-0.40500
8672220;-0.42000
8674998;-0.44000
8677775;-0.43500
8680553;-0.43500
8683331;-0.43000
8686109;-0.42000
8688886;-0.43500
8691664;-0.44500
8694442;-0.43000
8697220;-0.43000
8699998;-0.42000
8702775;-0.41500
8705553;-0.42500
8708331;-0.44500
8711109;-0.43000
8713886;-0.42500
8716664;-0.41500
8719442;-0.41000
8722220;-0.42500
8724998;-0.43500
8727775;-0.44000
8730553;-0.43000
8733331;-0.43500
8736109;-0.43500
8738886;-0.44500
8741664;-0.45000
8744442;-0.43500
8747220;-0.42500
8749998;-0.42000
8752775;-0.43000
8755553;-0.43000
8758331;-0.44000
8761109;-0.44000
8763886;-0.42000
8766664;-0.42000
8769442;-0.42500
8772220;-0.44000
8774998;-0.45000
8777775;-0.43500
8780553;-0.43000
8783331;-0.42500
8786109;-0.42000
8788886;-0.43500
8791664;-0.44500
8794442;-0.44500
8797220;-0.43000
8799998;-0.42000
8802775;-0.42500
8805553;-0.43000
8808331;-0.46000
8811109;-0.44000
8813886;-0.43000
8816664;-0.42500
8819442;-0.43000
8822220;-0.43000
8824998;-0.45000
8827775;-0.43000
8830553;-0.43000
8833331;-0.41500
8836109;-0.42500
8838886;-0.42500
8841664;-0.43500
8844442;-0.44000
8847220;-0.43500
8849998;-0.42500
8852775;-0.44000
8855553;-0.44000
8858331;-0.44500
8861109;-0.45000
8863886;-0.43500
8866664;-0.43500
8869442;-0.44500
8872220;-0.45500
8874998;-0.45500
8877775;-0.46000
8880553;-0.45500
8883331;-0.44500
8886109;-0.44500
8888886;-0.46000
8891664;-0.47000
8894442;-0.46500
8897220;-0.45500
8899998;-0.44500
8902775;-0.46000
8905553;-0.45500
8908331;-0.46000
8911109;-0.45000
8913886;-0.44000
8916664;-0.43500
8919442;-0.43500
8922220;-0.43500
8924998;-0.43000
8927775;-0.42000
8930553;-0.40000
8933331;-0.38500
8936109;-0.38000
8938886;-0.37500
8941664;-0.38000
8944442;-0.36500
8947220;-0.35000
8949997;-0.34500
8952775;-0.34000
8955553;-0.34500
8958331;-0.35000
8961109;-0.35500
8963886;-0.33500
8966664;-0.33000
8969442;-0.32500
8972220;-0.33000
8974997;-0.34500
8977775;-0.33500
8980553;-0.31500
8983331;-0.30500
8986109;-0.31000
8988886;-0.30500
8991664;-0.32000
8994442;-0.31000
8997220;-0.31000
8999997;-0.31000
9002775;-0.30000
9005553;-0.32000
9008331;-0.34000
9011109;-0.33000
9013886;-0.31500
9016664;-0.32000
9019442;-0.32000
9022220;-0.32500
9024997;-0.33500
9027775;-0.34000
9030553;-0.34000
9033331;-0.33500
9036109;-0.34000
9038886;-0.33500
9041664;-0.35500
9044442;-0.33500
9047220;-0.32000
9049997;-0.31500
9052775;-0.32000
9055553;-0.33500
9058331;-0.35000
9061109;-0.35500
9063886;-0.35000
9066664;-0.33500
9069442;-0.35500
9072220;-0.35500
9074997;-0.37000
9077775;-0.37000
9080553;-0.36500
9083331;-0.35500
9086109;-0.35000
9088886;-0.36500
9091664;-0.37000
9094442;-0.37000
9097220;-0.36500
9099997;-0.36500
9102775;-0.37000
9105553;-0.37500
9108331;-0.39500
9111109;-0.38500
9113886;-0.37500
9116664;-0.36500
9119442;-0.37000
9122220;-0.37500
9124997;-0.38000
9127775;-0.38500
9130553;-0.37500
9133331;-0.37500
9136109;-0.36500
9138886;-0.37500
9141664;-0.39000
9144442;-0.38500
9147220;-0.37500
9149997;-0.37000
9152775;-0.37000
9155553;-0.38000
9158331;-0.40000
9161109;-0.39000
9163886;-0.39000
9166664;-0.39000
9169442;-0.38500
9172220;-0.39500
9174997;-0.40500
9177775;-0.40000
9180553;-0.38000
9183331;-0.38000
9186109;-0.38500
9188886;-0.38000
9191664;-0.39000
9194442;-0.38500
9197220;-0.37000
9199997;-0.36500
9202775;-0.37000
9205553;-0.37000
9208331;-0.39000
9211109;-0.37500
9213886;-0.37500
9216664;-0.37500
9219442;-0.39000
9222220;-0.39500
9224997;-0.38000
9227775;-0.38500
9230553;-0.38000
9233331;-0.35500
9236109;-0.36000
9238886;-0.35000
9241664;-0.34500
9244442;-0.33000
9247220;-0.32000
9249997;-0.30000
9252775;-0.29500
9255553;-0.30500
9258331;-0.32000
9261109;-0.30000
9263886;-0.28500
9266664;-0.27500
9269442;-0.27000
9272220;-0.27000
9274997;-0.28000
9277775;-0.28500
9280553;-0.28000
9283331;-0.28000
9286109;-0.28500
9288886;-0.29500
9291664;-0.31000
9294442;-0.31000
9297220;-0.30000
9299997;-0.29000
9302775;-0.30000
9305553;-0.31500
9308331;-0.33000
9311109;-0.30000
9313886;-0.28000
9316664;-0.26500
9319442;-0.27000
9322220;-0.29500
9324997;-0.33000
9327775;-0.34000
9330553;-0.34500
9333331;-0.34500
9336108;-0.34500
9338886;-0.36500
9341664;-0.39000
9344442;-0.41000
9347220;-0.40500
9349997;-0.41500
9352775;-0.41000
9355553;-0.41500
9358331;-0.42000
9361108;-0.41500
9363886;-0.40000
9366664;-0.40500
9369442;-0.41500
9372220;-0.41500
9374997;-0.43000
9377775;-0.43500
9380553;-0.42500
9383331;-0.42000
9386108;-0.42500
9388886;-0.43500
9391664;-0.44000
9394442;-0.44000
9397220;-0.43500
9399997;-0.42500
9402775;-0.43000
9405553;-0.43000
9408331;-0.43500
9411108;-0.43500
9413886;-0.43500
9416664;-0.44000
9419442;-0.47500
9422220;-0.53000
9424997;-0.57000
9427775;-0.59000
9430553;-0.61000
9433331;-0.64500
9436108;-0.67500
9438886;-0.68500
9441664;-0.66500
9444442;-0.61500
9447220;-0.54000
9449997;-0.47000
9452775;-0.38000
9455553;-0.30500
9458331;-0.18000
9461108;0.02000
9463886;0.28000
9466664;0.55500
9469442;0.77500
9472220;0.88500
9474997;0.88000
9477775;0.72000
9480553;0.41000
9483331;0.04500
9486108;-0.30500
9488886;-0.52000
9491664;-0.59500
9494442;-0.55500
9497220;-0.50500
9499997;-0.47500
9502775;-0.47000
9505553;-0.47000
9508331;-0.49000
9511108;-0.47000
9513886;-0.44500
9516664;-0.45000
9519442;-0.45000
9522220;-0.47500
9524997;-0.47500
9527775;-0.47000
9530553;-0.46000
9533331;-0.46500
9536108;-0.47000
9538886;-0.48000
9541664;-0.48500
9544442;-0.50500
9547220;-0.48500
9549997;-0.47500
9552775;-0.47500
9555553;-0.49500
9558331;-0.49000
9561108;-0.49000
9563886;-0.47500
9566664;-0.45500
9569442;-0.46500
9572220;-0.48000
9574997;-0.49000
9577775;-0.49000
9580553;-0.49000
9583331;-0.48000
9586108;-0.48500
9588886;-0.48500
9591664;-0.49000
9594442;-0.48000
9597220;-0.49000
9599997;-0.47500
9602775;-0.46500
9605553;-0.48000
9608331;-0.49000
9611108;-0.48000
9613886;-0.48000
9616664;-0.47500
9619442;-0.48500
9622220;-0.48000
9624997;-0.48500
9627775;-0.49000
9630553;-0.47500
9633331;-0.47000
9636108;-0.47000
9638886;-0.48000
9641664;-0.49000
9644442;-0.49500
9647220;-0.47000
9649997;-0.46000
9652775;-0.47000
9655553;-0.48000
9658331;-0.50500
9661108;-0.50000
9663886;-0.49500
9666664;-0.48500
9669442;-0.49500
9672220;-0.49000
9674997;-0.50000
9677775;-0.49000
9680553;-0.49000
9683331;-0.50000
9686108;-0.48000
9688886;-0.49000
9691664;-0.49500
9694442;-0.49500
9697220;-0.49000
9699997;-0.47500
9702775;-0.48000
9705553;-0.48500
9708331;-0.49500
9711108;-0.49500
9713886;-0.48500
9716664;-0.49500
9719442;-0.51000
9722220;-0.51500
9724997;-0.54500
9727775;-0.55000
9730553;-0.54500
9733331;-0.53000
9736108;-0.54000
9738886;-0.53000
9741664;-0.54000
9744442;-0.53000
9747219;-0.51500
9749997;-0.52000
9752775;-0.50500
9755553;-0.52000
9758331;-0.54000
9761108;-0.53500
9763886;-0.52000
9766664;-0.52000
9769442;-0.52500
9772219;-0.53000
9774997;-0.52500
9777775;-0.50500
9780553;-0.48000
9783331;-0.45500
9786108;-0.45000
9788886;-0.46500
9791664;-0.47000
9794442;-0.45500
9797219;-0.43500
9799997;-0.43000
9802775;-0.41500
9805553;-0.41000
9808331;-0.42000
9811108;-0.41500
9813886;-0.40500
9816664;-0.39000
9819442;-0.40000
9822219;-0.40500
9824997;-0.41500
9827775;-0.42000
9830553;-0.40000
9833331;-0.39500
9836108;-0.39500
9838886;-0.41000
9841664;-0.41500
9844442;-0.40500
9847219;-0.39000
9849997;-0.39500
9852775;-0.38500
9855553;-0.39000
9858331;-0.39500
9861108;-0.40000
9863886;-0.40000
9866664;-0.39500
9869442;-0.39500
9872219;-0.39500
9874997;-0.41500
9877775;-0.40500
9880553;-0.39500
9883331;-0.38500
9886108;-0.40500
9888886;-0.42500
9891664;-0.43000
9894442;-0.43500
9897219;-0.43000
9899997;-0.42000
9902775;-0.42500
9905553;-0.44000
9908331;-0.44500
9911108;-0.44500
9913886;-0.44000
9916664;-0.44000
9919442;-0.45000
9922219;-0.43000
9924997;-0.45000
9927775;-0.45500
9930553;-0.44000
9933331;-0.42500
9936108;-0.43500
9938886;-0.43500
9941664;-0.44500
9944442;-0.44500
9947219;-0.45000
9949997;-0.44500
9952775;-0.45500
9955553;-0.46000
9958331;-0.45500
9961108;-0.44000
9963886;-0.42000
9966664;-0.42500
9969442;-0.44000
9972219;-0.46500
9974997;-0.47500
9977775;-0.47000
9980553;-0.46500
9983331;-0.46000
9986108;-0.45500
9988886;-0.46500
9991664;-0.48000
9994442;-0.48000
9997219;-0.46500
9999997;-0.46000
10002775;-0.45500
10005553;-0.47000
10008331;-0.49000
10011108;-0.49500
10013886;-0.48500
10016664;-0.48000
10019442;-0.47500
10022219;-0.48500
10024997;-0.47500
10027775;-0.47000
10030553;-0.45500
10033331;-0.47000
10036108;-0.45500
10038886;-0.46000
10041664;-0.46000
10044442;-0.45500
10047219;-0.44500
10049997;-0.46000
10052775;-0.46000
10055553;-0.46000
10058331;-0.48000
10061108;-0.47000
10063886;-0.46500
10066664;-0.46000
10069442;-0.46000
10072219;-0.46500
10074997;-0.47500
10077775;-0.46000
10080553;-0.45500
10083331;-0.43500
10086108;-0.41500
10088886;-0.41500
10091664;-0.42500
10094442;-0.43000
10097219;-0.43000
10099997;-0.41000
10102775;-0.40500
10105553;-0.40000
10108331;-0.39000
10111108;-0.37500
10113886;-0.36500
10116664;-0.35000
10119442;-0.33500
10122219;-0.36000
10124997;-0.38000
10127775;-0.37000
10130553;-0.37500
10133330;-0.37500
10136108;-0.38500
10138886;-0.38000
10141664;-0.40000
10144442;-0.40000
10147219;-0.39500
10149997;-0.39000
10152775;-0.38500
10155553;-0.38000
10158330;-0.38500
10161108;-0.40500
10163886;-0.42000
10166664;-0.43000
10169442;-0.44500
10172219;-0.48000
10174997;-0.49500
10177775;-0.49000
10180553;-0.47000
10183330;-0.46500
10186108;-0.46500
10188886;-0.46500
10191664;-0.49000
10194442;-0.48500
10197219;-0.47500
10199997;-0.47000
10202775;-0.47500
10205553;-0.49000
10208330;-0.51000
10211108;-0.50000
10213886;-0.50500
10216664;-0.50500
10219442;-0.50000
10222219;-0.50000
10224997;-0.52000
10227775;-0.51500
10230553;-0.52000
10233330;-0.51000
10236108;-0.50500
10238886;-0.51500
10241664;-0.53000
10244442;-0.50500
10247219;-0.51500
10249997;-0.50000
10252775;-0.49500
10255553;-0.52000
10258330;-0.55500
10261108;-0.58000
10263886;-0.60000
10266664;-0.61000
10269442;-0.66000
10272219;-0.69500
10274997;-0.69000
10277775;-0.59000
10280553;-0.43000
10283330;-0.28000
10286108;-0.10000
10288886;0.14500
10291664;0.39000
10294442;0.65000
10297219;0.83000
10299997;0.88000
10302775;0.75000
10305553;0.40000
10308330;-0.07000
10311108;-0.44500
10313886;-0.61500
10316664;-0.63500
10319442;-0.60500
10322219;-0.57500
10324997;-0.56500
10327775;-0.54000
10330553;-0.52000
10333330;-0.52000
10336108;-0.52000
10338886;-0.52500
10341664;-0.53500
10344442;-0.53000
10347219;-0.52000
10349997;-0.52000
10352775;-0.52000
10355553;-0.54000
10358330;-0.55000
10361108;-0.54000
10363886;-0.53500
10366664;-0.53000
10369442;-0.53000
10372219;-0.54500
10374997;-0.55500
10377775;-0.56000
10380553;-0.54500
10383330;-0.53500
10386108;-0.53500
10388886;-0.55000
10391664;-0.54500
10394442;-0.53000
10397219;-0.52000
10399997;-0.52500
10402775;-0.52500
10405553;-0.53000
10408330;-0.53500
10411108;-0.53500
10413886;-0.52500
10416664;-0.50500
10419442;-0.50000
10422219;-0.51500
10424997;-0.54000
10427775;-0.52500
10430553;-0.52000
10433330;-0.51500
10436108;-0.52000
10438886;-0.52500
10441664;-0.54500
10444442;-0.54000
10447219;-0.53500
10449997;-0.53000
10452775;-0.54000
10455553;-0.54000
10458330;-0.56000
10461108;-0.55500
10463886;-0.55000
10466664;-0.53000
10469442;-0.54000
10472219;-0.55000
10474997;-0.56000
10477775;-0.55000
10480553;-0.53500
10483330;-0.52500
10486108;-0.53000
10488886;-0.52500
10491664;-0.54000
10494442;-0.52500
10497219;-0.52000
10499997;-0.52000
10502775;-0.52000
10505553;-0.53000
10508330;-0.53500
10511108;-0.53000
10513886;-0.52500
10516664;-0.52500
10519441;-0.52000
10522219;-0.55000
10524997;-0.56500
10527775;-0.56000
10530553;-0.55500
10533330;-0.56000
10536108;-0.55500
10538886;-0.57000
10541664;-0.58500
10544441;-0.58500
10547219;-0.59000
10549997;-0.58500
10552775;-0.57500
10555553;-0.59000
10558330;-0.60000
10561108;-0.60000
10563886;-0.59000
10566664;-0.56500
10569441;-0.57000
10572219;-0.56500
10574997;-0.56500
10577775;-0.56500
10580553;-0.53500
10583330;-0.51500
10586108;-0.51000
10588886;-0.50500
10591664;-0.51000
10594441;-0.50000
10597219;-0.47000
10599997;-0.46000
10602775;-0.44500
10605553;-0.43500
10608330;-0.44500
10611108;-0.44000
10613886;-0.42000
10616664;-0.40000
10619441;-0.40500
10622219;-0.40000
10624997;-0.40500
10627775;-0.40000
10630553;-0.40000
10633330;-0.38000
10636108;-0.37500
10638886;-0.39000
10641664;-0.39500
10644441;-0.39000
10647219;-0.39000
10649997;-0.36500
10652775;-0.36000
10655553;-0.36500
10658330;-0.37500
10661108;-0.37500
10663886;-0.37000
10666664;-0.36000
10669441;-0.36000
10672219;-0.38000
10674997;-0.38500
10677775;-0.39000
10680553;-0.38500
10683330;-0.38500
10686108;-0.39500
10688886;-0.40000
10691664;-0.41000
10694441;-0.41000
10697219;-0.39500
10699997;-0.38500
10702775;-0.38500
10705553;-0.39500
10708330;-0.40500
10711108;-0.40000
10713886;-0.39000
10716664;-0.38500
10719441;-0.39000
10722219;-0.39500
10724997;-0.40500
10727775;-0.40500
10730553;-0.39500
10733330;-0.38500
10736108;-0.39500
10738886;-0.40000
10741664;-0.42500
10744441;-0.42500
10747219;-0.41000
10749997;-0.41000
10752775;-0.40000
10755553;-0.41000
10758330;-0.41500
10761108;-0.41000
10763886;-0.41000
10766664;-0.39500
10769441;-0.39500
10772219;-0.41500
10774997;-0.42500
10777775;-0.42000
10780553;-0.41000
10783330;-0.40000
10786108;-0.40500
10788886;-0.40000
10791664;-0.41500
10794441;-0.40000
10797219;-0.39000
10799997;-0.39500
10802775;-0.39500
10805553;-0.40000
10808330;-0.41500
10811108;-0.40500
10813886;-0.39000
10816664;-0.38000
10819441;-0.38000
10822219;-0.39500
10824997;-0.40500
10827775;-0.40500
10830553;-0.40000
10833330;-0.39500
10836108;-0.40000
10838886;-0.41000
10841664;-0.41000
10844441;-0.40500
10847219;-0.40000
10849997;-0.39500
10852775;-0.38500
10855553;-0.39500
10858330;-0.40500
10861108;-0.40000
10863886;-0.39500
10866664;-0.39000
10869441;-0.40000
10872219;-0.41500
10874997;-0.41500
10877775;-0.39500
10880553;-0.39000
10883330;-0.37000
10886108;-0.37500
10888886;-0.38500
10891664;-0.39500
10894441;-0.38500
10897219;-0.37000
10899997;-0.35000
10902775;-0.34000
10905553;-0.34500
10908330;-0.34500
10911108;-0.33000
10913886;-0.31500
10916664;-0.30500
10919441;-0.30500
10922219;-0.31000
10924997;-0.31000
10927775;-0.29000
10930552;-0.29000
10933330;-0.27500
10936108;-0.27500
10938886;-0.28500
10941664;-0.29500
10944441;-0.30000
10947219;-0.29500
10949997;-0.30000
10952775;-0.29500
10955552;-0.30500
10958330;-0.31500
10961108;-0.32000
10963886;-0.31000
10966664;-0.30500
10969441;-0.28500
10972219;-0.26500
10974997;-0.26500
10977775;-0.27500
10980552;-0.30500
10983330;-0.31500
10986108;-0.33500
10988886;-0.36000
10991664;-0.38000
10994441;-0.39000
10997219;-0.39500
10999997;-0.40000
11002775;-0.39500
11005552;-0.41000
11008330;-0.42000
11011108;-0.41000
11013886;-0.40000
11016664;-0.41000
11019441;-0.41000
11022219;-0.42000
11024997;-0.43500
11027775;-0.42500
11030552;-0.42000
11033330;-0.41000
11036108;-0.42000
11038886;-0.42000
11041664;-0.42500
11044441;-0.42000
11047219;-0.41500
11049997;-0.40000
11052775;-0.40500
11055552;-0.42500
11058330;-0.45500
11061108;-0.48500
11063886;-0.53000
11066664;-0.54500
11069441;-0.56000
11072219;-0.58500
11074997;-0.64500
11077775;-0.69000
11080552;-0.70000
11083330;-0.64500
11086108;-0.58500
11088886;-0.52000
11091664;-0.43500
11094441;-0.31500
11097219;-0.20000
11099997;-0.07000
11102775;0.10500
11105552;0.34000
11108330;0.63000
11111108;0.91500
11113886;1.10000
11116664;1.11500
11119441;0.89000
11122219;0.41500
11124997;-0.12000
11127775;-0.46500
11130552;-0.55500
11133330;-0.49500
11136108;-0.41000
11138886;-0.41500
11141664;-0.44500
11144441;-0.44500
11147219;-0.44500
11149997;-0.43500
11152775;-0.43000
11155552;-0.44500
11158330;-0.47000
11161108;-0.45500
11163886;-0.45500
11166664;-0.44500
11169441;-0.44500
11172219;-0.44500
11174997;-0.47000
11177775;-0.46500
11180552;-0.45500
11183330;-0.45000
11186108;-0.45500
11188886;-0.45500
11191664;-0.47500
11194441;-0.47500
11197219;-0.46000
11199997;-0.45500
11202775;-0.45500
11205552;-0.45500
11208330;-0.46500
11211108;-0.46000
11213886;-0.45000
11216664;-0.44000
11219441;-0.43500
11222219;-0.44500
11224997;-0.46500
11227775;-0.46500
11230552;-0.44500
11233330;-0.45000
11236108;-0.44500
11238886;-0.45500
11241664;-0.46500
11244441;-0.48000
11247219;-0.46500
11249997;-0.45000
11252775;-0.45000
11255552;-0.45500
11258330;-0.46500
11261108;-0.45500
11263886;-0.45000
11266664;-0.45000
11269441;-0.44000
11272219;-0.45000
11274997;-0.46000
11277775;-0.46000
11280552;-0.45000
11283330;-0.44500
11286108;-0.44500
11288886;-0.45000
11291664;-0.46000
11294441;-0.47000
11297219;-0.45000
11299997;-0.45500
11302775;-0.45500
11305552;-0.46000
11308330;-0.46500
11311108;-0.46500
11313886;-0.46500
11316663;-0.47000
11319441;-0.46500
11322219;-0.48000
11324997;-0.48500
11327775;-0.48000
11330552;-0.47500
11333330;-0.46500
11336108;-0.46500
11338886;-0.47000
11341663;-0.51000
11344441;-0.50000
11347219;-0.48500
11349997;-0.47500
11352775;-0.48000
11355552;-0.49000
11358330;-0.48500
11361108;-0.48000
11363886;-0.47000
11366663;-0.45000
11369441;-0.44500
11372219;-0.44500
11374997;-0.44500
11377775;-0.42000
11380552;-0.40500
11383330;-0.39500
11386108;-0.39000
11388886;-0.39000
11391663;-0.38500
11394441;-0.39500
11397219;-0.37000
11399997;-0.36500
11402775;-0.36000
11405552;-0.37000
11408330;-0.36000
11411108;-0.35500
11413886;-0.34000
11416663;-0.32500
11419441;-0.32500
11422219;-0.32000
11424997;-0.33500
11427775;-0.34000
11430552;-0.32500
11433330;-0.32000
11436108;-0.31500
11438886;-0.33500
11441663;-0.34000
11444441;-0.35000
11447219;-0.34500
11449997;-0.33000
11452775;-0.33000
11455552;-0.34500
11458330;-0.35000
11461108;-0.34000
11463886;-0.33500
11466663;-0.33000
11469441;-0.33000
11472219;-0.34000
11474997;-0.34500
11477775;-0.34500
11480552;-0.34000
11483330;-0.33000
11486108;-0.32500
11488886;-0.34000
11491663;-0.35500
11494441;-0.36000
11497219;-0.35500
11499997;-0.34500
11502775;-0.35500
11505552;-0.35500
11508330;-0.36000
11511108;-0.35500
11513886;-0.35000
11516663;-0.35000
11519441;-0.36500
11522219;-0.38500
11524997;-0.38000
11527775;-0.36500
11530552;-0.36500
11533330;-0.35500
11536108;-0.35000
11538886;-0.37000
11541663;-0.37500
11544441;-0.37000
11547219;-0.36500
11549997;-0.36500
11552775;-0.37000
11555552;-0.39000
11558330;-0.38500
11561108;-0.39500
11563886;-0.40500
11566663;-0.39000
11569441;-0.37500
11572219;-0.38000
11574997;-0.39000
11577775;-0.38500
11580552;-0.38000
11583330;-0.38000
11586108;-0.37500
11588886;-0.38000
11591663;-0.39500
11594441;-0.39000
11597219;-0.38500
11599997;-0.37000
11602775;-0.36500
11605552;-0.37000
11608330;-0.38500
11611108;-0.37500
11613886;-0.36500
11616663;-0.36500
11619441;-0.36000
11622219;-0.37000
11624997;-0.36500
11627775;-0.37500
11630552;-0.37000
11633330;-0.36000
11636108;-0.36500
11638886;-0.38500
11641663;-0.38500
11644441;-0.38000
11647219;-0.36500
11649997;-0.36500
11652775;-0.36000
11655552;-0.36500
11658330;-0.37000
11661108;-0.36500
11663886;-0.36000
11666663;-0.35000
11669441;-0.33500
11672219;-0.33500
11674997;-0.32000
11677775;-0.30500
11680552;-0.30000
11683330;-0.27500
11686108;-0.28500
11688886;-0.28500
11691663;-0.28500
11694441;-0.27000
11697219;-0.26000
11699997;-0.25000
11702775;-0.24500
11705552;-0.24000
11708330;-0.26000
11711108;-0.27000
11713886;-0.26500
11716663;-0.26500
11719441;-0.27000
11722219;-0.28500
11724997;-0.29000
11727774;-0.27500
11730552;-0.27000
11733330;-0.27000
11736108;-0.27500
11738886;-0.27000
11741663;-0.24500
11744441;-0.23500
11747219;-0.25500
11749997;-0.27500
11752774;-0.29500
11755552;-0.32000
11758330;-0.33000
11761108;-0.34000
11763886;-0.34500
11766663;-0.35000
11769441;-0.35500
11772219;-0.37000
11774997;-0.38500
11777774;-0.37500
11780552;-0.37500
11783330;-0.37000
11786108;-0.39000
11788886;-0.40000
11791663;-0.39500
11794441;-0.39500
11797219;-0.41000
11799997;-0.39500
11802774;-0.39000
11805552;-0.39500
11808330;-0.41000
11811108;-0.41000
11813886;-0.39000
11816663;-0.39000
11819441;-0.38500
11822219;-0.39500
11824997;-0.40500
11827774;-0.40500
11830552;-0.42500
11833330;-0.46000
11836108;-0.49500
11838886;-0.53000
11841663;-0.54500
11844441;-0.57000
11847219;-0.61500
11849997;-0.65000
