time_ms;ecg_value
0;0.75500
2778;0.87000
5556;0.86500
8333;0.69500
11111;0.35500
13889;-0.04000
16667;-0.35000
19444;-0.48000
22222;-0.49500
25000;-0.44000
27778;-0.38500
30556;-0.36500
33333;-0.35500
36111;-0.35000
38889;-0.35000
41667;-0.35500
44444;-0.37000
47222;-0.35000
50000;-0.35500
52778;-0.34000
55556;-0.35500
58333;-0.36000
61111;-0.37000
63889;-0.37500
66667;-0.37000
69444;-0.36000
72222;-0.35500
75000;-0.36000
77778;-0.36000
80556;-0.37000
83333;-0.36000
86111;-0.34500
88889;-0.34500
91667;-0.35000
94444;-0.36500
97222;-0.36000
100000;-0.34500
102778;-0.34500
105556;-0.35000
108333;-0.35500
111111;-0.36000
113889;-0.36000
116667;-0.35500
119444;-0.34500
122222;-0.35000
125000;-0.35500
127778;-0.35500
130556;-0.37000
133333;-0.36000
136111;-0.36000
138889;-0.35000
141667;-0.35000
144444;-0.36500
147222;-0.36000
150000;-0.34500
152778;-0.33500
155556;-0.34000
158333;-0.35000
161111;-0.35500
163889;-0.35000
166667;-0.34500
169444;-0.33500
172222;-0.33000
175000;-0.34500
177778;-0.35000
180556;-0.34500
183333;-0.35000
186111;-0.34000
188889;-0.36000
191667;-0.35000
194444;-0.37000
197222;-0.36000
200000;-0.35000
202778;-0.33500
205555;-0.34500
208333;-0.35000
211111;-0.36000
213889;-0.35000
216667;-0.33000
219444;-0.32500
222222;-0.33000
225000;-0.33000
227778;-0.33500
230555;-0.34500
233333;-0.33500
236111;-0.32000
238889;-0.33000
241667;-0.33000
244444;-0.35000
247222;-0.35000
250000;-0.33000
252778;-0.33000
255555;-0.33500
258333;-0.33500
261111;-0.35000
263889;-0.35000
266667;-0.35000
269444;-0.34500
272222;-0.33500
275000;-0.35000
277778;-0.36000
280555;-0.35500
283333;-0.35000
286111;-0.34000
288889;-0.33500
291667;-0.34500
294444;-0.36000
297222;-0.36000
300000;-0.35000
302778;-0.33500
305555;-0.33000
308333;-0.33000
311111;-0.32500
313889;-0.31500
316667;-0.31000
319444;-0.29000
322222;-0.28500
325000;-0.28500
327778;-0.29500
330555;-0.29000
333333;-0.28000
336111;-0.26500
338889;-0.26500
341667;-0.26500
344444;-0.26000
347222;-0.26000
350000;-0.23500
352778;-0.23000
355555;-0.24000
358333;-0.26500
361111;-0.27500
363889;-0.27000
366667;-0.26000
369444;-0.24500
372222;-0.25000
375000;-0.25500
377778;-0.26000
380555;-0.27000
383333;-0.26000
386111;-0.25000
388889;-0.26000
391667;-0.25500
394444;-0.25500
397222;-0.25500
400000;-0.26500
402778;-0.25000
405555;-0.24500
408333;-0.25000
411111;-0.26000
413889;-0.26000
416667;-0.26000
419444;-0.25000
422222;-0.26500
425000;-0.30000
427778;-0.28500
430555;-0.29500
433333;-0.27500
436111;-0.26500
438889;-0.28000
441667;-0.28500
444444;-0.30000
447222;-0.30000
450000;-0.29000
452778;-0.28500
455555;-0.29000
458333;-0.30000
461111;-0.30500
463889;-0.30000
466667;-0.30000
469444;-0.30000
472222;-0.29000
475000;-0.29500
477778;-0.30000
480555;-0.31000
483333;-0.30000
486111;-0.29500
488889;-0.30500
491667;-0.31000
494444;-0.32500
497222;-0.33000
500000;-0.31500
502778;-0.30500
505555;-0.32500
508333;-0.33500
511111;-0.33500
513889;-0.33000
516667;-0.33000
519444;-0.32000
522222;-0.31500
525000;-0.31000
527778;-0.32500
530555;-0.34500
533333;-0.31500
536111;-0.31000
538889;-0.32000
541667;-0.32000
544444;-0.33000
547222;-0.31500
550000;-0.31500
552778;-0.31000
555555;-0.31500
558333;-0.32500
561111;-0.34000
563889;-0.33000
566667;-0.32000
569444;-0.30500
572222;-0.30500
575000;-0.31000
577778;-0.31000
580555;-0.29000
583333;-0.27000
586111;-0.26000
588889;-0.26000
591667;-0.26500
594444;-0.28000
597222;-0.28000
600000;-0.26500
602778;-0.23500
605555;-0.23000
608333;-0.23500
611111;-0.23500
613889;-0.22000
616666;-0.20500
619444;-0.18000
622222;-0.19500
625000;-0.21500
627778;-0.23500
630555;-0.25000
633333;-0.24500
636111;-0.23500
638889;-0.23500
641666;-0.25000
644444;-0.26000
647222;-0.27500
650000;-0.26000
652778;-0.24500
655555;-0.22500
658333;-0.23000
661111;-0.25500
663889;-0.29000
666666;-0.29000
669444;-0.29500
672222;-0.31000
675000;-0.34000
677778;-0.36000
680555;-0.36000
683333;-0.35000
686111;-0.35000
688889;-0.34500
691666;-0.35500
694444;-0.38000
697222;-0.36500
700000;-0.35000
702778;-0.37500
705555;-0.37000
708333;-0.37000
711111;-0.38000
713889;-0.37500
716666;-0.38000
719444;-0.37500
722222;-0.38000
725000;-0.38000
727778;-0.38500
730555;-0.39500
733333;-0.38500
736111;-0.38000
738889;-0.38000
741666;-0.40500
744444;-0.41500
747222;-0.42500
750000;-0.47000
752778;-0.48500
755555;-0.49000
758333;-0.52000
761111;-0.56500
763889;-0.61000
766666;-0.60500
769444;-0.59500
772222;-0.55500
775000;-0.52000
777778;-0.45000
780555;-0.35500
783333;-0.24000
786111;-0.12000
788889;0.04000
791666;0.25000
794444;0.47500
797222;0.68000
800000;0.81500
802778;0.85500
805555;0.70500
808333;0.39500
811111;0.00000
813889;-0.35000
816666;-0.53000
819444;-0.56500
822222;-0.54000
825000;-0.48500
827778;-0.45000
830555;-0.45000
833333;-0.43500
836111;-0.42000
838889;-0.42000
841666;-0.44000
844444;-0.44000
847222;-0.44500
850000;-0.42000
852778;-0.41500
855555;-0.43000
858333;-0.43000
861111;-0.45500
863889;-0.45500
866666;-0.45000
869444;-0.43500
872222;-0.44000
875000;-0.43000
877778;-0.42500
880555;-0.42000
883333;-0.42500
886111;-0.43500
888889;-0.44000
891666;-0.44500
894444;-0.46000
897222;-0.47500
900000;-0.46500
902778;-0.44500
905555;-0.46000
908333;-0.46000
911111;-0.47000
913889;-0.47500
916666;-0.46000
919444;-0.43500
922222;-0.43000
925000;-0.43500
927778;-0.45000
930555;-0.47500
933333;-0.47500
936111;-0.45000
938889;-0.45500
941666;-0.47000
944444;-0.46500
947222;-0.45500
950000;-0.46000
952778;-0.44000
955555;-0.43500
958333;-0.44000
961111;-0.45000
963889;-0.45500
966666;-0.44000
969444;-0.44000
972222;-0.45500
975000;-0.46000
977778;-0.47000
980555;-0.47000
983333;-0.44500
986111;-0.43500
988889;-0.44500
991666;-0.46000
994444;-0.46500
997222;-0.47000
1000000;-0.46000
1002777;-0.47000
1005555;-0.48500
1008333;-0.49000
1011111;-0.48000
1013889;-0.46500
1016666;-0.45500
1019444;-0.46500
1022222;-0.48000
1025000;-0.48500
1027777;-0.50500
1030555;-0.50500
1033333;-0.53000
1036111;-0.52000
1038889;-0.51000
1041666;-0.52000
1044444;-0.53000
1047222;-0.52500
1050000;-0.52000
1052777;-0.51000
1055555;-0.52500
1058333;-0.54000
1061111;-0.55000
1063889;-0.54500
1066666;-0.54000
1069444;-0.52500
1072222;-0.53000
1075000;-0.53000
1077777;-0.50500
1080555;-0.49000
1083333;-0.48000
1086111;-0.49500
1088889;-0.49000
1091666;-0.50000
1094444;-0.50000
1097222;-0.48500
1100000;-0.46500
1102777;-0.44500
1105555;-0.43500
1108333;-0.42500
1111111;-0.43000
1113889;-0.42000
1116666;-0.41000
1119444;-0.39000
1122222;-0.38000
1125000;-0.37000
1127777;-0.38000
1130555;-0.39000
1133333;-0.37500
1136111;-0.37000
1138889;-0.36000
1141666;-0.34500
1144444;-0.34000
1147222;-0.35500
1150000;-0.34000
1152777;-0.32500
1155555;-0.32500
1158333;-0.33000
1161111;-0.34000
1163889;-0.35500
1166666;-0.35000
1169444;-0.35000
1172222;-0.35000
1175000;-0.34500
1177777;-0.35500
1180555;-0.35000
1183333;-0.34500
1186111;-0.34000
1188889;-0.34500
1191666;-0.35500
1194444;-0.35500
1197222;-0.36000
1200000;-0.35000
1202777;-0.34000
1205555;-0.32500
1208333;-0.34500
1211111;-0.36000
1213889;-0.37500
1216666;-0.36500
1219444;-0.34500
1222222;-0.34500
1225000;-0.36000
1227777;-0.36000
1230555;-0.38000
1233333;-0.36000
1236111;-0.34500
1238889;-0.35500
1241666;-0.37000
1244444;-0.38000
1247222;-0.38000
1250000;-0.37000
1252777;-0.36000
1255555;-0.37000
1258333;-0.37500
1261111;-0.38000
1263889;-0.38000
1266666;-0.37000
1269444;-0.36500
1272222;-0.38000
1275000;-0.39000
1277777;-0.41500
1280555;-0.41500
1283333;-0.40500
1286111;-0.38500
1288889;-0.39000
1291666;-0.38500
1294444;-0.39000
1297222;-0.38500
1300000;-0.38000
1302777;-0.37500
1305555;-0.38000
1308333;-0.39000
1311111;-0.39000
1313889;-0.38500
1316666;-0.38500
1319444;-0.38000
1322222;-0.38500
1325000;-0.38500
1327777;-0.39000
1330555;-0.39000
1333333;-0.39500
1336111;-0.38000
1338889;-0.38500
1341666;-0.39500
1344444;-0.40000
1347222;-0.39000
1350000;-0.38500
1352777;-0.36500
1355555;-0.38000
1358333;-0.37000
1361111;-0.36500
1363889;-0.37000
1366666;-0.35000
1369444;-0.33500
1372222;-0.33500
1375000;-0.32000
1377777;-0.32500
1380555;-0.32000
1383333;-0.31000
1386111;-0.29500
1388888;-0.29500
1391666;-0.29000
1394444;-0.29500
1397222;-0.29000
1400000;-0.27000
1402777;-0.26000
1405555;-0.26000
1408333;-0.25000
1411111;-0.27000
1413888;-0.27000
1416666;-0.27000
1419444;-0.26500
1422222;-0.27000
1425000;-0.28500
1427777;-0.28500
1430555;-0.28000
1433333;-0.27500
1436111;-0.27000
1438888;-0.28000
1441666;-0.28000
1444444;-0.25500
1447222;-0.23500
1450000;-0.23000
1452777;-0.22500
1455555;-0.26000
1458333;-0.30500
1461111;-0.32500
1463888;-0.33500
1466666;-0.33500
1469444;-0.34500
1472222;-0.35000
1475000;-0.36500
1477777;-0.38500
1480555;-0.38500
1483333;-0.37000
1486111;-0.35500
1488888;-0.36500
1491666;-0.36500
1494444;-0.37000
1497222;-0.39500
1500000;-0.37500
1502777;-0.36500
1505555;-0.37500
1508333;-0.38000
1511111;-0.38500
1513888;-0.38500
1516666;-0.37000
1519444;-0.36500
1522222;-0.37500
1525000;-0.36500
1527777;-0.37000
1530555;-0.37500
1533333;-0.36500
1536111;-0.35000
1538888;-0.37000
1541666;-0.40000
1544444;-0.44500
1547222;-0.47500
1550000;-0.48500
1552777;-0.48500
1555555;-0.50500
1558333;-0.55000
1561111;-0.58000
1563888;-0.57500
1566666;-0.50500
1569444;-0.40500
1572222;-0.29500
1575000;-0.18000
1577777;-0.06500
1580555;0.10500
1583333;0.33000
1586111;0.60500
1588888;0.82500
1591666;0.97500
1594444;1.00500
1597222;0.86500
1600000;0.55000
1602777;0.11000
1605555;-0.28500
1608333;-0.49000
1611111;-0.53500
1613888;-0.47500
1616666;-0.42500
1619444;-0.38000
1622222;-0.37000
1625000;-0.38000
1627777;-0.40000
1630555;-0.40500
1633333;-0.39000
1636111;-0.38500
1638888;-0.38500
1641666;-0.39000
1644444;-0.41000
1647222;-0.40500
1650000;-0.41000
1652777;-0.39000
1655555;-0.40000
1658333;-0.40500
1661111;-0.40500
1663888;-0.41500
1666666;-0.40500
1669444;-0.39000
1672222;-0.40000
1675000;-0.40000
1677777;-0.40500
1680555;-0.40500
1683333;-0.39500
1686111;-0.39000
1688888;-0.38000
1691666;-0.39000
1694444;-0.40000
1697222;-0.41000
1700000;-0.38500
1702777;-0.38500
1705555;-0.38000
1708333;-0.39000
1711111;-0.40500
1713888;-0.41500
1716666;-0.40000
1719444;-0.38500
1722222;-0.39000
1725000;-0.40000
1727777;-0.41000
1730555;-0.41500
1733333;-0.39500
1736111;-0.39000
1738888;-0.39500
1741666;-0.39500
1744444;-0.39500
1747222;-0.40000
1750000;-0.39500
1752777;-0.38500
1755555;-0.39000
1758333;-0.39000
1761111;-0.39000
1763888;-0.40000
1766666;-0.38500
1769444;-0.36500
1772222;-0.38000
1775000;-0.38500
1777777;-0.38500
1780555;-0.39000
1783333;-0.37500
1786111;-0.37000
1788888;-0.38000
1791666;-0.38500
1794444;-0.39500
1797222;-0.40000
1799999;-0.39500
1802777;-0.38500
1805555;-0.38500
1808333;-0.39500
1811111;-0.40500
1813888;-0.40500
1816666;-0.39500
1819444;-0.38500
1822222;-0.40000
1824999;-0.40500
1827777;-0.42000
1830555;-0.42000
1833333;-0.41000
1836111;-0.40500
1838888;-0.41000
1841666;-0.41500
1844444;-0.43000
1847222;-0.42500
1849999;-0.42000
1852777;-0.41000
1855555;-0.42000
1858333;-0.42000
1861111;-0.41500
1863888;-0.41500
1866666;-0.40500
1869444;-0.39000
1872222;-0.39500
1874999;-0.39500
1877777;-0.39500
1880555;-0.39500
1883333;-0.36000
1886111;-0.35500
1888888;-0.33500
1891666;-0.33500
1894444;-0.33500
1897222;-0.32500
1899999;-0.31000
1902777;-0.28500
1905555;-0.29000
1908333;-0.28000
1911111;-0.28500
1913888;-0.28500
1916666;-0.27000
1919444;-0.24500
1922222;-0.25000
1924999;-0.24500
1927777;-0.25500
1930555;-0.25000
1933333;-0.24500
1936111;-0.22000
1938888;-0.23500
1941666;-0.23500
1944444;-0.24000
1947222;-0.24000
1949999;-0.23500
1952777;-0.22000
1955555;-0.23000
1958333;-0.23500
1961111;-0.24000
1963888;-0.23500
1966666;-0.23500
1969444;-0.22500
1972222;-0.23500
1974999;-0.24500
1977777;-0.24500
1980555;-0.26000
1983333;-0.24500
1986111;-0.23000
1988888;-0.24000
1991666;-0.25500
1994444;-0.26000
1997222;-0.25500
1999999;-0.25500
2002777;-0.24000
2005555;-0.24500
2008333;-0.25500
2011111;-0.26000
2013888;-0.25500
2016666;-0.24500
2019444;-0.24500
2022222;-0.23500
2024999;-0.25000
2027777;-0.25500
2030555;-0.26500
2033333;-0.26000
2036111;-0.24500
2038888;-0.27000
2041666;-0.27500
2044444;-0.28000
2047222;-0.28000
2049999;-0.26500
2052777;-0.26500
2055555;-0.27500
2058333;-0.28000
2061111;-0.30000
2063888;-0.27500
2066666;-0.28500
2069444;-0.27500
2072222;-0.27500
2074999;-0.29500
2077777;-0.28500
2080555;-0.28500
2083333;-0.28000
2086111;-0.27000
2088888;-0.27500
2091666;-0.28000
2094444;-0.28500
2097222;-0.28500
2099999;-0.27500
2102777;-0.27500
2105555;-0.27000
2108333;-0.26500
2111111;-0.29000
2113888;-0.28500
2116666;-0.28000
2119444;-0.26000
2122222;-0.28500
2124999;-0.28000
2127777;-0.29500
2130555;-0.28500
2133333;-0.27500
2136111;-0.27000
2138888;-0.27500
2141666;-0.28000
2144444;-0.29000
2147222;-0.29000
2149999;-0.28000
2152777;-0.27000
2155555;-0.26500
2158333;-0.27000
2161111;-0.27500
2163888;-0.27500
2166666;-0.27500
2169444;-0.24500
2172222;-0.24500
2174999;-0.23500
2177777;-0.22500
2180555;-0.21000
2183333;-0.20500
2186110;-0.18500
2188888;-0.19000
2191666;-0.20000
2194444;-0.20000
2197222;-0.19500
2199999;-0.17500
2202777;-0.15000
2205555;-0.15000
2208333;-0.15000
2211110;-0.16000
2213888;-0.16500
2216666;-0.17000
2219444;-0.15000
2222222;-0.17500
2224999;-0.18000
2227777;-0.18000
2230555;-0.18500
2233333;-0.17500
2236110;-0.17000
2238888;-0.19000
2241666;-0.16000
2244444;-0.14500
2247222;-0.15000
2249999;-0.16000
2252777;-0.16500
2255555;-0.20500
2258333;-0.21500
2261110;-0.23000
2263888;-0.24500
2266666;-0.25000
2269444;-0.24000
2272222;-0.25500
2274999;-0.27000
2277777;-0.29000
2280555;-0.30500
2283333;-0.28500
2286110;-0.27500
2288888;-0.28000
2291666;-0.29500
2294444;-0.29000
2297222;-0.30000
2299999;-0.30000
2302777;-0.29500
2305555;-0.29000
2308333;-0.30000
2311110;-0.29000
2313888;-0.29000
2316666;-0.28000
2319444;-0.27500
2322222;-0.28500
2324999;-0.29500
2327777;-0.29000
2330555;-0.30000
2333333;-0.30500
2336110;-0.32000
2338888;-0.36500
2341666;-0.40500
2344444;-0.43500
2347222;-0.45000
2349999;-0.49000
2352777;-0.47500
2355555;-0.41000
2358333;-0.29500
2361110;-0.14500
2363888;0.01000
2366666;0.23000
2369444;0.53000
2372222;0.80500
2374999;0.99500
2377777;1.03000
2380555;0.87000
2383333;0.52000
2386110;0.09500
2388888;-0.27000
2391666;-0.46500
2394444;-0.51500
2397222;-0.49500
2399999;-0.43000
2402777;-0.37500
2405555;-0.36000
2408333;-0.33000
2411110;-0.34000
2413888;-0.35000
2416666;-0.34500
2419444;-0.33500
2422222;-0.33000
2424999;-0.34000
2427777;-0.34500
2430555;-0.35500
2433333;-0.34500
2436110;-0.34000
2438888;-0.33500
2441666;-0.35000
2444444;-0.35500
2447222;-0.35500
2449999;-0.35000
2452777;-0.33500
2455555;-0.34000
2458333;-0.34000
2461110;-0.36000
2463888;-0.35500
2466666;-0.34500
2469444;-0.33500
2472222;-0.34000
2474999;-0.34000
2477777;-0.35000
2480555;-0.35500
2483333;-0.35000
2486110;-0.34000
2488888;-0.34500
2491666;-0.34500
2494444;-0.35000
2497222;-0.36000
2499999;-0.35000
2502777;-0.32000
2505555;-0.33000
2508333;-0.33000
2511110;-0.32500
2513888;-0.33500
2516666;-0.32500
2519444;-0.32000
2522222;-0.31000
2524999;-0.32500
2527777;-0.34000
2530555;-0.33000
2533333;-0.34000
2536110;-0.32500
2538888;-0.33000
2541666;-0.34000
2544444;-0.34500
2547222;-0.34500
2549999;-0.33000
2552777;-0.32000
2555555;-0.31500
2558333;-0.32000
2561110;-0.33500
2563888;-0.33000
2566666;-0.33000
2569444;-0.32000
2572222;-0.32000
2574999;-0.33500
2577777;-0.34000
2580555;-0.33500
2583333;-0.32000
2586110;-0.30500
2588888;-0.32000
2591666;-0.32500
2594444;-0.33500
2597221;-0.33500
2599999;-0.32000
2602777;-0.31500
2605555;-0.32000
2608333;-0.33000
2611110;-0.34000
2613888;-0.34500
2616666;-0.34500
2619444;-0.33000
2622221;-0.34500
2624999;-0.34000
2627777;-0.34500
2630555;-0.33500
2633333;-0.33000
2636110;-0.32500
2638888;-0.32000
2641666;-0.33500
2644444;-0.33500
2647221;-0.33500
2649999;-0.32000
2652777;-0.31000
2655555;-0.29500
2658333;-0.29000
2661110;-0.28500
2663888;-0.28500
2666666;-0.27000
2669444;-0.25000
2672221;-0.24500
2674999;-0.24500
2677777;-0.25000
2680555;-0.25000
2683333;-0.23500
2686110;-0.21500
2688888;-0.21500
2691666;-0.22000
2694444;-0.22500
2697221;-0.22500
2699999;-0.21500
2702777;-0.20000
2705555;-0.20500
2708333;-0.20500
2711110;-0.22000
2713888;-0.22000
2716666;-0.21500
2719444;-0.20500
2722221;-0.21500
2724999;-0.22500
2727777;-0.25000
2730555;-0.24500
2733333;-0.23000
2736110;-0.21500
2738888;-0.22000
2741666;-0.22500
2744444;-0.23000
2747221;-0.24000
2749999;-0.23500
2752777;-0.22000
2755555;-0.22500
2758333;-0.23500
2761110;-0.23000
2763888;-0.23500
2766666;-0.23000
2769444;-0.21500
2772221;-0.22000
2774999;-0.22500
2777777;-0.23500
2780555;-0.25500
2783333;-0.24000
2786110;-0.23500
2788888;-0.23500
2791666;-0.24500
2794444;-0.24500
2797221;-0.25000
2799999;-0.23500
2802777;-0.24000
2805555;-0.25000
2808333;-0.25500
2811110;-0.27500
2813888;-0.27000
2816666;-0.27500
2819444;-0.27000
2822221;-0.27500
2824999;-0.29000
2827777;-0.28000
2830555;-0.28000
2833333;-0.26500
2836110;-0.26000
2838888;-0.26500
2841666;-0.25500
2844444;-0.27000
2847221;-0.28000
2849999;-0.26500
2852777;-0.26500
2855555;-0.26000
2858333;-0.28000
2861110;-0.28500
2863888;-0.28500
2866666;-0.27500
2869444;-0.26500
2872221;-0.26000
2874999;-0.28500
2877777;-0.28500
2880555;-0.29500
2883333;-0.28000
2886110;-0.27000
2888888;-0.28000
2891666;-0.28000
2894444;-0.29000
2897221;-0.28000
2899999;-0.27500
2902777;-0.26000
2905555;-0.26500
2908333;-0.27000
2911110;-0.26000
2913888;-0.25500
2916666;-0.24000
2919444;-0.21500
2922221;-0.20500
2924999;-0.19500
2927777;-0.20500
2930555;-0.19500
2933333;-0.18000
2936110;-0.17500
2938888;-0.18500
2941666;-0.17500
2944444;-0.17500
2947221;-0.17500
2949999;-0.15000
2952777;-0.15000
2955555;-0.14500
2958333;-0.14500
2961110;-0.17000
2963888;-0.18500
2966666;-0.18000
2969444;-0.18500
2972221;-0.18000
2974999;-0.17500
2977777;-0.18000
2980555;-0.19000
2983332;-0.19000
2986110;-0.19500
2988888;-0.20000
2991666;-0.18500
2994444;-0.18000
2997221;-0.17000
2999999;-0.13500
3002777;-0.12500
3005555;-0.13000
3008332;-0.18000
3011110;-0.22000
3013888;-0.24500
3016666;-0.24000
3019444;-0.25500
3022221;-0.26000
3024999;-0.29000
3027777;-0.30000
3030555;-0.31000
3033332;-0.29500
3036110;-0.29500
3038888;-0.29000
3041666;-0.30500
3044444;-0.31500
3047221;-0.32000
3049999;-0.31000
3052777;-0.30500
3055555;-0.31000
3058332;-0.33000
3061110;-0.33000
3063888;-0.33500
3066666;-0.32000
3069444;-0.31000
3072221;-0.30000
3074999;-0.31000
3077777;-0.33500
3080555;-0.33000
3083332;-0.31000
3086110;-0.32500
3088888;-0.35000
3091666;-0.39000
3094444;-0.43000
3097221;-0.45500
3099999;-0.48000
3102777;-0.49500
3105555;-0.49000
3108332;-0.42000
3111110;-0.29500
3113888;-0.15000
3116666;0.04000
3119444;0.31500
3122221;0.60500
3124999;0.81000
3127777;0.87000
3130555;0.76500
3133332;0.45500
3136110;0.03000
3138888;-0.33500
3141666;-0.51000
3144444;-0.49500
3147221;-0.43000
3149999;-0.36000
3152777;-0.34500
3155555;-0.35500
3158332;-0.36000
3161110;-0.36000
3163888;-0.36500
3166666;-0.35500
3169444;-0.34500
3172221;-0.36000
3174999;-0.36500
3177777;-0.37000
3180555;-0.37500
3183332;-0.36000
3186110;-0.35500
3188888;-0.35500
3191666;-0.36500
3194444;-0.36000
3197221;-0.35500
3199999;-0.34000
3202777;-0.34000
3205555;-0.35000
3208332;-0.35000
3211110;-0.36000
3213888;-0.36500
3216666;-0.35500
3219444;-0.34500
3222221;-0.34000
3224999;-0.35500
3227777;-0.36500
3230555;-0.37500
3233332;-0.35500
3236110;-0.35000
3238888;-0.34500
3241666;-0.36000
3244444;-0.36500
3247221;-0.36500
3249999;-0.36000
3252777;-0.34500
3255555;-0.35500
3258332;-0.36000
3261110;-0.35000
3263888;-0.36500
3266666;-0.35000
3269444;-0.34000
3272221;-0.34500
3274999;-0.35500
3277777;-0.37000
3280555;-0.36500
3283332;-0.36000
3286110;-0.35000
3288888;-0.35000
3291666;-0.36000
3294444;-0.36000
3297221;-0.36500
3299999;-0.35000
3302777;-0.34500
3305555;-0.33500
3308332;-0.35500
3311110;-0.34500
3313888;-0.34000
3316666;-0.34500
3319444;-0.33500
3322221;-0.34500
3324999;-0.35500
3327777;-0.36500
3330555;-0.34500
3333332;-0.33500
3336110;-0.32500
3338888;-0.32500
3341666;-0.33500
3344444;-0.35000
3347221;-0.36000
3349999;-0.35000
3352777;-0.34000
3355555;-0.34500
3358332;-0.35500
3361110;-0.37000
3363888;-0.38000
3366666;-0.36000
3369444;-0.35500
3372221;-0.36000
3374999;-0.36500
3377777;-0.36500
3380555;-0.37000
3383332;-0.36500
3386110;-0.36500
3388888;-0.35500
3391666;-0.37500
3394443;-0.38500
3397221;-0.38000
3399999;-0.37000
3402777;-0.34000
3405555;-0.33000
3408332;-0.32500
3411110;-0.33000
3413888;-0.32000
3416666;-0.30000
3419443;-0.28500
3422221;-0.30500
3424999;-0.28500
3427777;-0.29500
3430555;-0.29000
3433332;-0.28000
3436110;-0.27500
3438888;-0.28500
3441666;-0.29000
3444443;-0.29500
3447221;-0.28500
3449999;-0.27500
3452777;-0.27000
3455555;-0.28500
3458332;-0.28000
3461110;-0.29500
3463888;-0.28000
3466666;-0.29000
3469443;-0.28500
3472221;-0.29500
3474999;-0.29000
3477777;-0.29500
3480555;-0.29500
3483332;-0.28000
3486110;-0.28000
3488888;-0.28500
3491666;-0.30000
3494443;-0.31500
3497221;-0.30500
3499999;-0.30500
3502777;-0.30500
3505555;-0.30500
3508332;-0.30500
3511110;-0.30500
3513888;-0.31500
3516666;-0.31000
3519443;-0.31500
3522221;-0.31500
3524999;-0.32000
3527777;-0.32000
3530555;-0.33500
3533332;-0.34000
3536110;-0.32500
3538888;-0.31000
3541666;-0.33500
3544443;-0.34000
3547221;-0.34000
3549999;-0.33000
3552777;-0.32000
3555555;-0.33000
3558332;-0.34000
3561110;-0.34000
3563888;-0.34000
3566666;-0.33500
3569443;-0.33000
3572221;-0.35000
3574999;-0.34500
3577777;-0.35500
3580555;-0.36000
3583332;-0.35500
3586110;-0.34000
3588888;-0.34500
3591666;-0.34500
3594443;-0.34500
3597221;-0.35500
3599999;-0.37000
3602777;-0.35500
3605555;-0.36000
3608332;-0.36500
3611110;-0.36500
3613888;-0.36500
3616666;-0.36000
3619443;-0.35000
3622221;-0.34500
3624999;-0.34500
3627777;-0.35000
3630555;-0.37000
3633332;-0.36500
3636110;-0.34000
3638888;-0.34500
3641666;-0.33500
3644443;-0.33000
3647221;-0.33000
3649999;-0.31000
3652777;-0.30000
3655555;-0.29500
3658332;-0.28500
3661110;-0.28000
3663888;-0.26500
3666666;-0.25500
3669443;-0.26500
3672221;-0.26500
3674999;-0.24000
3677777;-0.24500
3680555;-0.25500
3683332;-0.25000
3686110;-0.24500
3688888;-0.24500
3691666;-0.24500
3694443;-0.25000
3697221;-0.26500
3699999;-0.27000
3702777;-0.26500
3705555;-0.27000
3708332;-0.27000
3711110;-0.28500
3713888;-0.30500
3716666;-0.29500
3719443;-0.27500
3722221;-0.25000
3724999;-0.26000
3727777;-0.27000
3730555;-0.30000
3733332;-0.32000
3736110;-0.31500
3738888;-0.32500
3741666;-0.34000
3744443;-0.35500
3747221;-0.37000
3749999;-0.37500
3752777;-0.38000
3755555;-0.38500
3758332;-0.38000
3761110;-0.38500
3763888;-0.39500
3766666;-0.37500
3769443;-0.38000
3772221;-0.39500
3774999;-0.40000
3777777;-0.42000
3780554;-0.43000
3783332;-0.42000
3786110;-0.41000
3788888;-0.41000
3791666;-0.41500
3794443;-0.41500
3797221;-0.41500
3799999;-0.40000
3802777;-0.39500
3805554;-0.40000
3808332;-0.40500
3811110;-0.42000
3813888;-0.43000
3816666;-0.46500
3819443;-0.49500
3822221;-0.51000
3824999;-0.51500
3827777;-0.53500
3830554;-0.56500
3833332;-0.60500
3836110;-0.63000
3838888;-0.61500
3841666;-0.54500
3844443;-0.45000
3847221;-0.31000
3849999;-0.15000
3852777;0.05500
3855554;0.33000
3858332;0.59000
3861110;0.77000
3863888;0.85000
3866666;0.76000
3869443;0.46500
3872221;0.02000
3874999;-0.35000
3877777;-0.55000
3880554;-0.59000
3883332;-0.56500
3886110;-0.50000
3888888;-0.46000
3891666;-0.46500
3894443;-0.47500
3897221;-0.47000
3899999;-0.45500
3902777;-0.45500
3905554;-0.45000
3908332;-0.45500
3911110;-0.47000
3913888;-0.49000
3916666;-0.48500
3919443;-0.48500
3922221;-0.47500
3924999;-0.46500
3927777;-0.47000
3930554;-0.48500
3933332;-0.49500
3936110;-0.48000
3938888;-0.49000
3941666;-0.48500
3944443;-0.49000
3947221;-0.49500
3949999;-0.48000
3952777;-0.48000
3955554;-0.48000
3958332;-0.48500
3961110;-0.49000
3963888;-0.48500
3966666;-0.46500
3969443;-0.47000
3972221;-0.47000
3974999;-0.48500
3977777;-0.49500
3980554;-0.50500
3983332;-0.49000
3986110;-0.48500
3988888;-0.50500
3991666;-0.51500
3994443;-0.51000
3997221;-0.51500
3999999;-0.49000
4002777;-0.49000
4005554;-0.49500
4008332;-0.50000
4011110;-0.50500
4013888;-0.50500
4016666;-0.49500
4019443;-0.49500
4022221;-0.49000
4024999;-0.49500
4027777;-0.51500
4030554;-0.51500
4033332;-0.50500
4036110;-0.50500
4038888;-0.49500
4041666;-0.49000
4044443;-0.50500
4047221;-0.51500
4049999;-0.51500
4052777;-0.51500
4055554;-0.51500
4058332;-0.53000
4061110;-0.52500
4063888;-0.52500
4066666;-0.51000
4069443;-0.50500
4072221;-0.48500
4074999;-0.49500
4077777;-0.51500
4080554;-0.53500
4083332;-0.53500
4086110;-0.53500
4088888;-0.54500
4091666;-0.55000
4094443;-0.55500
4097221;-0.56000
4099999;-0.55500
4102777;-0.54500
4105554;-0.54500
4108332;-0.56000
4111110;-0.56000
4113888;-0.58000
4116666;-0.58000
4119443;-0.57000
4122221;-0.56000
4124999;-0.56500
4127777;-0.55000
4130554;-0.53500
4133332;-0.51000
4136110;-0.49500
4138888;-0.50000
4141666;-0.51000
4144443;-0.51500
4147221;-0.50500
4149999;-0.47500
4152777;-0.47000
4155554;-0.47000
4158332;-0.45500
4161110;-0.44500
4163888;-0.44000
4166666;-0.42000
4169443;-0.41500
4172221;-0.40000
4174999;-0.38500
4177777;-0.39000
4180554;-0.37500
4183332;-0.36000
4186110;-0.36000
4188888;-0.36000
4191665;-0.38500
4194443;-0.39500
4197221;-0.40000
4199999;-0.37500
4202777;-0.35500
4205554;-0.35000
4208332;-0.35500
4211110;-0.36500
4213888;-0.37000
4216665;-0.36500
4219443;-0.35500
4222221;-0.36000
4224999;-0.36500
4227777;-0.38000
4230554;-0.38000
4233332;-0.37000
4236110;-0.37000
4238888;-0.36500
4241665;-0.37500
4244443;-0.38000
4247221;-0.37500
4249999;-0.36000
4252777;-0.35500
4255554;-0.37000
4258332;-0.37000
4261110;-0.37000
4263888;-0.37000
4266665;-0.37000
4269443;-0.36000
4272221;-0.36000
4274999;-0.37000
4277777;-0.38000
4280554;-0.40000
4283332;-0.39000
4286110;-0.38500
4288888;-0.38500
4291665;-0.39000
4294443;-0.40000
4297221;-0.40000
4299999;-0.40000
4302777;-0.38500
4305554;-0.38500
4308332;-0.39500
4311110;-0.40500
4313888;-0.40500
4316665;-0.39500
4319443;-0.39000
4322221;-0.39500
4324999;-0.40000
4327777;-0.40500
4330554;-0.40000
4333332;-0.39500
4336110;-0.37500
4338888;-0.38500
4341665;-0.38500
4344443;-0.39000
4347221;-0.40500
4349999;-0.39000
4352777;-0.38000
4355554;-0.39000
4358332;-0.39000
4361110;-0.39500
4363888;-0.39500
4366665;-0.39000
4369443;-0.39000
4372221;-0.38500
4374999;-0.39000
4377777;-0.39500
4380554;-0.40500
4383332;-0.37500
4386110;-0.37000
4388888;-0.38000
4391665;-0.38000
4394443;-0.37500
4397221;-0.38000
4399999;-0.36500
4402777;-0.35000
4405554;-0.34500
4408332;-0.34000
4411110;-0.34500
4413888;-0.32500
4416665;-0.30500
4419443;-0.28500
4422221;-0.29000
4424999;-0.30500
4427777;-0.29000
4430554;-0.29500
4433332;-0.27500
4436110;-0.25500
4438888;-0.26000
4441665;-0.26000
4444443;-0.26500
4447221;-0.27000
4449999;-0.25000
4452777;-0.25000
4455554;-0.26000
4458332;-0.26500
4461110;-0.27500
4463888;-0.28000
4466665;-0.25500
4469443;-0.25500
4472221;-0.25500
4474999;-0.26000
4477777;-0.27500
4480554;-0.25500
4483332;-0.22500
4486110;-0.22000
4488888;-0.25500
4491665;-0.28000
4494443;-0.31000
4497221;-0.31000
4499999;-0.32000
4502777;-0.32000
4505554;-0.34500
4508332;-0.35000
4511110;-0.37000
4513888;-0.37500
4516665;-0.36500
4519443;-0.34500
4522221;-0.35500
4524999;-0.35500
4527777;-0.36000
4530554;-0.37000
4533332;-0.35500
4536110;-0.35000
4538888;-0.36000
4541665;-0.36000
4544443;-0.38000
4547221;-0.38000
4549999;-0.36500
4552777;-0.35000
4555554;-0.35000
4558332;-0.36500
4561110;-0.36000
4563888;-0.36000
4566665;-0.35500
4569443;-0.35500
4572221;-0.35500
4574999;-0.37000
4577776;-0.36500
4580554;-0.38000
4583332;-0.39000
4586110;-0.41500
4588888;-0.45500
4591665;-0.48000
4594443;-0.50000
4597221;-0.53500
4599999;-0.53000
4602776;-0.46000
4605554;-0.33000
4608332;-0.18000
4611110;-0.01000
4613888;0.20000
4616665;0.49000
4619443;0.76500
4622221;0.96000
4624999;1.07000
4627776;1.10000
4630554;1.00000
4633332;0.76000
4636110;0.40500
4638888;-0.00500
4641665;-0.33000
4644443;-0.50000
4647221;-0.54500
4649999;-0.51500
4652776;-0.45500
4655554;-0.41500
4658332;-0.40500
4661110;-0.40000
4663888;-0.42000
4666665;-0.42000
4669443;-0.40000
4672221;-0.41000
4674999;-0.41500
4677776;-0.41500
4680554;-0.42000
4683332;-0.41500
4686110;-0.41500
4688888;-0.41500
4691665;-0.40000
4694443;-0.42000
4697221;-0.41500
4699999;-0.41000
4702776;-0.40000
4705554;-0.40500
4708332;-0.39500
4711110;-0.41000
4713888;-0.41500
4716665;-0.41500
4719443;-0.41500
4722221;-0.41000
4724999;-0.41000
4727776;-0.42000
4730554;-0.42500
4733332;-0.40500
4736110;-0.40500
4738888;-0.40500
4741665;-0.41000
4744443;-0.41000
4747221;-0.41000
4749999;-0.40500
4752776;-0.40500
4755554;-0.41500
4758332;-0.42500
4761110;-0.42500
4763888;-0.42500
4766665;-0.42000
4769443;-0.40000
4772221;-0.40000
4774999;-0.40500
4777776;-0.41500
4780554;-0.41000
4783332;-0.40000
4786110;-0.39000
4788888;-0.38500
4791665;-0.39500
4794443;-0.41000
4797221;-0.42000
4799999;-0.40500
4802776;-0.40000
4805554;-0.41000
4808332;-0.42500
4811110;-0.42000
4813888;-0.41500
4816665;-0.40000
4819443;-0.41000
4822221;-0.39500
4824999;-0.41000
4827776;-0.41000
4830554;-0.42000
4833332;-0.41000
4836110;-0.40500
4838888;-0.40000
4841665;-0.40500
4844443;-0.43000
4847221;-0.42500
4849999;-0.42000
4852776;-0.39500
4855554;-0.40500
4858332;-0.42500
4861110;-0.42500
4863888;-0.41500
4866665;-0.42000
4869443;-0.41500
4872221;-0.41500
4874999;-0.42500
4877776;-0.43500
4880554;-0.44500
4883332;-0.43000
4886110;-0.41500
4888888;-0.41500
4891665;-0.41500
4894443;-0.42500
4897221;-0.43000
4899999;-0.42500
4902776;-0.40000
4905554;-0.40500
4908332;-0.39500
4911110;-0.41500
4913888;-0.40500
4916665;-0.38000
4919443;-0.36000
4922221;-0.34500
4924999;-0.34500
4927776;-0.33000
4930554;-0.33000
4933332;-0.30500
4936110;-0.30000
4938888;-0.29500
4941665;-0.28500
4944443;-0.28500
4947221;-0.29000
4949999;-0.28000
4952776;-0.27000
4955554;-0.26500
4958332;-0.26000
4961110;-0.26500
4963887;-0.27000
4966665;-0.26000
4969443;-0.26000
4972221;-0.25000
4974999;-0.24500
4977776;-0.25000
4980554;-0.24000
4983332;-0.24500
4986110;-0.24500
4988887;-0.25000
4991665;-0.25500
4994443;-0.26500
4997221;-0.26500
4999999;-0.26000
5002776;-0.26000
5005554;-0.24500
5008332;-0.26000
5011110;-0.26500
5013887;-0.26000
5016665;-0.26000
5019443;-0.24500
5022221;-0.26000
5024999;-0.25500
5027776;-0.26500
5030554;-0.26500
5033332;-0.25500
5036110;-0.25500
5038887;-0.25000
5041665;-0.25500
5044443;-0.27500
5047221;-0.26500
5049999;-0.27000
5052776;-0.25500
5055554;-0.26000
5058332;-0.28000
5061110;-0.28000
5063887;-0.29500
5066665;-0.28000
5069443;-0.27500
5072221;-0.28000
5074999;-0.28500
5077776;-0.28500
5080554;-0.29500
5083332;-0.28500
5086110;-0.28500
5088887;-0.27500
5091665;-0.29000
5094443;-0.28000
5097221;-0.29500
5099999;-0.28000
5102776;-0.27000
5105554;-0.28500
5108332;-0.28500
5111110;-0.29000
5113887;-0.28000
5116665;-0.26500
5119443;-0.28500
5122221;-0.27000
5124999;-0.28500
5127776;-0.29000
5130554;-0.29500
5133332;-0.29000
5136110;-0.29000
5138887;-0.29500
5141665;-0.29000
5144443;-0.30500
5147221;-0.30000
5149999;-0.28500
5152776;-0.28000
5155554;-0.28500
5158332;-0.28000
5161110;-0.28500
5163887;-0.28500
5166665;-0.29000
5169443;-0.27000
5172221;-0.26500
5174999;-0.25500
5177776;-0.26500
5180554;-0.23500
5183332;-0.21500
5186110;-0.19000
5188887;-0.18500
5191665;-0.19500
5194443;-0.20000
5197221;-0.20000
5199999;-0.18500
5202776;-0.17000
5205554;-0.15500
5208332;-0.15500
5211110;-0.16500
5213887;-0.16500
5216665;-0.15500
5219443;-0.14500
5222221;-0.15000
5224999;-0.16500
5227776;-0.17500
5230554;-0.19000
5233332;-0.19000
5236110;-0.17500
5238887;-0.16000
5241665;-0.17500
5244443;-0.20000
5247221;-0.19500
5249999;-0.16000
5252776;-0.12000
5255554;-0.10000
5258332;-0.11500
5261110;-0.13000
5263887;-0.17000
5266665;-0.17500
5269443;-0.18500
5272221;-0.18500
5274999;-0.20000
5277776;-0.23000
5280554;-0.23500
5283332;-0.24000
5286110;-0.25500
5288887;-0.25500
5291665;-0.26500
5294443;-0.29500
5297221;-0.29000
5299999;-0.27500
5302776;-0.27000
5305554;-0.27500
5308332;-0.28000
5311110;-0.28000
5313887;-0.28500
5316665;-0.27000
5319443;-0.26500
5322221;-0.28000
5324999;-0.29000
5327776;-0.30000
5330554;-0.30000
5333332;-0.28500
5336110;-0.28000
5338887;-0.28500
5341665;-0.29000
5344443;-0.29000
5347221;-0.29000
5349999;-0.28000
5352776;-0.28000
5355554;-0.28000
5358332;-0.30500
5361110;-0.32500
5363887;-0.37000
5366665;-0.39000
5369443;-0.39000
5372221;-0.40500
5374998;-0.45500
5377776;-0.47000
5380554;-0.40000
5383332;-0.27500
5386110;-0.14000
5388887;0.01000
5391665;0.18000
5394443;0.39500
5397221;0.66000
5399998;0.88000
5402776;0.99000
5405554;1.01000
5408332;0.87000
5411110;0.55500
5413887;0.11500
5416665;-0.24000
5419443;-0.40500
5422221;-0.43500
5424998;-0.40500
5427776;-0.35500
5430554;-0.32000
5433332;-0.31000
5436110;-0.30000
5438887;-0.30500
5441665;-0.31500
5444443;-0.31500
5447221;-0.31500
5449998;-0.31000
5452776;-0.32000
5455554;-0.32000
5458332;-0.31000
5461110;-0.32500
5463887;-0.33000
5466665;-0.32000
5469443;-0.32000
5472221;-0.32000
5474998;-0.33000
5477776;-0.32500
5480554;-0.33500
5483332;-0.32500
5486110;-0.31000
5488887;-0.31000
5491665;-0.31000
5494443;-0.32500
5497221;-0.32000
5499998;-0.32000
5502776;-0.31500
5505554;-0.31500
5508332;-0.31500
5511110;-0.32000
5513887;-0.33000
5516665;-0.32500
5519443;-0.32000
5522221;-0.32500
5524998;-0.33000
5527776;-0.34000
5530554;-0.33500
5533332;-0.34000
5536110;-0.31500
5538887;-0.32500
5541665;-0.32000
5544443;-0.33000
5547221;-0.33000
5549998;-0.31500
5552776;-0.31000
5555554;-0.31000
5558332;-0.32000
5561110;-0.31500
5563887;-0.33500
5566665;-0.31000
5569443;-0.31500
5572221;-0.31000
5574998;-0.32000
5577776;-0.32500
5580554;-0.33500
5583332;-0.32000
5586110;-0.31500
5588887;-0.31500
5591665;-0.32000
5594443;-0.33000
5597221;-0.33000
5599998;-0.32000
5602776;-0.30500
5605554;-0.30500
5608332;-0.32000
5611110;-0.32000
5613887;-0.33000
5616665;-0.32000
5619443;-0.32000
5622221;-0.32500
5624998;-0.32000
5627776;-0.32500
5630554;-0.32000
5633332;-0.31000
5636110;-0.31500
5638887;-0.31500
5641665;-0.31500
5644443;-0.32500
5647221;-0.32500
5649998;-0.32000
5652776;-0.32000
5655554;-0.32500
5658332;-0.33000
5661110;-0.34000
5663887;-0.33500
5666665;-0.33000
5669443;-0.31500
5672221;-0.31500
5674998;-0.32000
5677776;-0.33000
5680554;-0.33500
5683332;-0.32000
5686110;-0.30500
5688887;-0.31500
5691665;-0.31500
5694443;-0.31500
5697221;-0.32000
5699998;-0.30000
5702776;-0.29000
5705554;-0.27500
5708332;-0.25500
5711110;-0.27000
5713887;-0.27000
5716665;-0.26000
5719443;-0.23500
5722221;-0.23000
5724998;-0.23000
5727776;-0.24500
5730554;-0.23500
5733332;-0.22500
5736110;-0.22000
5738887;-0.20500
5741665;-0.21500
5744443;-0.22500
5747221;-0.22500
5749998;-0.22500
5752776;-0.21000
5755554;-0.21500
5758332;-0.20500
5761109;-0.21000
5763887;-0.22500
5766665;-0.21500
5769443;-0.20000
5772221;-0.19500
5774998;-0.21000
5777776;-0.22000
5780554;-0.22500
5783332;-0.22500
5786109;-0.20500
5788887;-0.20500
5791665;-0.21500
5794443;-0.22000
5797221;-0.22000
5799998;-0.21000
5802776;-0.21000
5805554;-0.20500
5808332;-0.21500
5811109;-0.21500
5813887;-0.23000
5816665;-0.23000
5819443;-0.22000
5822221;-0.21500
5824998;-0.23000
5827776;-0.24000
5830554;-0.24500
5833332;-0.24000
5836109;-0.22500
5838887;-0.23500
5841665;-0.24000
5844443;-0.25000
5847221;-0.25500
5849998;-0.24000
5852776;-0.23500
5855554;-0.22500
5858332;-0.24000
5861109;-0.24000
5863887;-0.25000
5866665;-0.23500
5869443;-0.23500
5872221;-0.23500
5874998;-0.24500
5877776;-0.25000
5880554;-0.27000
5883332;-0.26500
5886109;-0.25000
5888887;-0.24500
5891665;-0.26500
5894443;-0.26000
5897221;-0.27500
5899998;-0.26500
5902776;-0.26000
5905554;-0.26000
5908332;-0.26500
5911109;-0.27500
5913887;-0.27500
5916665;-0.26500
5919443;-0.26000
5922221;-0.26500
5924998;-0.26000
5927776;-0.27500
5930554;-0.27000
5933332;-0.27000
5936109;-0.26000
5938887;-0.25500
5941665;-0.26500
5944443;-0.26000
5947221;-0.28500
5949998;-0.26500
5952776;-0.25000
5955554;-0.25000
5958332;-0.26000
5961109;-0.26000
5963887;-0.26000
5966665;-0.25500
5969443;-0.24000
5972221;-0.24000
5974998;-0.23500
5977776;-0.23000
5980554;-0.22000
5983332;-0.19000
5986109;-0.19500
5988887;-0.18500
5991665;-0.19000
5994443;-0.19500
5997221;-0.18500
5999998;-0.16000
6002776;-0.15500
6005554;-0.14500
6008332;-0.15000
6011109;-0.14500
6013887;-0.14000
6016665;-0.13500
6019443;-0.13000
6022221;-0.13000
6024998;-0.14500
6027776;-0.16500
6030554;-0.17500
6033332;-0.16000
6036109;-0.15500
6038887;-0.14500
6041665;-0.16000
6044443;-0.18000
6047221;-0.17500
6049998;-0.15000
6052776;-0.13000
6055554;-0.12000
6058332;-0.15000
6061109;-0.19000
6063887;-0.22000
6066665;-0.23000
6069443;-0.22000
6072221;-0.23500
6074998;-0.26000
6077776;-0.27000
6080554;-0.28000
6083332;-0.27000
6086109;-0.27000
6088887;-0.26500
6091665;-0.27000
6094443;-0.26500
6097221;-0.28000
6099998;-0.27000
6102776;-0.26000
6105554;-0.25500
6108332;-0.27000
6111109;-0.27500
6113887;-0.29000
6116665;-0.28500
6119443;-0.28000
6122221;-0.29000
6124998;-0.30000
6127776;-0.30500
6130554;-0.30000
6133332;-0.29500
6136109;-0.28500
6138887;-0.29000
6141665;-0.30000
6144443;-0.30500
6147221;-0.30500
6149998;-0.29500
6152776;-0.29500
6155554;-0.30500
6158332;-0.31500
6161109;-0.36000
6163887;-0.40000
6166665;-0.42000
6169443;-0.42500
6172220;-0.46000
6174998;-0.49000
6177776;-0.48500
6180554;-0.40000
6183332;-0.26500
6186109;-0.13000
6188887;0.02000
6191665;0.21500
6194443;0.47500
6197220;0.72500
6199998;0.89500
6202776;0.96000
6205554;0.87500
6208332;0.63000
6211109;0.26500
6213887;-0.10000
6216665;-0.35500
6219443;-0.46500
6222220;-0.47500
6224998;-0.45500
6227776;-0.40500
6230554;-0.36500
6233332;-0.33500
6236109;-0.33500
6238887;-0.34000
6241665;-0.34000
6244443;-0.35000
6247220;-0.34000
6249998;-0.34500
6252776;-0.33500
6255554;-0.33000
6258332;-0.34500
6261109;-0.34000
6263887;-0.34000
6266665;-0.32500
6269443;-0.32000
6272220;-0.31500
6274998;-0.32000
6277776;-0.33000
6280554;-0.34000
6283332;-0.34000
6286109;-0.33000
6288887;-0.33000
6291665;-0.33500
6294443;-0.33500
6297220;-0.34500
6299998;-0.33000
6302776;-0.32000
6305554;-0.33500
6308332;-0.33500
6311109;-0.35500
6313887;-0.36000
6316665;-0.36000
6319443;-0.34500
6322220;-0.35000
6324998;-0.36000
6327776;-0.35000
6330554;-0.35500
6333332;-0.34500
6336109;-0.35000
6338887;-0.33000
6341665;-0.33000
6344443;-0.34000
6347220;-0.34500
6349998;-0.32500
6352776;-0.32000
6355554;-0.30500
6358332;-0.32500
6361109;-0.32500
6363887;-0.33000
6366665;-0.32500
6369443;-0.33000
6372220;-0.32500
6374998;-0.33000
6377776;-0.33000
6380554;-0.33000
6383332;-0.34500
6386109;-0.33000
6388887;-0.33500
6391665;-0.33500
6394443;-0.35000
6397220;-0.34000
6399998;-0.33500
6402776;-0.32000
6405554;-0.32000
6408332;-0.32500
6411109;-0.33000
6413887;-0.34000
6416665;-0.33500
6419443;-0.32500
6422220;-0.33500
6424998;-0.34500
6427776;-0.34500
6430554;-0.34500
6433332;-0.35500
6436109;-0.34500
6438887;-0.33500
6441665;-0.33500
6444443;-0.34000
6447220;-0.35000
6449998;-0.33500
6452776;-0.32500
6455554;-0.33000
6458332;-0.33500
6461109;-0.35500
6463887;-0.36500
6466665;-0.35500
6469443;-0.34500
6472220;-0.34500
6474998;-0.35000
6477776;-0.36500
6480554;-0.36500
6483332;-0.36500
6486109;-0.36000
6488887;-0.37000
6491665;-0.36000
6494443;-0.36000
6497220;-0.37500
6499998;-0.35500
6502776;-0.33500
6505554;-0.32500
6508332;-0.32500
6511109;-0.33500
6513887;-0.34000
6516665;-0.32500
6519443;-0.30500
6522220;-0.29000
6524998;-0.28000
6527776;-0.28500
6530554;-0.28000
6533332;-0.27000
6536109;-0.25500
6538887;-0.25500
6541665;-0.26500
6544443;-0.26500
6547220;-0.26000
6549998;-0.26000
6552776;-0.26000
6555554;-0.26500
6558331;-0.27500
6561109;-0.27500
6563887;-0.27500
6566665;-0.26000
6569443;-0.25500
6572220;-0.24000
6574998;-0.24500
6577776;-0.25000
6580554;-0.26000
6583331;-0.25000
6586109;-0.23500
6588887;-0.24000
6591665;-0.25000
6594443;-0.25000
6597220;-0.25500
6599998;-0.26500
6602776;-0.26500
6605554;-0.26500
6608331;-0.26500
6611109;-0.27000
6613887;-0.28000
6616665;-0.27500
6619443;-0.27000
6622220;-0.27500
6624998;-0.27500
6627776;-0.27500
6630554;-0.28500
6633331;-0.26500
6636109;-0.26000
6638887;-0.27000
6641665;-0.27500
6644443;-0.29500
6647220;-0.31000
6649998;-0.29500
6652776;-0.27500
6655554;-0.27000
6658331;-0.28000
6661109;-0.29000
6663887;-0.30500
6666665;-0.31000
6669443;-0.30500
6672220;-0.30000
6674998;-0.29000
6677776;-0.31000
6680554;-0.30500
6683331;-0.30500
6686109;-0.31000
6688887;-0.32500
6691665;-0.33500
6694443;-0.33500
6697220;-0.33000
6699998;-0.32500
6702776;-0.32000
6705554;-0.32500
6708331;-0.33500
6711109;-0.33000
6713887;-0.33500
6716665;-0.32500
6719443;-0.32500
6722220;-0.32500
6724998;-0.33500
6727776;-0.35500
6730554;-0.36000
6733331;-0.35000
6736109;-0.33000
6738887;-0.32000
6741665;-0.31500
6744443;-0.33000
6747220;-0.34500
6749998;-0.33500
6752776;-0.33500
6755554;-0.33000
6758331;-0.33000
6761109;-0.33500
6763887;-0.35000
6766665;-0.33500
6769443;-0.30500
6772220;-0.29000
6774998;-0.27000
6777776;-0.29000
6780554;-0.29500
6783331;-0.27500
6786109;-0.27500
6788887;-0.25000
6791665;-0.24500
6794443;-0.24500
6797220;-0.25000
6799998;-0.24000
6802776;-0.24000
6805554;-0.23500
6808331;-0.24000
6811109;-0.25500
6813887;-0.27000
6816665;-0.24500
6819443;-0.24000
6822220;-0.25000
6824998;-0.25500
6827776;-0.25500
6830554;-0.27000
6833331;-0.26000
6836109;-0.27000
6838887;-0.26000
6841665;-0.24000
6844443;-0.23000
6847220;-0.24500
6849998;-0.25500
6852776;-0.27500
6855554;-0.28500
6858331;-0.30000
6861109;-0.34000
6863887;-0.35500
6866665;-0.37000
6869443;-0.35500
6872220;-0.35500
6874998;-0.36000
6877776;-0.35500
6880554;-0.37000
6883331;-0.36500
6886109;-0.35500
6888887;-0.36500
6891665;-0.37000
6894443;-0.38000
6897220;-0.37000
6899998;-0.37500
6902776;-0.37000
6905554;-0.38000
6908331;-0.38500
6911109;-0.40000
6913887;-0.41500
6916665;-0.39500
6919443;-0.38000
6922220;-0.38500
6924998;-0.38500
6927776;-0.38500
6930554;-0.37500
6933331;-0.37500
6936109;-0.38000
6938887;-0.38000
6941665;-0.38500
6944442;-0.39000
6947220;-0.40500
6949998;-0.41500
6952776;-0.44000
6955554;-0.47000
6958331;-0.50500
6961109;-0.54500
6963887;-0.59000
6966665;-0.58500
6969442;-0.50500
6972220;-0.38000
6974998;-0.24000
6977776;-0.07000
6980554;0.16500
6983331;0.46500
6986109;0.70500
6988887;0.86500
6991665;0.91500
6994442;0.83000
6997220;0.49500
6999998;0.06000
7002776;-0.31500
7005554;-0.51000
7008331;-0.56000
7011109;-0.54500
7013887;-0.50000
7016665;-0.45500
7019442;-0.44000
7022220;-0.44500
7024998;-0.45000
7027776;-0.47500
7030554;-0.47500
7033331;-0.46000
7036109;-0.44500
7038887;-0.46000
7041665;-0.46500
7044442;-0.46000
7047220;-0.46500
7049998;-0.45000
7052776;-0.45000
7055554;-0.45000
7058331;-0.47500
7061109;-0.48000
7063887;-0.47500
7066665;-0.46500
7069442;-0.44000
7072220;-0.44000
7074998;-0.44500
7077776;-0.45000
7080554;-0.46500
7083331;-0.45500
7086109;-0.45500
7088887;-0.46000
7091665;-0.46500
7094442;-0.47000
7097220;-0.46000
7099998;-0.47000
7102776;-0.47000
7105554;-0.47500
7108331;-0.48500
7111109;-0.49000
7113887;-0.48500
7116665;-0.46500
7119442;-0.46000
7122220;-0.48500
7124998;-0.50000
7127776;-0.50500
7130554;-0.50500
7133331;-0.49500
7136109;-0.47500
7138887;-0.47000
7141665;-0.46500
7144442;-0.47000
7147220;-0.46500
7149998;-0.44500
7152776;-0.44000
7155554;-0.44000
7158331;-0.44500
7161109;-0.46000
7163887;-0.47000
7166665;-0.48000
7169442;-0.47500
7172220;-0.47000
7174998;-0.47500
7177776;-0.48500
7180554;-0.50000
7183331;-0.49500
7186109;-0.48500
7188887;-0.49000
7191665;-0.49000
7194442;-0.48500
7197220;-0.49000
7199998;-0.48500
7202776;-0.48000
7205554;-0.48500
7208331;-0.49000
7211109;-0.49000
7213887;-0.50500
7216665;-0.50000
7219442;-0.48500
7222220;-0.49500
7224998;-0.50000
7227776;-0.49500
7230554;-0.51000
7233331;-0.50500
7236109;-0.52000
7238887;-0.51500
7241665;-0.52000
7244442;-0.54500
7247220;-0.56000
7249998;-0.55500
7252776;-0.54500
7255554;-0.55000
7258331;-0.55000
7261109;-0.55000
7263887;-0.55500
7266665;-0.54000
7269442;-0.52000
7272220;-0.52000
7274998;-0.52000
7277776;-0.51000
7280554;-0.50500
7283331;-0.47500
7286109;-0.45000
7288887;-0.44500
7291665;-0.43000
7294442;-0.42000
7297220;-0.41000
7299998;-0.39500
7302776;-0.38500
7305554;-0.37500
7308331;-0.38000
7311109;-0.38000
7313887;-0.37000
7316665;-0.35000
7319442;-0.34000
7322220;-0.33500
7324998;-0.34000
7327776;-0.35000
7330554;-0.35000
7333331;-0.33000
7336109;-0.33000
7338887;-0.33500
7341665;-0.33500
7344442;-0.34500
7347220;-0.34000
7349998;-0.33500
7352776;-0.33500
7355553;-0.32500
7358331;-0.34500
7361109;-0.34000
7363887;-0.34500
7366665;-0.31500
7369442;-0.30000
7372220;-0.30500
7374998;-0.32000
7377776;-0.32500
7380553;-0.32000
7383331;-0.32500
7386109;-0.31500
7388887;-0.32000
7391665;-0.30500
7394442;-0.32500
7397220;-0.32500
7399998;-0.32500
7402776;-0.31500
7405553;-0.31000
7408331;-0.32000
7411109;-0.33000
7413887;-0.33500
7416665;-0.32000
7419442;-0.31000
7422220;-0.31500
7424998;-0.32000
7427776;-0.32500
7430553;-0.34000
7433331;-0.34000
7436109;-0.32000
7438887;-0.31000
7441665;-0.33000
7444442;-0.34500
7447220;-0.33000
7449998;-0.31500
7452776;-0.33000
7455553;-0.31000
7458331;-0.32000
7461109;-0.32500
7463887;-0.34000
7466665;-0.33000
7469442;-0.32500
7472220;-0.33000
7474998;-0.34000
7477776;-0.34500
7480553;-0.35000
7483331;-0.33000
7486109;-0.33500
7488887;-0.33500
7491665;-0.33500
7494442;-0.34000
7497220;-0.34500
7499998;-0.33500
7502776;-0.33000
7505553;-0.32000
7508331;-0.33000
7511109;-0.32500
7513887;-0.33500
7516665;-0.32000
7519442;-0.31000
7522220;-0.30500
7524998;-0.31000
7527776;-0.32500
7530553;-0.33000
7533331;-0.31500
7536109;-0.31000
7538887;-0.30500
7541665;-0.32000
7544442;-0.30000
7547220;-0.31500
7549998;-0.29500
7552776;-0.27500
7555553;-0.26500
7558331;-0.25500
7561109;-0.24500
7563887;-0.25000
7566665;-0.24500
7569442;-0.23500
7572220;-0.22000
7574998;-0.21500
7577776;-0.21000
7580553;-0.20000
7583331;-0.18500
7586109;-0.17500
7588887;-0.17500
7591665;-0.18000
7594442;-0.19500
7597220;-0.21000
7599998;-0.20500
7602776;-0.20500
7605553;-0.20500
7608331;-0.21500
7611109;-0.20500
7613887;-0.23000
7616665;-0.22500
7619442;-0.21000
7622220;-0.18500
7624998;-0.17000
7627776;-0.15000
7630553;-0.17000
7633331;-0.19000
7636109;-0.20500
7638887;-0.22000
7641665;-0.23500
7644442;-0.24500
7647220;-0.25500
7649998;-0.26500
7652776;-0.27000
7655553;-0.28000
7658331;-0.28000
7661109;-0.29500
7663887;-0.31000
7666665;-0.30500
7669442;-0.30500
7672220;-0.28500
7674998;-0.29000
7677776;-0.31000
7680553;-0.31500
7683331;-0.32000
7686109;-0.30000
7688887;-0.31000
7691665;-0.32000
7694442;-0.32500
7697220;-0.33000
7699998;-0.32000
7702776;-0.31000
7705553;-0.31000
7708331;-0.34000
7711109;-0.34000
7713887;-0.33000
7716665;-0.32500
7719442;-0.33500
7722220;-0.37500
7724998;-0.40000
7727776;-0.44000
7730553;-0.47000
7733331;-0.49500
7736109;-0.50000
7738887;-0.48000
7741664;-0.39500
7744442;-0.25000
7747220;-0.07500
7749998;0.14500
7752776;0.40500
7755553;0.67500
7758331;0.93000
7761109;1.06000
7763887;1.03500
7766664;0.81000
7769442;0.40500
7772220;-0.07000
7774998;-0.40500
7777776;-0.51000
7780553;-0.47000
7783331;-0.40000
7786109;-0.35500
7788887;-0.34000
7791664;-0.36000
7794442;-0.37500
7797220;-0.39000
7799998;-0.37500
7802776;-0.37000
7805553;-0.37000
7808331;-0.38000
7811109;-0.38000
7813887;-0.38500
7816664;-0.38000
7819442;-0.37000
7822220;-0.37500
7824998;-0.39000
7827776;-0.38500
7830553;-0.38500
7833331;-0.37500
7836109;-0.36500
7838887;-0.36000
7841664;-0.37500
7844442;-0.37500
7847220;-0.37500
7849998;-0.37000
7852776;-0.36500
7855553;-0.36500
7858331;-0.37500
7861109;-0.39500
7863887;-0.38500
7866664;-0.38500
7869442;-0.37000
7872220;-0.37500
7874998;-0.38000
7877776;-0.38500
7880553;-0.39500
7883331;-0.39000
7886109;-0.38000
7888887;-0.37500
7891664;-0.39000
7894442;-0.39000
7897220;-0.39000
7899998;-0.39500
7902776;-0.38000
7905553;-0.38000
7908331;-0.37000
7911109;-0.38000
7913887;-0.38500
7916664;-0.38500
7919442;-0.38000
7922220;-0.36000
7924998;-0.37000
7927776;-0.38500
7930553;-0.38000
7933331;-0.39000
7936109;-0.38000
7938887;-0.37000
7941664;-0.37000
7944442;-0.38000
7947220;-0.39500
7949998;-0.39000
7952776;-0.38500
7955553;-0.37500
7958331;-0.38000
7961109;-0.38500
7963887;-0.39500
7966664;-0.39000
7969442;-0.37500
7972220;-0.38000
7974998;-0.38000
7977776;-0.39500
7980553;-0.39500
7983331;-0.37000
7986109;-0.38000
7988887;-0.36500
7991664;-0.38000
7994442;-0.38500
7997220;-0.40000
7999998;-0.38000
8002776;-0.38500
8005553;-0.38000
8008331;-0.38500
8011109;-0.39000
8013887;-0.39500
8016664;-0.40000
8019442;-0.38000
8022220;-0.38500
8024998;-0.38000
8027776;-0.39500
8030553;-0.38500
8033331;-0.39000
8036109;-0.35000
8038887;-0.35000
8041664;-0.35500
8044442;-0.34500
8047220;-0.33500
8049998;-0.32000
8052776;-0.30500
8055553;-0.29000
8058331;-0.29000
8061109;-0.28000
8063887;-0.28500
8066664;-0.27000
8069442;-0.25000
8072220;-0.24000
8074998;-0.24000
8077776;-0.25500
8080553;-0.24000
8083331;-0.24500
8086109;-0.24000
8088887;-0.24500
8091664;-0.24000
8094442;-0.24500
8097220;-0.26000
8099998;-0.26000
8102776;-0.25500
8105553;-0.23500
8108331;-0.25500
8111109;-0.26500
8113887;-0.27000
8116664;-0.25500
8119442;-0.25000
8122220;-0.24500
8124998;-0.24500
8127776;-0.24000
8130553;-0.26000
8133331;-0.27000
8136109;-0.24500
8138887;-0.25000
8141664;-0.24500
8144442;-0.26000
8147220;-0.27500
8149998;-0.26000
8152775;-0.26500
8155553;-0.28000
8158331;-0.27500
8161109;-0.28000
8163887;-0.28500
8166664;-0.28500
8169442;-0.26500
8172220;-0.26000
8174998;-0.27500
8177775;-0.29000
8180553;-0.28500
8183331;-0.28500
8186109;-0.27000
8188887;-0.27000
8191664;-0.27000
8194442;-0.28500
8197220;-0.29500
8199998;-0.29000
8202775;-0.28000
8205553;-0.27500
8208331;-0.28000
8211109;-0.30000
8213887;-0.30000
8216664;-0.29500
8219442;-0.29500
8222220;-0.29000
8224998;-0.29500
8227775;-0.31000
8230553;-0.31500
8233331;-0.31500
8236109;-0.30000
8238887;-0.29000
8241664;-0.30000
8244442;-0.30500
8247220;-0.31000
8249998;-0.30000
8252775;-0.29500
8255553;-0.29000
8258331;-0.29000
8261109;-0.29500
8263887;-0.31000
8266664;-0.31000
8269442;-0.29500
8272220;-0.30000
8274998;-0.29000
8277775;-0.28500
8280553;-0.30500
8283331;-0.31000
8286109;-0.30500
8288887;-0.28500
8291664;-0.27500
8294442;-0.27500
8297220;-0.26500
8299998;-0.24500
8302775;-0.22500
8305553;-0.22000
8308331;-0.21000
8311109;-0.22000
8313887;-0.22000
8316664;-0.19000
8319442;-0.17500
8322220;-0.17000
8324998;-0.17000
8327775;-0.17000
8330553;-0.18500
8333331;-0.17000
8336109;-0.18000
8338887;-0.18000
8341664;-0.18500
8344442;-0.20500
8347220;-0.21500
8349998;-0.19500
8352775;-0.19000
8355553;-0.20500
8358331;-0.20500
8361109;-0.20000
8363887;-0.18000
8366664;-0.16000
8369442;-0.18500
8372220;-0.22000
8374998;-0.24500
8377775;-0.25500
8380553;-0.27500
8383331;-0.28000
8386109;-0.28000
8388887;-0.27500
8391664;-0.29000
8394442;-0.30500
8397220;-0.32000
8399998;-0.30000
8402775;-0.28500
8405553;-0.30000
8408331;-0.30000
8411109;-0.31000
8413887;-0.32000
8416664;-0.32000
8419442;-0.31500
8422220;-0.31500
8424998;-0.31500
8427775;-0.32000
8430553;-0.33500
8433331;-0.32500
8436109;-0.32000
8438887;-0.31500
8441664;-0.32000
8444442;-0.34000
8447220;-0.33000
8449998;-0.32500
8452775;-0.33000
8455553;-0.32500
8458331;-0.34000
8461109;-0.37500
8463887;-0.41000
8466664;-0.42000
8469442;-0.43500
8472220;-0.47000
8474998;-0.51500
8477775;-0.50000
8480553;-0.42000
8483331;-0.27500
8486109;-0.11500
8488887;0.07000
8491664;0.33500
8494442;0.62000
8497220;0.85500
8499998;0.97000
8502775;0.93500
8505553;0.66500
8508331;0.23500
8511109;-0.20500
8513887;-0.48000
8516664;-0.53500
8519442;-0.48500
8522220;-0.39500
8524998;-0.36500
8527775;-0.37500
8530553;-0.38500
8533331;-0.37500
8536109;-0.35500
8538886;-0.36500
8541664;-0.36500
8544442;-0.36500
8547220;-0.36500
8549998;-0.36500
8552775;-0.36000
8555553;-0.35500
8558331;-0.37000
8561109;-0.39000
8563886;-0.38500
8566664;-0.37000
8569442;-0.36500
8572220;-0.37500
8574998;-0.38000
8577775;-0.39000
8580553;-0.39000
8583331;-0.37500
8586109;-0.38000
8588886;-0.37000
8591664;-0.37500
8594442;-0.38500
8597220;-0.40000
8599998;-0.39500
8602775;-0.38000
8605553;-0.37000
8608331;-0.38500
8611109;-0.38500
8613886;-0.38500
8616664;-0.38500
8619442;-0.38500
8622220;-0.37500
8624998;-0.38000
8627775;-0.38500
8630553;-0.39000
8633331;-0.38000
8636109;-0.37500
8638886;-0.37000
8641664;-0.38000
8644442;-0.39000
8647220;-0.38500
8649998;-0.38000
8652775;-0.38000
8655553;-0.37500
8658331;-0.36500
8661109;-0.39000
8663886;-0.39500
8666664;-0.39000
8669442;-0.38000
8672220;-0.37500
8674998;-0.38000
8677775;-0.38500
8680553;-0.39500
8683331;-0.38500
8686109;-0.37500
8688886;-0.37500
8691664;-0.37500
8694442;-0.38500
8697220;-0.38500
8699998;-0.38500
8702775;-0.36000
8705553;-0.37000
8708331;-0.38000
8711109;-0.39000
8713886;-0.40000
8716664;-0.39000
8719442;-0.38000
8722220;-0.38500
8724998;-0.39500
8727775;-0.40000
8730553;-0.40500
8733331;-0.41000
8736109;-0.40500
8738886;-0.40000
8741664;-0.39000
8744442;-0.40500
8747220;-0.41500
8749998;-0.39500
8752775;-0.39000
8755553;-0.38500
8758331;-0.38000
8761109;-0.39000
8763886;-0.39500
8766664;-0.38000
8769442;-0.38000
8772220;-0.37000
8774998;-0.36000
8777775;-0.37000
8780553;-0.36500
8783331;-0.36000
8786109;-0.35000
8788886;-0.33500
8791664;-0.35000
8794442;-0.34500
8797220;-0.33500
8799998;-0.32500
8802775;-0.30000
8805553;-0.29500
8808331;-0.30000
8811109;-0.30500
8813886;-0.30500
8816664;-0.30000
8819442;-0.29000
8822220;-0.28500
8824998;-0.27500
8827775;-0.28000
8830553;-0.28000
8833331;-0.28000
8836109;-0.27500
8838886;-0.26500
8841664;-0.26500
8844442;-0.27500
8847220;-0.28500
8849998;-0.26500
8852775;-0.25500
8855553;-0.25500
8858331;-0.26500
8861109;-0.26500
8863886;-0.29000
8866664;-0.28000
8869442;-0.27500
8872220;-0.27500
8874998;-0.29000
8877775;-0.29000
8880553;-0.30000
8883331;-0.28500
8886109;-0.29500
8888886;-0.28500
8891664;-0.29500
8894442;-0.31000
8897220;-0.31500
8899998;-0.29500
8902775;-0.28000
8905553;-0.28500
8908331;-0.30000
8911109;-0.29500
8913886;-0.31000
8916664;-0.30500
8919442;-0.29500
8922220;-0.30500
8924998;-0.30500
8927775;-0.32000
8930553;-0.33000
8933331;-0.32000
8936109;-0.31000
8938886;-0.30000
8941664;-0.31000
8944442;-0.31500
8947220;-0.32500
8949997;-0.32000
8952775;-0.30500
8955553;-0.31000
8958331;-0.32000
8961109;-0.33000
8963886;-0.34000
8966664;-0.33000
8969442;-0.32000
8972220;-0.32000
8974997;-0.33000
8977775;-0.33500
8980553;-0.34500
8983331;-0.33000
8986109;-0.31000
8988886;-0.31000
8991664;-0.33000
8994442;-0.33500
8997220;-0.35000
8999997;-0.34000
9002775;-0.34000
9005553;-0.34000
9008331;-0.33500
9011109;-0.34500
9013886;-0.34000
9016664;-0.34000
9019442;-0.33500
9022220;-0.33000
9024997;-0.33000
9027775;-0.35000
9030553;-0.34500
9033331;-0.34000
9036109;-0.31500
9038886;-0.30500
9041664;-0.31000
9044442;-0.32000
9047220;-0.31000
9049997;-0.30000
9052775;-0.28000
9055553;-0.25000
9058331;-0.25500
9061109;-0.25500
9063886;-0.27000
9066664;-0.26500
9069442;-0.25000
9072220;-0.24500
9074997;-0.23000
9077775;-0.22500
9080553;-0.24000
9083331;-0.22500
9086109;-0.20500
9088886;-0.20500
9091664;-0.21500
9094442;-0.23500
9097220;-0.24000
9099997;-0.24500
9102775;-0.23000
9105553;-0.22500
9108331;-0.23000
9111109;-0.25500
9113886;-0.26500
9116664;-0.25500
9119442;-0.23000
9122220;-0.20000
9124997;-0.21000
9127775;-0.25000
9130553;-0.29000
9133331;-0.29000
9136109;-0.30000
9138886;-0.30000
9141664;-0.32000
9144442;-0.32500
9147220;-0.34500
9149997;-0.34500
9152775;-0.35000
9155553;-0.34000
9158331;-0.35000
9161109;-0.36500
9163886;-0.38000
9166664;-0.38000
9169442;-0.36500
9172220;-0.37000
9174997;-0.38000
9177775;-0.39000
9180553;-0.38500
9183331;-0.38000
9186109;-0.38000
9188886;-0.38000
9191664;-0.39500
9194442;-0.39000
9197220;-0.41000
9199997;-0.39000
9202775;-0.36500
9205553;-0.36000
9208331;-0.36000
9211109;-0.38000
9213886;-0.39000
9216664;-0.40000
9219442;-0.40500
9222220;-0.42500
9224997;-0.45000
9227775;-0.50000
9230553;-0.52500
9233331;-0.52500
9236109;-0.55000
9238886;-0.57500
9241664;-0.57000
9244442;-0.50500
9247220;-0.39000
9249997;-0.24000
9252775;-0.06000
9255553;0.18000
9258331;0.45000
9261109;0.68500
9263886;0.82500
9266664;0.87500
9269442;0.77500
9272220;0.47000
9274997;0.03500
9277775;-0.34000
9280553;-0.55500
9283331;-0.59000
9286109;-0.54000
9288886;-0.48000
9291664;-0.45500
9294442;-0.45000
9297220;-0.46500
9299997;-0.45500
9302775;-0.44000
9305553;-0.42500
9308331;-0.45500
9311109;-0.45500
9313886;-0.46000
9316664;-0.46000
9319442;-0.45000
9322220;-0.45500
9324997;-0.46500
9327775;-0.47000
9330553;-0.47500
9333331;-0.46500
9336108;-0.45500
9338886;-0.45000
9341664;-0.44000
9344442;-0.45000
9347220;-0.45500
9349997;-0.44000
9352775;-0.43500
9355553;-0.44000
9358331;-0.46500
9361108;-0.46500
9363886;-0.48000
9366664;-0.47000
9369442;-0.46500
9372220;-0.45500
9374997;-0.46500
9377775;-0.48000
9380553;-0.48000
9383331;-0.46500
9386108;-0.47000
9388886;-0.46500
9391664;-0.47500
9394442;-0.47500
9397220;-0.48000
9399997;-0.46000
9402775;-0.48000
9405553;-0.46500
9408331;-0.47000
9411108;-0.47500
9413886;-0.48000
9416664;-0.47000
9419442;-0.46500
9422220;-0.45500
9424997;-0.46000
9427775;-0.48000
9430553;-0.49500
9433331;-0.48500
9436108;-0.48000
9438886;-0.47000
9441664;-0.47000
9444442;-0.49000
9447220;-0.48500
9449997;-0.46500
9452775;-0.45500
9455553;-0.44500
9458331;-0.46000
9461108;-0.47500
9463886;-0.47500
9466664;-0.49500
9469442;-0.48000
9472220;-0.48000
9474997;-0.47000
9477775;-0.48500
9480553;-0.48500
9483331;-0.48000
9486108;-0.47000
9488886;-0.47500
9491664;-0.47000
9494442;-0.49000
9497220;-0.49500
9499997;-0.49000
9502775;-0.48500
9505553;-0.48000
9508331;-0.49000
9511108;-0.49500
9513886;-0.52000
9516664;-0.50000
9519442;-0.50500
9522220;-0.51000
9524997;-0.51500
9527775;-0.51500
9530553;-0.53000
9533331;-0.52500
9536108;-0.52000
9538886;-0.51500
9541664;-0.53000
9544442;-0.52000
9547220;-0.52000
9549997;-0.49000
9552775;-0.48500
9555553;-0.47000
9558331;-0.46500
9561108;-0.44500
9563886;-0.44500
9566664;-0.42500
9569442;-0.40500
9572220;-0.38500
9574997;-0.38000
9577775;-0.36500
9580553;-0.37500
9583331;-0.36500
9586108;-0.36500
9588886;-0.36000
9591664;-0.37500
9594442;-0.38000
9597220;-0.38500
9599997;-0.37000
9602775;-0.36000
9605553;-0.36000
9608331;-0.36500
9611108;-0.38500
9613886;-0.38500
9616664;-0.39000
9619442;-0.38500
9622220;-0.37000
9624997;-0.37500
9627775;-0.39000
9630553;-0.40000
9633331;-0.39000
9636108;-0.38000
9638886;-0.38500
9641664;-0.37500
9644442;-0.37500
9647220;-0.37500
9649997;-0.37500
9652775;-0.35000
9655553;-0.35500
9658331;-0.37000
9661108;-0.38500
9663886;-0.39500
9666664;-0.39000
9669442;-0.38500
9672220;-0.39000
9674997;-0.39500
9677775;-0.40000
9680553;-0.41000
9683331;-0.39500
9686108;-0.39500
9688886;-0.38500
9691664;-0.40000
9694442;-0.40500
9697220;-0.41000
9699997;-0.41000
9702775;-0.40000
9705553;-0.40000
9708331;-0.40500
9711108;-0.44000
9713886;-0.45500
9716664;-0.44000
9719442;-0.42500
9722220;-0.41000
9724997;-0.41500
9727775;-0.43500
9730553;-0.45000
9733331;-0.43000
9736108;-0.42000
9738886;-0.42500
9741664;-0.42500
9744442;-0.43000
9747219;-0.44000
9749997;-0.41500
9752775;-0.41000
9755553;-0.41500
9758331;-0.44000
9761108;-0.45500
9763886;-0.46000
9766664;-0.45000
9769442;-0.44500
9772219;-0.44000
9774997;-0.43000
9777775;-0.42000
9780553;-0.42000
9783331;-0.41500
9786108;-0.40500
9788886;-0.39000
9791664;-0.39000
9794442;-0.39500
9797219;-0.38000
9799997;-0.36500
9802775;-0.36500
9805553;-0.35000
9808331;-0.37000
9811108;-0.37000
9813886;-0.34500
9816664;-0.33500
9819442;-0.31500
9822219;-0.30000
9824997;-0.30000
9827775;-0.31500
9830553;-0.33000
9833331;-0.33000
9836108;-0.32500
9838886;-0.32500
9841664;-0.33000
9844442;-0.34500
9847219;-0.34000
9849997;-0.33000
9852775;-0.34000
9855553;-0.34000
9858331;-0.34500
9861108;-0.32000
9863886;-0.30500
9866664;-0.29500
9869442;-0.31000
9872219;-0.35000
9874997;-0.36500
9877775;-0.38000
9880553;-0.39500
9883331;-0.39500
9886108;-0.40500
9888886;-0.41000
9891664;-0.43000
9894442;-0.43500
9897219;-0.44500
9899997;-0.44000
9902775;-0.44500
9905553;-0.43500
9908331;-0.43500
9911108;-0.45500
9913886;-0.47000
9916664;-0.46000
9919442;-0.45000
9922219;-0.44000
9924997;-0.46000
9927775;-0.46000
9930553;-0.47000
9933331;-0.46000
9936108;-0.46500
9938886;-0.45000
9941664;-0.45500
9944442;-0.45500
9947219;-0.47000
9949997;-0.46000
9952775;-0.44500
9955553;-0.45500
9958331;-0.50000
9961108;-0.54000
9963886;-0.57000
9966664;-0.58000
9969442;-0.61000
9972219;-0.63500
9974997;-0.61000
9977775;-0.53500
9980553;-0.41000
9983331;-0.27500
9986108;-0.16500
9988886;-0.05000
9991664;0.05500
9994442;0.19500
9997219;0.37000
9999997;0.56500
10002775;0.70500
10005553;0.81500
10008331;0.91500
10011108;0.94500
10013886;0.87500
10016664;0.57500
10019442;0.17000
10022219;-0.23000
10024997;-0.51000
10027775;-0.61000
10030553;-0.62000
10033331;-0.58000
10036108;-0.53000
10038886;-0.50000
10041664;-0.49500
10044442;-0.50000
10047219;-0.51500
10049997;-0.49500
10052775;-0.49000
10055553;-0.47500
10058331;-0.49000
10061108;-0.50500
10063886;-0.50500
10066664;-0.51000
10069442;-0.50000
10072219;-0.49500
10074997;-0.49500
10077775;-0.51000
10080553;-0.50500
10083331;-0.50500
10086108;-0.49000
10088886;-0.50500
10091664;-0.51000
10094442;-0.51500
10097219;-0.51500
10099997;-0.52000
10102775;-0.50500
10105553;-0.50000
10108331;-0.50500
10111108;-0.51000
10113886;-0.51500
10116664;-0.50000
10119442;-0.51000
10122219;-0.49500
10124997;-0.50500
