time_ms;ecg_value
0;-0.52500
2778;-0.54500
5556;-0.59000
8333;-0.61500
11111;-0.59500
13889;-0.50500
16667;-0.40000
19444;-0.27500
22222;-0.10500
25000;0.15000
27778;0.42500
30556;0.64500
33333;0.77000
36111;0.78000
38889;0.61000
41667;0.27500
44444;-0.11500
47222;-0.43500
50000;-0.58500
52778;-0.60500
55556;-0.56000
58333;-0.50000
61111;-0.46500
63889;-0.48000
66667;-0.48000
69444;-0.47000
72222;-0.46500
75000;-0.46000
77778;-0.45000
80556;-0.46000
83333;-0.46500
86111;-0.47500
88889;-0.48000
91667;-0.47000
94444;-0.46000
97222;-0.46000
100000;-0.45500
102778;-0.46500
105556;-0.46500
108333;-0.46500
111111;-0.45500
113889;-0.45500
116667;-0.45500
119444;-0.47000
122222;-0.47000
125000;-0.46000
127778;-0.45000
130556;-0.44500
133333;-0.45500
136111;-0.47000
138889;-0.48000
141667;-0.47500
144444;-0.45500
147222;-0.46000
150000;-0.47000
152778;-0.47500
155556;-0.49000
158333;-0.48000
161111;-0.47500
163889;-0.47500
166667;-0.48000
169444;-0.48500
172222;-0.48500
175000;-0.47500
177778;-0.46500
180556;-0.47000
183333;-0.48000
186111;-0.48000
188889;-0.48500
191667;-0.48500
194444;-0.46500
197222;-0.46000
200000;-0.47500
202778;-0.49000
205555;-0.48000
208333;-0.46000
211111;-0.45500
213889;-0.44500
216667;-0.46000
219444;-0.47000
222222;-0.47500
225000;-0.46000
227778;-0.45500
230555;-0.46000
233333;-0.46000
236111;-0.47000
238889;-0.47000
241667;-0.45500
244444;-0.44500
247222;-0.45500
250000;-0.46000
252778;-0.47500
255555;-0.48000
258333;-0.46500
261111;-0.46500
263889;-0.47000
266667;-0.48000
269444;-0.48500
272222;-0.49000
275000;-0.47500
277778;-0.46000
280555;-0.46500
283333;-0.47000
286111;-0.48000
288889;-0.47000
291667;-0.47000
294444;-0.46000
297222;-0.46500
300000;-0.46500
302778;-0.48000
305555;-0.48500
308333;-0.47500
311111;-0.45500
313889;-0.45000
316667;-0.45000
319444;-0.45000
322222;-0.45000
325000;-0.43000
327778;-0.42500
330555;-0.41500
333333;-0.41000
336111;-0.42000
338889;-0.41500
341667;-0.38500
344444;-0.37000
347222;-0.36500
350000;-0.36000
352778;-0.36000
355555;-0.35000
358333;-0.34000
361111;-0.34000
363889;-0.34500
366667;-0.35000
369444;-0.37000
372222;-0.36500
375000;-0.35000
377778;-0.34500
380555;-0.35500
383333;-0.35000
386111;-0.34500
388889;-0.36000
391667;-0.35000
394444;-0.35000
397222;-0.34500
400000;-0.36000
402778;-0.36000
405555;-0.36000
408333;-0.35000
411111;-0.35000
413889;-0.36500
416667;-0.36500
419444;-0.38500
422222;-0.37000
425000;-0.35000
427778;-0.35000
430555;-0.35000
433333;-0.35000
436111;-0.36500
438889;-0.36500
441667;-0.37500
444444;-0.35500
447222;-0.37000
450000;-0.38000
452778;-0.38500
455555;-0.39000
458333;-0.37500
461111;-0.35500
463889;-0.36000
466667;-0.36500
469444;-0.37000
472222;-0.38500
475000;-0.38500
477778;-0.38000
480555;-0.38500
483333;-0.39000
486111;-0.39500
488889;-0.41500
491667;-0.39500
494444;-0.38500
497222;-0.39000
500000;-0.39500
502778;-0.39000
505555;-0.40500
508333;-0.40000
511111;-0.38500
513889;-0.37500
516667;-0.38000
519444;-0.39000
522222;-0.39500
525000;-0.39000
527778;-0.39000
530555;-0.39000
533333;-0.40000
536111;-0.41000
538889;-0.41000
541667;-0.41000
544444;-0.39500
547222;-0.40500
550000;-0.42000
552778;-0.41500
555555;-0.40500
558333;-0.40000
561111;-0.38000
563889;-0.37500
566667;-0.37500
569444;-0.38500
572222;-0.39500
575000;-0.38000
577778;-0.38000
580555;-0.36000
583333;-0.37500
586111;-0.38500
588889;-0.39500
591667;-0.37500
594444;-0.36000
597222;-0.34000
600000;-0.35500
602778;-0.35500
605555;-0.33000
608333;-0.31000
611111;-0.30500
613889;-0.30500
616666;-0.31500
619444;-0.31500
622222;-0.30000
625000;-0.28000
627778;-0.26000
630555;-0.25500
633333;-0.26000
636111;-0.25500
638889;-0.26500
641666;-0.24500
644444;-0.24000
647222;-0.26500
650000;-0.28500
652778;-0.26500
655555;-0.26000
658333;-0.25500
661111;-0.24500
663889;-0.24500
666666;-0.23000
669444;-0.25500
672222;-0.29500
675000;-0.30500
677778;-0.32000
680555;-0.32500
683333;-0.35000
686111;-0.36000
688889;-0.37500
691666;-0.37000
694444;-0.37000
697222;-0.37000
700000;-0.37500
702778;-0.40000
705555;-0.40000
708333;-0.39000
711111;-0.38500
713889;-0.36500
716666;-0.38000
719444;-0.39000
722222;-0.40000
725000;-0.39500
727778;-0.40000
730555;-0.38500
733333;-0.39500
736111;-0.40000
738889;-0.41500
741666;-0.39000
744444;-0.40000
747222;-0.39500
750000;-0.40000
752778;-0.41500
755555;-0.41500
758333;-0.41000
761111;-0.39000
763889;-0.39500
766666;-0.43000
769444;-0.46000
772222;-0.50500
775000;-0.52000
777778;-0.54500
780555;-0.58500
783333;-0.61000
786111;-0.57000
788889;-0.45000
791666;-0.30000
794444;-0.11000
797222;0.10500
800000;0.40000
802778;0.66000
805555;0.85500
808333;0.91500
811111;0.76000
813889;0.36500
816666;-0.09000
819444;-0.43000
822222;-0.58000
825000;-0.59000
827778;-0.53500
830555;-0.49000
833333;-0.46500
836111;-0.48000
838889;-0.47000
841666;-0.47000
844444;-0.45000
847222;-0.45500
850000;-0.46000
852778;-0.46000
855555;-0.46000
858333;-0.45500
861111;-0.44000
863889;-0.44500
866666;-0.45000
869444;-0.45500
872222;-0.47000
875000;-0.46500
877778;-0.44000
880555;-0.45500
883333;-0.46000
886111;-0.47000
888889;-0.47000
891666;-0.46000
894444;-0.46500
897222;-0.45500
900000;-0.45500
902778;-0.47500
905555;-0.47000
908333;-0.47000
911111;-0.45000
913889;-0.44500
916666;-0.44500
919444;-0.44500
922222;-0.45500
925000;-0.44500
927778;-0.44000
930555;-0.45500
933333;-0.46000
936111;-0.47000
938889;-0.46500
941666;-0.45500
944444;-0.44500
947222;-0.46500
950000;-0.46500
952778;-0.47000
955555;-0.46500
958333;-0.46000
961111;-0.45500
963889;-0.46000
966666;-0.45500
969444;-0.46000
972222;-0.45000
975000;-0.45000
977778;-0.44000
980555;-0.44000
983333;-0.44500
986111;-0.45000
988889;-0.45500
991666;-0.45500
994444;-0.45000
997222;-0.44500
1000000;-0.46000
1002777;-0.46500
1005555;-0.47500
1008333;-0.44500
1011111;-0.44000
1013889;-0.46500
1016666;-0.45000
1019444;-0.46000
1022222;-0.46500
1025000;-0.46000
1027777;-0.46000
1030555;-0.46000
1033333;-0.48000
1036111;-0.48000
1038889;-0.49000
1041666;-0.47500
1044444;-0.48000
1047222;-0.48000
1050000;-0.48500
1052777;-0.49000
1055555;-0.50500
1058333;-0.49000
1061111;-0.47500
1063889;-0.49000
1066666;-0.48500
1069444;-0.49000
1072222;-0.50000
1075000;-0.48000
1077777;-0.46500
1080555;-0.47000
1083333;-0.46000
1086111;-0.45500
1088889;-0.43500
1091666;-0.41000
1094444;-0.38500
1097222;-0.38500
1100000;-0.38000
1102777;-0.37000
1105555;-0.36000
1108333;-0.34000
1111111;-0.33000
1113889;-0.32500
1116666;-0.32500
1119444;-0.32000
1122222;-0.32000
1125000;-0.30000
1127777;-0.28000
1130555;-0.28500
1133333;-0.29000
1136111;-0.29500
1138889;-0.29500
1141666;-0.28500
1144444;-0.27500
1147222;-0.27500
1150000;-0.28000
1152777;-0.29500
1155555;-0.29500
1158333;-0.28500
1161111;-0.28000
1163889;-0.29000
1166666;-0.29000
1169444;-0.30000
1172222;-0.30000
1175000;-0.29000
1177777;-0.28000
1180555;-0.29000
1183333;-0.29500
1186111;-0.30500
1188889;-0.30500
1191666;-0.30500
1194444;-0.29000
1197222;-0.29000
1200000;-0.29500
1202777;-0.29500
1205555;-0.30000
1208333;-0.29500
1211111;-0.27500
1213889;-0.29000
1216666;-0.30000
1219444;-0.29500
1222222;-0.30500
1225000;-0.29000
1227777;-0.29000
1230555;-0.30000
1233333;-0.30500
1236111;-0.31500
1238889;-0.32500
1241666;-0.30500
1244444;-0.29500
1247222;-0.30500
1250000;-0.32500
1252777;-0.33000
1255555;-0.33000
1258333;-0.32500
1261111;-0.31500
1263889;-0.32000
1266666;-0.32000
1269444;-0.32500
1272222;-0.33000
1275000;-0.32000
1277777;-0.30500
1280555;-0.30500
1283333;-0.30500
1286111;-0.31500
1288889;-0.31000
1291666;-0.31500
1294444;-0.29500
1297222;-0.30000
1300000;-0.30500
1302777;-0.32000
1305555;-0.32000
1308333;-0.31500
1311111;-0.31000
1313889;-0.31000
1316666;-0.32000
1319444;-0.33000
1322222;-0.32000
1325000;-0.32000
1327777;-0.30500
1330555;-0.31000
1333333;-0.31500
1336111;-0.31500
1338889;-0.32500
1341666;-0.31500
1344444;-0.30500
1347222;-0.30500
1350000;-0.30000
1352777;-0.30500
1355555;-0.30000
1358333;-0.27000
1361111;-0.26000
1363889;-0.24500
1366666;-0.24500
1369444;-0.24500
1372222;-0.24500
1375000;-0.23000
1377777;-0.21000
1380555;-0.22000
1383333;-0.21000
1386111;-0.20500
1388888;-0.20000
1391666;-0.18500
1394444;-0.17500
1397222;-0.17000
1400000;-0.17500
1402777;-0.18500
1405555;-0.19000
1408333;-0.19500
1411111;-0.19000
1413888;-0.18000
1416666;-0.17500
1419444;-0.18000
1422222;-0.19000
1425000;-0.16000
1427777;-0.14000
1430555;-0.12500
1433333;-0.15000
1436111;-0.18500
1438888;-0.22500
1441666;-0.24000
1444444;-0.23500
1447222;-0.25500
1450000;-0.26000
1452777;-0.29000
1455555;-0.31000
1458333;-0.31000
1461111;-0.30000
1463888;-0.32500
1466666;-0.31500
1469444;-0.32500
1472222;-0.33000
1475000;-0.32500
1477777;-0.32000
1480555;-0.33000
1483333;-0.33500
1486111;-0.35000
1488888;-0.36500
1491666;-0.33500
1494444;-0.32500
1497222;-0.31500
1500000;-0.32500
1502777;-0.33000
1505555;-0.34000
1508333;-0.33000
1511111;-0.32000
1513888;-0.32500
1516666;-0.34000
1519444;-0.35000
1522222;-0.38000
1525000;-0.40000
1527777;-0.43000
1530555;-0.44500
1533333;-0.48000
1536111;-0.52500
1538888;-0.55000
1541666;-0.49500
1544444;-0.39500
1547222;-0.27000
1550000;-0.15000
1552777;-0.01500
1555555;0.17000
1558333;0.42500
1561111;0.68000
1563888;0.85000
1566666;0.94500
1569444;1.01500
1572222;1.07000
1575000;1.06500
1577777;0.88000
1580555;0.50000
1583333;0.06000
1586111;-0.29500
1588888;-0.48000
1591666;-0.50500
1594444;-0.44500
1597222;-0.39000
1600000;-0.38000
1602777;-0.38500
1605555;-0.40000
1608333;-0.38500
1611111;-0.37500
1613888;-0.38000
1616666;-0.37500
1619444;-0.37500
1622222;-0.38500
1625000;-0.39000
1627777;-0.37500
1630555;-0.37500
1633333;-0.39000
1636111;-0.39500
1638888;-0.40000
1641666;-0.39000
1644444;-0.38000
1647222;-0.39000
1650000;-0.40000
1652777;-0.39500
1655555;-0.40000
1658333;-0.38500
1661111;-0.38000
1663888;-0.38500
1666666;-0.39000
1669444;-0.39000
1672222;-0.39000
1675000;-0.38000
1677777;-0.37000
1680555;-0.38000
1683333;-0.39500
1686111;-0.41000
1688888;-0.40000
1691666;-0.39000
1694444;-0.38000
1697222;-0.38500
1700000;-0.38000
1702777;-0.38500
1705555;-0.39500
1708333;-0.39500
1711111;-0.38500
1713888;-0.38500
1716666;-0.38500
1719444;-0.39500
1722222;-0.39000
1725000;-0.37500
1727777;-0.37000
1730555;-0.38000
1733333;-0.38000
1736111;-0.38500
1738888;-0.37500
1741666;-0.37500
1744444;-0.35000
1747222;-0.35000
1750000;-0.36000
1752777;-0.36000
1755555;-0.37500
1758333;-0.35500
1761111;-0.35000
1763888;-0.36000
1766666;-0.37000
1769444;-0.37500
1772222;-0.37500
1775000;-0.37500
1777777;-0.36500
1780555;-0.36500
1783333;-0.36500
1786111;-0.39000
1788888;-0.38000
1791666;-0.37500
1794444;-0.36000
1797222;-0.36000
1799999;-0.37000
1802777;-0.38500
1805555;-0.37000
1808333;-0.36000
1811111;-0.35000
1813888;-0.35500
1816666;-0.37000
1819444;-0.35500
1822222;-0.36000
1824999;-0.35500
1827777;-0.34500
1830555;-0.34500
1833333;-0.33000
1836111;-0.34000
1838888;-0.34000
1841666;-0.32500
1844444;-0.31500
1847222;-0.30500
1849999;-0.30000
1852777;-0.29500
1855555;-0.31500
1858333;-0.28000
1861111;-0.26500
1863888;-0.26000
1866666;-0.25500
1869444;-0.26500
1872222;-0.26500
1874999;-0.24000
1877777;-0.22500
1880555;-0.23500
1883333;-0.24000
1886111;-0.25000
1888888;-0.24000
1891666;-0.24500
1894444;-0.23000
1897222;-0.24000
1899999;-0.24500
1902777;-0.25500
1905555;-0.26000
1908333;-0.24500
1911111;-0.24000
1913888;-0.24000
1916666;-0.25500
1919444;-0.25000
1922222;-0.26000
1924999;-0.24000
1927777;-0.24000
1930555;-0.23000
1933333;-0.24000
1936111;-0.25500
1938888;-0.25500
1941666;-0.24500
1944444;-0.24500
1947222;-0.24000
1949999;-0.24500
1952777;-0.25500
1955555;-0.26000
1958333;-0.26000
1961111;-0.24000
1963888;-0.24000
1966666;-0.23000
1969444;-0.24500
1972222;-0.26000
1974999;-0.25500
1977777;-0.25000
1980555;-0.25500
1983333;-0.25000
1986111;-0.26500
1988888;-0.28000
1991666;-0.26500
1994444;-0.25500
1997222;-0.27000
1999999;-0.27000
2002777;-0.28500
2005555;-0.29000
2008333;-0.28000
2011111;-0.26000
2013888;-0.28000
2016666;-0.28500
2019444;-0.30000
2022222;-0.31000
2024999;-0.31000
2027777;-0.28500
2030555;-0.28000
2033333;-0.29000
2036111;-0.30500
2038888;-0.29500
2041666;-0.29000
2044444;-0.27500
2047222;-0.28000
2049999;-0.28500
2052777;-0.30000
2055555;-0.30000
2058333;-0.29500
2061111;-0.28000
2063888;-0.29500
2066666;-0.30000
2069444;-0.31000
2072222;-0.31500
2074999;-0.30500
2077777;-0.30000
2080555;-0.29000
2083333;-0.30500
2086111;-0.30500
2088888;-0.29500
2091666;-0.29000
2094444;-0.29000
2097222;-0.29500
2099999;-0.29000
2102777;-0.31000
2105555;-0.29500
2108333;-0.29000
2111111;-0.27000
2113888;-0.27000
2116666;-0.27000
2119444;-0.27500
2122222;-0.26500
2124999;-0.24500
2127777;-0.23000
2130555;-0.22500
2133333;-0.22500
2136111;-0.21500
2138888;-0.22500
2141666;-0.20000
2144444;-0.20000
2147222;-0.19000
2149999;-0.19500
2152777;-0.20000
2155555;-0.20000
2158333;-0.17500
2161111;-0.15000
2163888;-0.15000
2166666;-0.17000
2169444;-0.17000
2172222;-0.18500
2174999;-0.17000
2177777;-0.17000
2180555;-0.17500
2183333;-0.17000
2186110;-0.16500
2188888;-0.17000
2191666;-0.16000
2194444;-0.12500
2197222;-0.13000
2199999;-0.13000
2202777;-0.18500
2205555;-0.21500
2208333;-0.23000
2211110;-0.22500
2213888;-0.24000
2216666;-0.27000
2219444;-0.28000
2222222;-0.29500
2224999;-0.29500
2227777;-0.30500
2230555;-0.30500
2233333;-0.31000
2236110;-0.31500
2238888;-0.32000
2241666;-0.32000
2244444;-0.31000
2247222;-0.31000
2249999;-0.33000
2252777;-0.33500
2255555;-0.34000
2258333;-0.31500
2261110;-0.30000
2263888;-0.31000
2266666;-0.31500
2269444;-0.32000
2272222;-0.32500
2274999;-0.31500
2277777;-0.30500
2280555;-0.30500
2283333;-0.31000
2286110;-0.32500
2288888;-0.32500
2291666;-0.33000
2294444;-0.32000
2297222;-0.33000
2299999;-0.33500
2302777;-0.35500
2305555;-0.38000
2308333;-0.40000
2311110;-0.42500
2313888;-0.44500
2316666;-0.47000
2319444;-0.53500
2322222;-0.56000
2324999;-0.50000
2327777;-0.40000
2330555;-0.26500
2333333;-0.14000
2336110;0.02500
2338888;0.28000
2341666;0.56500
2344444;0.78000
2347222;0.89000
2349999;0.89500
2352777;0.73500
2355555;0.37500
2358333;-0.01000
2361110;-0.31500
2363888;-0.47000
2366666;-0.50000
2369444;-0.47500
2372222;-0.42500
2374999;-0.37000
2377777;-0.36000
2380555;-0.36500
2383333;-0.37000
2386110;-0.37500
2388888;-0.38000
2391666;-0.36500
2394444;-0.36000
2397222;-0.36000
2399999;-0.37000
2402777;-0.38000
2405555;-0.38500
2408333;-0.36500
2411110;-0.36000
2413888;-0.36500
2416666;-0.37000
2419444;-0.37000
2422222;-0.38000
2424999;-0.36000
2427777;-0.35000
2430555;-0.36000
2433333;-0.35500
2436110;-0.36500
2438888;-0.36500
2441666;-0.35500
2444444;-0.35500
2447222;-0.35000
2449999;-0.36000
2452777;-0.37000
2455555;-0.36000
2458333;-0.36000
2461110;-0.34500
2463888;-0.34500
2466666;-0.36000
2469444;-0.36000
2472222;-0.38000
2474999;-0.37000
2477777;-0.35000
2480555;-0.36000
2483333;-0.36500
2486110;-0.37500
2488888;-0.37500
2491666;-0.35500
2494444;-0.36000
2497222;-0.35500
2499999;-0.36000
2502777;-0.36500
2505555;-0.36500
2508333;-0.35500
2511110;-0.34500
2513888;-0.35000
2516666;-0.35500
2519444;-0.37500
2522222;-0.37000
2524999;-0.36500
2527777;-0.36000
2530555;-0.36000
2533333;-0.36500
2536110;-0.38000
2538888;-0.37000
2541666;-0.36500
2544444;-0.35500
2547222;-0.35500
2549999;-0.35500
2552777;-0.36000
2555555;-0.37000
2558333;-0.36000
2561110;-0.35500
2563888;-0.34500
2566666;-0.35500
2569444;-0.36500
2572222;-0.38000
2574999;-0.35500
2577777;-0.35000
2580555;-0.35000
2583333;-0.36000
2586110;-0.36000
2588888;-0.37500
2591666;-0.36500
2594444;-0.36500
2597221;-0.36000
2599999;-0.35500
2602777;-0.37000
2605555;-0.38000
2608333;-0.36500
2611110;-0.36000
2613888;-0.35000
2616666;-0.36000
2619444;-0.36000
2622221;-0.36500
2624999;-0.35000
2627777;-0.33000
2630555;-0.34000
2633333;-0.34000
2636110;-0.34500
2638888;-0.34500
2641666;-0.33500
2644444;-0.32000
2647221;-0.32000
2649999;-0.31500
2652777;-0.32000
2655555;-0.31500
2658333;-0.31500
2661110;-0.29500
2663888;-0.28500
2666666;-0.28500
2669444;-0.28500
2672221;-0.27500
2674999;-0.26500
2677777;-0.26000
2680555;-0.25500
2683333;-0.25500
2686110;-0.26500
2688888;-0.26000
2691666;-0.25500
2694444;-0.24000
2697221;-0.24000
2699999;-0.23500
2702777;-0.24000
2705555;-0.25000
2708333;-0.24500
2711110;-0.24500
2713888;-0.23500
2716666;-0.25000
2719444;-0.25000
2722221;-0.26500
2724999;-0.24500
2727777;-0.23500
2730555;-0.24500
2733333;-0.24500
2736110;-0.26000
2738888;-0.26000
2741666;-0.25000
2744444;-0.24500
2747221;-0.24500
2749999;-0.25500
2752777;-0.25000
2755555;-0.27000
2758333;-0.25500
2761110;-0.25500
2763888;-0.26500
2766666;-0.26000
2769444;-0.26500
2772221;-0.27000
2774999;-0.26000
2777777;-0.26000
2780555;-0.25000
2783333;-0.25500
2786110;-0.26000
2788888;-0.26500
2791666;-0.26500
2794444;-0.25500
2797221;-0.26500
2799999;-0.27500
2802777;-0.27500
2805555;-0.28500
2808333;-0.27000
2811110;-0.26000
2813888;-0.27000
2816666;-0.27000
2819444;-0.27500
2822221;-0.29000
2824999;-0.28000
2827777;-0.27500
2830555;-0.28000
2833333;-0.28500
2836110;-0.32000
2838888;-0.31000
2841666;-0.29500
2844444;-0.28000
2847221;-0.27000
2849999;-0.27500
2852777;-0.28500
2855555;-0.29000
2858333;-0.28000
2861110;-0.27500
2863888;-0.28500
2866666;-0.28500
2869444;-0.29000
2872221;-0.29000
2874999;-0.28500
2877777;-0.28500
2880555;-0.28000
2883333;-0.29500
2886110;-0.29500
2888888;-0.29500
2891666;-0.29000
2894444;-0.28500
2897221;-0.28500
2899999;-0.29000
2902777;-0.29500
2905555;-0.29000
2908333;-0.29000
2911110;-0.26500
2913888;-0.27000
2916666;-0.28000
2919444;-0.28500
2922221;-0.29500
2924999;-0.27500
2927777;-0.26500
2930555;-0.27500
2933333;-0.27000
2936110;-0.27500
2938888;-0.28000
2941666;-0.26000
2944444;-0.26500
2947221;-0.26000
2949999;-0.26500
2952777;-0.27500
2955555;-0.26500
2958333;-0.25000
2961110;-0.23500
2963888;-0.23000
2966666;-0.23000
2969444;-0.22500
2972221;-0.23000
2974999;-0.20000
2977777;-0.19500
2980555;-0.20000
2983332;-0.20500
2986110;-0.20500
2988888;-0.21500
2991666;-0.17000
2994444;-0.15500
2997221;-0.15500
2999999;-0.15500
3002777;-0.16000
3005555;-0.16500
3008332;-0.14500
3011110;-0.13500
3013888;-0.14500
3016666;-0.15500
3019444;-0.16500
3022221;-0.17500
3024999;-0.15500
3027777;-0.14000
3030555;-0.15500
3033332;-0.16000
3036110;-0.16000
3038888;-0.15000
3041666;-0.14000
3044444;-0.16500
3047221;-0.18500
3049999;-0.21500
3052777;-0.23500
3055555;-0.23500
3058332;-0.25000
3061110;-0.25000
3063888;-0.26000
3066666;-0.28000
3069444;-0.30000
3072221;-0.30500
3074999;-0.30000
3077777;-0.30500
3080555;-0.30000
3083332;-0.30000
3086110;-0.31500
3088888;-0.32000
3091666;-0.30500
3094444;-0.29500
3097221;-0.31500
3099999;-0.31500
3102777;-0.31500
3105555;-0.32000
3108332;-0.31500
3111110;-0.30000
3113888;-0.30500
3116666;-0.31500
3119444;-0.33500
3122221;-0.33500
3124999;-0.33000
3127777;-0.32000
3130555;-0.31500
3133332;-0.32000
3136110;-0.31500
3138888;-0.31500
3141666;-0.32500
3144444;-0.33000
3147221;-0.33500
3149999;-0.37500
3152777;-0.42000
3155555;-0.45000
3158332;-0.45000
3161110;-0.47500
3163888;-0.51500
3166666;-0.54500
3169444;-0.52500
3172221;-0.45000
3174999;-0.32500
3177777;-0.19000
3180555;-0.03000
3183332;0.21000
3186110;0.49000
3188888;0.70500
3191666;0.86000
3194444;0.88500
3197221;0.76000
3199999;0.47500
3202777;0.12000
3205555;-0.21000
3208332;-0.40500
3211110;-0.48500
3213888;-0.48000
3216666;-0.43500
3219444;-0.39500
3222221;-0.38500
3224999;-0.37500
3227777;-0.37500
3230555;-0.37000
3233332;-0.38000
3236110;-0.38000
3238888;-0.38500
3241666;-0.38500
3244444;-0.37000
3247221;-0.38000
3249999;-0.38500
3252777;-0.38500
3255555;-0.40000
3258332;-0.38500
3261110;-0.37000
3263888;-0.37500
3266666;-0.38000
3269444;-0.38500
3272221;-0.39000
3274999;-0.38000
3277777;-0.37000
3280555;-0.37500
3283332;-0.38000
3286110;-0.37500
3288888;-0.38000
3291666;-0.38000
3294444;-0.37500
3297221;-0.37000
3299999;-0.37500
3302777;-0.39000
3305555;-0.39000
3308332;-0.38500
3311110;-0.36500
3313888;-0.36500
3316666;-0.37000
3319444;-0.38000
3322221;-0.38500
3324999;-0.37000
3327777;-0.36500
3330555;-0.36000
3333332;-0.37500
3336110;-0.39500
3338888;-0.39500
3341666;-0.40000
3344444;-0.39500
3347221;-0.38500
3349999;-0.38000
3352777;-0.38500
3355555;-0.39000
3358332;-0.39500
3361110;-0.38500
3363888;-0.38000
3366666;-0.38500
3369444;-0.39500
3372221;-0.39500
3374999;-0.38500
3377777;-0.39000
3380555;-0.38500
3383332;-0.38500
3386110;-0.38500
3388888;-0.40000
3391666;-0.38500
3394443;-0.37000
3397221;-0.36500
3399999;-0.38500
3402777;-0.39000
3405555;-0.40000
3408332;-0.37000
3411110;-0.38000
3413888;-0.38000
3416666;-0.38000
3419443;-0.38500
3422221;-0.39500
3424999;-0.37500
3427777;-0.37000
3430555;-0.37000
3433332;-0.38000
3436110;-0.40000
3438888;-0.40500
3441666;-0.40000
3444443;-0.39000
3447221;-0.37000
3449999;-0.38500
3452777;-0.40000
3455555;-0.41000
3458332;-0.39000
3461110;-0.39000
3463888;-0.38500
3466666;-0.39000
3469443;-0.41000
3472221;-0.40000
3474999;-0.39500
3477777;-0.38000
3480555;-0.37500
3483332;-0.39000
3486110;-0.37500
3488888;-0.37000
3491666;-0.36000
3494443;-0.33500
3497221;-0.32500
3499999;-0.32000
3502777;-0.31500
3505555;-0.30500
3508332;-0.29500
3511110;-0.28000
3513888;-0.27000
3516666;-0.27500
3519443;-0.27500
3522221;-0.27000
3524999;-0.26000
3527777;-0.25000
3530555;-0.25000
3533332;-0.25500
3536110;-0.26000
3538888;-0.26000
3541666;-0.27000
3544443;-0.26000
3547221;-0.25500
3549999;-0.25500
3552777;-0.27000
3555555;-0.28000
3558332;-0.27000
3561110;-0.25000
3563888;-0.26000
3566666;-0.25500
3569443;-0.26500
3572221;-0.28500
3574999;-0.27000
3577777;-0.26000
3580555;-0.25500
3583332;-0.26500
3586110;-0.27000
3588888;-0.27000
3591666;-0.26000
3594443;-0.25000
3597221;-0.25500
3599999;-0.26000
3602777;-0.26500
3605555;-0.27500
3608332;-0.27000
3611110;-0.26500
3613888;-0.27000
3616666;-0.27500
3619443;-0.28500
3622221;-0.30000
3624999;-0.29500
3627777;-0.28500
3630555;-0.27000
3633332;-0.27500
3636110;-0.28500
3638888;-0.30000
3641666;-0.28000
3644443;-0.29500
3647221;-0.29000
3649999;-0.30000
3652777;-0.31500
3655555;-0.31000
3658332;-0.30000
3661110;-0.29000
3663888;-0.30000
3666666;-0.30500
3669443;-0.31500
3672221;-0.31500
3674999;-0.30000
3677777;-0.29000
3680555;-0.29000
3683332;-0.31500
3686110;-0.31500
3688888;-0.32000
3691666;-0.31500
3694443;-0.30500
3697221;-0.29500
3699999;-0.30500
3702777;-0.31500
3705555;-0.32500
3708332;-0.32000
3711110;-0.31500
3713888;-0.31500
3716666;-0.30500
3719443;-0.31000
3722221;-0.31500
3724999;-0.31500
3727777;-0.31000
3730555;-0.31000
3733332;-0.32000
3736110;-0.31500
3738888;-0.32500
3741666;-0.31000
3744443;-0.30000
3747221;-0.29500
3749999;-0.29500
3752777;-0.30500
3755555;-0.30500
3758332;-0.29000
3761110;-0.29500
3763888;-0.29500
3766666;-0.30500
3769443;-0.30000
3772221;-0.30500
3774999;-0.30500
3777777;-0.31000
3780554;-0.32500
3783332;-0.31000
3786110;-0.30500
3788888;-0.30000
3791666;-0.27500
3794443;-0.26000
3797221;-0.26000
3799999;-0.25000
3802777;-0.25000
3805554;-0.26000
3808332;-0.25500
3811110;-0.24000
3813888;-0.23000
3816666;-0.23000
3819443;-0.23000
3822221;-0.22500
3824999;-0.20500
3827777;-0.19000
3830554;-0.18500
3833332;-0.19000
3836110;-0.19000
3838888;-0.18500
3841666;-0.18000
3844443;-0.18500
3847221;-0.18000
3849999;-0.19000
3852777;-0.20000
3855554;-0.20000
3858332;-0.18500
3861110;-0.18000
3863888;-0.17000
3866666;-0.16000
3869443;-0.15500
3872221;-0.17000
3874999;-0.19500
3877777;-0.22000
3880554;-0.23500
3883332;-0.25500
3886110;-0.27000
3888888;-0.30500
3891666;-0.30000
3894443;-0.31000
3897221;-0.31000
3899999;-0.34500
3902777;-0.33000
3905554;-0.33500
3908332;-0.32500
3911110;-0.33000
3913888;-0.34000
3916666;-0.34500
3919443;-0.34000
3922221;-0.35500
3924999;-0.33500
3927777;-0.34000
3930554;-0.33500
3933332;-0.34500
3936110;-0.35500
3938888;-0.35000
3941666;-0.35000
3944443;-0.34000
3947221;-0.32000
3949999;-0.33500
3952777;-0.34500
3955554;-0.35000
3958332;-0.34000
3961110;-0.35000
3963888;-0.35500
3966666;-0.36500
3969443;-0.39500
3972221;-0.42000
3974999;-0.45000
3977777;-0.45500
3980554;-0.44500
3983332;-0.44500
3986110;-0.45500
3988888;-0.48500
3991666;-0.51000
3994443;-0.54000
3997221;-0.58000
3999999;-0.58500
4002777;-0.56000
4005554;-0.49000
4008332;-0.38000
4011110;-0.24500
4013888;-0.08000
4016666;0.12500
4019443;0.37000
4022221;0.63500
4024999;0.84500
4027777;0.94500
4030554;0.88500
4033332;0.62500
4036110;0.20500
4038888;-0.20000
4041666;-0.43000
4044443;-0.50000
4047221;-0.49500
4049999;-0.46500
4052777;-0.42000
4055554;-0.42000
4058332;-0.40500
4061110;-0.40000
4063888;-0.39500
4066666;-0.39500
4069443;-0.40000
4072221;-0.41000
4074999;-0.40500
4077777;-0.39500
4080554;-0.41000
4083332;-0.41000
4086110;-0.40000
4088888;-0.40000
4091666;-0.39500
4094443;-0.38000
4097221;-0.38000
4099999;-0.38500
4102777;-0.40000
4105554;-0.41000
4108332;-0.41000
4111110;-0.39500
4113888;-0.39500
4116666;-0.39500
4119443;-0.39500
4122221;-0.40500
4124999;-0.39000
4127777;-0.39000
4130554;-0.38500
4133332;-0.38500
4136110;-0.40000
4138888;-0.41000
4141666;-0.40000
4144443;-0.39500
4147221;-0.38500
4149999;-0.38500
4152777;-0.39000
4155554;-0.39000
4158332;-0.39000
4161110;-0.37500
4163888;-0.37000
4166666;-0.37500
4169443;-0.39000
4172221;-0.39500
4174999;-0.38500
4177777;-0.38000
4180554;-0.37500
4183332;-0.39000
4186110;-0.39000
4188888;-0.39500
4191665;-0.38000
4194443;-0.37500
4197221;-0.37000
4199999;-0.38500
4202777;-0.39500
4205554;-0.39000
4208332;-0.40000
4211110;-0.38500
4213888;-0.38000
4216665;-0.37500
4219443;-0.39000
4222221;-0.39500
4224999;-0.38500
4227777;-0.38500
4230554;-0.37500
4233332;-0.37500
4236110;-0.38000
4238888;-0.38500
4241665;-0.39500
4244443;-0.38000
4247221;-0.38000
4249999;-0.38500
4252777;-0.39000
4255554;-0.40000
4258332;-0.40000
4261110;-0.39500
4263888;-0.40000
4266665;-0.41000
4269443;-0.42000
4272221;-0.43000
4274999;-0.43000
4277777;-0.42500
4280554;-0.42500
4283332;-0.43500
4286110;-0.43500
4288888;-0.44000
4291665;-0.42500
4294443;-0.42000
4297221;-0.41500
4299999;-0.41500
4302777;-0.42500
4305554;-0.40000
4308332;-0.39000
4311110;-0.36500
4313888;-0.34500
4316665;-0.33000
4319443;-0.32500
4322221;-0.33000
4324999;-0.31000
4327777;-0.29500
4330554;-0.27500
4333332;-0.28000
4336110;-0.27500
4338888;-0.27000
4341665;-0.25000
4344443;-0.24000
4347221;-0.24000
4349999;-0.24500
4352777;-0.24500
4355554;-0.25000
4358332;-0.23500
4361110;-0.23000
4363888;-0.23000
4366665;-0.23500
4369443;-0.24000
4372221;-0.23000
4374999;-0.22500
4377777;-0.22500
4380554;-0.22000
4383332;-0.22000
4386110;-0.23000
4388888;-0.23500
4391665;-0.22500
4394443;-0.22000
4397221;-0.21500
4399999;-0.22500
4402777;-0.23000
4405554;-0.24500
4408332;-0.24000
4411110;-0.22500
4413888;-0.22500
4416665;-0.23000
4419443;-0.24000
4422221;-0.24500
4424999;-0.23000
4427777;-0.23000
4430554;-0.23000
4433332;-0.24500
4436110;-0.24500
4438888;-0.26000
4441665;-0.25500
4444443;-0.24000
4447221;-0.24500
4449999;-0.24500
4452777;-0.25000
4455554;-0.25500
4458332;-0.25000
4461110;-0.24500
4463888;-0.24000
4466665;-0.25000
4469443;-0.26000
4472221;-0.26500
4474999;-0.27000
4477777;-0.26500
4480554;-0.26000
4483332;-0.27500
4486110;-0.28500
4488888;-0.28000
4491665;-0.28000
4494443;-0.26000
4497221;-0.28000
4499999;-0.28000
4502777;-0.29000
4505554;-0.30500
4508332;-0.28500
4511110;-0.28500
4513888;-0.27500
4516665;-0.27500
4519443;-0.28500
4522221;-0.29500
4524999;-0.29000
4527777;-0.28000
4530554;-0.27000
4533332;-0.27500
4536110;-0.27000
4538888;-0.28500
4541665;-0.27500
4544443;-0.28000
4547221;-0.27500
4549999;-0.28500
4552777;-0.28000
4555554;-0.29500
4558332;-0.28000
4561110;-0.27500
4563888;-0.28000
4566665;-0.28000
4569443;-0.28500
4572221;-0.29000
4574999;-0.27500
4577776;-0.26000
4580554;-0.26000
4583332;-0.24500
4586110;-0.25000
4588888;-0.24500
4591665;-0.22000
4594443;-0.20500
4597221;-0.19500
4599999;-0.19000
4602776;-0.19500
4605554;-0.19500
4608332;-0.18500
4611110;-0.17000
4613888;-0.16000
4616665;-0.16000
4619443;-0.16000
4622221;-0.15000
4624999;-0.15000
4627776;-0.14500
4630554;-0.14000
4633332;-0.15000
4636110;-0.16500
4638888;-0.17500
4641665;-0.16000
4644443;-0.15000
4647221;-0.15000
4649999;-0.14500
4652776;-0.14000
4655554;-0.13000
4658332;-0.13000
4661110;-0.15000
4663888;-0.19500
4666665;-0.21000
4669443;-0.21500
4672221;-0.23500
4674999;-0.23000
4677776;-0.23000
4680554;-0.25000
4683332;-0.27000
4686110;-0.28500
4688888;-0.29000
4691665;-0.29000
4694443;-0.28000
4697221;-0.28500
4699999;-0.28500
4702776;-0.29000
4705554;-0.31000
4708332;-0.30500
4711110;-0.29000
4713888;-0.28500
4716665;-0.29500
4719443;-0.30500
4722221;-0.32000
4724999;-0.31000
4727776;-0.31500
4730554;-0.30500
4733332;-0.30500
4736110;-0.32500
4738888;-0.33500
4741665;-0.32500
4744443;-0.30500
4747221;-0.30000
4749999;-0.30000
4752776;-0.31000
4755554;-0.32500
4758332;-0.33000
4761110;-0.35500
4763888;-0.40500
4766665;-0.42500
4769443;-0.45500
4772221;-0.50500
4774999;-0.52500
4777776;-0.47000
4780554;-0.37000
4783332;-0.24000
4786110;-0.11000
4788888;0.06500
4791665;0.33000
4794443;0.63000
4797221;0.84500
4799999;0.96000
4802776;0.96000
4805554;0.73500
4808332;0.35000
4811110;-0.07500
4813888;-0.35000
4816665;-0.48000
4819443;-0.48500
4822221;-0.44500
4824999;-0.38000
4827776;-0.35500
4830554;-0.34500
4833332;-0.34500
4836110;-0.35500
4838888;-0.35500
4841665;-0.35500
4844443;-0.34500
4847221;-0.34500
4849999;-0.35500
4852776;-0.36500
4855554;-0.38000
4858332;-0.37000
4861110;-0.36000
4863888;-0.36500
4866665;-0.35500
4869443;-0.36000
4872221;-0.37000
4874999;-0.36500
4877776;-0.36500
4880554;-0.36000
4883332;-0.36500
4886110;-0.37500
4888888;-0.38500
4891665;-0.38500
4894443;-0.38000
4897221;-0.37000
4899999;-0.37000
4902776;-0.37500
4905554;-0.39000
4908332;-0.37500
4911110;-0.37000
4913888;-0.35000
4916665;-0.35500
4919443;-0.35500
4922221;-0.36500
4924999;-0.36000
4927776;-0.35500
4930554;-0.35000
4933332;-0.35500
4936110;-0.37500
4938888;-0.36500
4941665;-0.36500
4944443;-0.35000
4947221;-0.35500
4949999;-0.36500
4952776;-0.36500
4955554;-0.37500
4958332;-0.36500
4961110;-0.36000
4963887;-0.36500
4966665;-0.37000
4969443;-0.37500
4972221;-0.37000
4974999;-0.36000
4977776;-0.36000
4980554;-0.35500
4983332;-0.35000
4986110;-0.35000
4988887;-0.36000
4991665;-0.35000
4994443;-0.34500
4997221;-0.34000
4999999;-0.35000
5002776;-0.35500
5005554;-0.35500
5008332;-0.35000
5011110;-0.34500
5013887;-0.33000
5016665;-0.35000
5019443;-0.35500
5022221;-0.35500
5024999;-0.35000
5027776;-0.34500
5030554;-0.33500
5033332;-0.34500
5036110;-0.36000
5038887;-0.36500
5041665;-0.35500
5044443;-0.35000
5047221;-0.35500
5049999;-0.34500
5052776;-0.35000
5055554;-0.35500
5058332;-0.34500
5061110;-0.34000
5063887;-0.34000
5066665;-0.34000
5069443;-0.35000
5072221;-0.35500
5074999;-0.34000
5077776;-0.33000
5080554;-0.34000
5083332;-0.32500
5086110;-0.33000
5088887;-0.33500
5091665;-0.31500
5094443;-0.30500
5097221;-0.28500
5099999;-0.27500
5102776;-0.28000
5105554;-0.29500
5108332;-0.27000
5111110;-0.26500
5113887;-0.25500
5116665;-0.24500
5119443;-0.25500
5122221;-0.25500
5124999;-0.24500
5127776;-0.23500
5130554;-0.23500
5133332;-0.23000
5136110;-0.23500
5138887;-0.24000
5141665;-0.22500
5144443;-0.22500
5147221;-0.23000
5149999;-0.23000
5152776;-0.25000
5155554;-0.24500
5158332;-0.23500
5161110;-0.23000
5163887;-0.24000
5166665;-0.24000
5169443;-0.23500
5172221;-0.25500
5174999;-0.24500
5177776;-0.24500
5180554;-0.24000
5183332;-0.24000
5186110;-0.25000
5188887;-0.26000
5191665;-0.25000
5194443;-0.25000
5197221;-0.24500
5199999;-0.25500
5202776;-0.26000
5205554;-0.26500
5208332;-0.25500
5211110;-0.24500
5213887;-0.25000
5216665;-0.25000
5219443;-0.25500
5222221;-0.27000
5224999;-0.25500
5227776;-0.25000
5230554;-0.24500
5233332;-0.25000
5236110;-0.27000
5238887;-0.26500
5241665;-0.26000
5244443;-0.25500
5247221;-0.26000
5249999;-0.26500
5252776;-0.27000
5255554;-0.28500
5258332;-0.28000
5261110;-0.27500
5263887;-0.28000
5266665;-0.28000
5269443;-0.29000
5272221;-0.29500
5274999;-0.28500
5277776;-0.26500
5280554;-0.28000
5283332;-0.28000
5286110;-0.29500
5288887;-0.29500
5291665;-0.28500
5294443;-0.26500
5297221;-0.27500
5299999;-0.27500
5302776;-0.28500
5305554;-0.29000
5308332;-0.28000
5311110;-0.27500
5313887;-0.27000
5316665;-0.27500
5319443;-0.28500
5322221;-0.29500
5324999;-0.29000
5327776;-0.26500
5330554;-0.27000
5333332;-0.28000
5336110;-0.29500
5338887;-0.29500
5341665;-0.29000
5344443;-0.28000
5347221;-0.26000
5349999;-0.26000
5352776;-0.26000
5355554;-0.25500
5358332;-0.24500
5361110;-0.22500
5363887;-0.21500
5366665;-0.20500
5369443;-0.20500
5372221;-0.21000
5374998;-0.19000
5377776;-0.18000
5380554;-0.17000
5383332;-0.17500
5386110;-0.17500
5388887;-0.18000
5391665;-0.17000
5394443;-0.15000
5397221;-0.14500
5399998;-0.14500
5402776;-0.15000
5405554;-0.16500
5408332;-0.15500
5411110;-0.14500
5413887;-0.14500
5416665;-0.14500
5419443;-0.16000
5422221;-0.17500
5424998;-0.16000
5427776;-0.15500
5430554;-0.15500
5433332;-0.15000
5436110;-0.16000
5438887;-0.15000
5441665;-0.12500
5444443;-0.14000
5447221;-0.16500
5449998;-0.19000
5452776;-0.21500
5455554;-0.24000
5458332;-0.24000
5461110;-0.25000
5463887;-0.26500
5466665;-0.27000
5469443;-0.30500
5472221;-0.30500
5474998;-0.29000
5477776;-0.29000
5480554;-0.29000
5483332;-0.30000
5486110;-0.30500
5488887;-0.31500
5491665;-0.31500
5494443;-0.32000
5497221;-0.32000
5499998;-0.32000
5502776;-0.33000
5505554;-0.33500
5508332;-0.31500
5511110;-0.32500
5513887;-0.32000
5516665;-0.32000
5519443;-0.32500
5522221;-0.32500
5524998;-0.33000
5527776;-0.31500
5530554;-0.32500
5533332;-0.35000
5536110;-0.40000
5538887;-0.45000
5541665;-0.45500
5544443;-0.46500
5547221;-0.52000
5549998;-0.54000
5552776;-0.50000
5555554;-0.40000
5558332;-0.27500
5561110;-0.11500
5563887;0.07000
5566665;0.35000
5569443;0.62500
5572221;0.83000
5574998;0.94500
5577776;0.93000
5580554;0.77000
5583332;0.47500
5586110;0.14500
5588887;-0.15000
5591665;-0.36000
5594443;-0.49500
5597221;-0.53500
5599998;-0.54500
5602776;-0.52000
5605554;-0.45500
5608332;-0.40500
5611110;-0.37500
5613887;-0.38000
5616665;-0.37000
5619443;-0.38500
5622221;-0.38500
5624998;-0.39000
5627776;-0.38000
5630554;-0.38000
5633332;-0.39500
5636110;-0.39000
5638887;-0.40000
5641665;-0.39000
5644443;-0.38000
5647221;-0.37000
5649998;-0.38500
5652776;-0.38000
5655554;-0.39500
5658332;-0.39000
5661110;-0.37500
5663887;-0.39000
5666665;-0.38500
5669443;-0.38500
5672221;-0.39000
5674998;-0.38500
5677776;-0.36000
5680554;-0.36500
5683332;-0.37000
5686110;-0.37500
5688887;-0.37000
5691665;-0.37000
5694443;-0.36000
5697221;-0.36500
5699998;-0.37000
5702776;-0.37500
5705554;-0.38500
5708332;-0.37500
5711110;-0.37500
5713887;-0.36500
5716665;-0.36500
5719443;-0.37500
5722221;-0.38000
5724998;-0.38500
5727776;-0.37500
5730554;-0.37500
5733332;-0.37000
5736110;-0.37000
5738887;-0.37500
5741665;-0.37000
5744443;-0.36000
5747221;-0.35500
5749998;-0.35000
5752776;-0.34500
5755554;-0.36000
5758332;-0.36000
5761109;-0.35000
5763887;-0.35000
5766665;-0.34500
5769443;-0.36500
5772221;-0.36500
5774998;-0.36000
5777776;-0.36500
5780554;-0.35000
5783332;-0.35500
5786109;-0.36500
5788887;-0.37500
5791665;-0.38500
5794443;-0.36500
5797221;-0.36500
5799998;-0.36500
5802776;-0.37500
5805554;-0.38000
5808332;-0.37500
5811109;-0.36000
5813887;-0.38000
5816665;-0.38500
5819443;-0.38500
5822221;-0.38500
5824998;-0.38000
5827776;-0.37000
5830554;-0.36000
5833332;-0.36500
5836109;-0.37000
5838887;-0.38500
5841665;-0.37000
5844443;-0.36000
5847221;-0.35500
5849998;-0.36500
5852776;-0.37000
5855554;-0.36000
5858332;-0.34500
5861109;-0.33500
5863887;-0.32500
5866665;-0.33500
5869443;-0.32000
5872221;-0.32500
5874998;-0.31500
5877776;-0.30500
5880554;-0.29000
5883332;-0.28500
5886109;-0.30000
5888887;-0.28500
5891665;-0.27000
5894443;-0.26000
5897221;-0.24500
5899998;-0.25000
5902776;-0.26000
5905554;-0.27000
5908332;-0.25000
5911109;-0.25000
5913887;-0.26000
5916665;-0.26000
5919443;-0.26500
5922221;-0.28500
5924998;-0.27000
5927776;-0.26500
5930554;-0.27000
5933332;-0.26500
5936109;-0.27500
5938887;-0.29500
5941665;-0.28000
5944443;-0.27000
5947221;-0.27000
5949998;-0.27500
5952776;-0.28500
5955554;-0.28500
5958332;-0.28000
5961109;-0.26500
5963887;-0.26500
5966665;-0.25500
5969443;-0.26000
5972221;-0.27500
5974998;-0.27000
5977776;-0.27000
5980554;-0.26500
5983332;-0.27000
5986109;-0.28000
5988887;-0.29500
5991665;-0.28500
5994443;-0.29000
5997221;-0.29500
5999998;-0.29500
6002776;-0.30500
6005554;-0.31500
6008332;-0.31500
6011109;-0.30000
6013887;-0.29500
6016665;-0.29000
6019443;-0.31000
6022221;-0.32000
6024998;-0.31500
6027776;-0.31000
6030554;-0.31000
6033332;-0.31000
6036109;-0.32000
6038887;-0.32500
6041665;-0.31000
6044443;-0.30500
6047221;-0.30500
6049998;-0.31500
6052776;-0.33000
6055554;-0.34500
6058332;-0.34000
6061109;-0.33500
6063887;-0.34000
6066665;-0.33500
6069443;-0.33500
6072221;-0.34000
6074998;-0.33500
6077776;-0.34000
6080554;-0.33000
6083332;-0.32500
6086109;-0.34000
6088887;-0.33000
6091665;-0.33000
6094443;-0.32500
6097221;-0.32000
6099998;-0.32000
6102776;-0.32500
6105554;-0.32500
6108332;-0.31500
6111109;-0.30000
6113887;-0.30500
6116665;-0.29000
6119443;-0.31000
6122221;-0.30000
6124998;-0.29000
6127776;-0.28000
6130554;-0.27500
6133332;-0.28500
6136109;-0.28000
6138887;-0.28000
6141665;-0.25500
6144443;-0.25000
6147221;-0.24500
6149998;-0.23500
6152776;-0.22500
6155554;-0.24500
6158332;-0.22000
6161109;-0.22000
6163887;-0.21000
6166665;-0.20500
6169443;-0.21500
6172220;-0.22500
6174998;-0.23500
6177776;-0.22000
6180554;-0.21000
6183332;-0.21500
6186109;-0.21500
6188887;-0.24000
6191665;-0.22500
6194443;-0.18500
6197220;-0.17500
6199998;-0.21500
6202776;-0.26000
6205554;-0.29000
6208332;-0.29500
6211109;-0.29500
6213887;-0.31000
6216665;-0.33500
6219443;-0.36000
6222220;-0.35000
6224998;-0.34500
6227776;-0.33000
6230554;-0.34000
6233332;-0.34500
6236109;-0.36000
6238887;-0.36000
6241665;-0.36000
6244443;-0.36000
6247220;-0.36000
6249998;-0.37000
6252776;-0.38500
6255554;-0.38000
6258332;-0.36000
6261109;-0.37000
6263887;-0.35500
6266665;-0.36000
6269443;-0.38500
6272220;-0.38500
6274998;-0.38000
6277776;-0.37500
6280554;-0.38000
6283332;-0.37500
6286109;-0.39500
6288887;-0.40500
6291665;-0.41500
6294443;-0.44500
6297220;-0.47500
6299998;-0.48500
6302776;-0.50500
6305554;-0.56500
6308332;-0.59500
6311109;-0.54500
6313887;-0.44500
6316665;-0.29500
6319443;-0.14000
6322220;0.08500
6324998;0.39000
6327776;0.65500
6330554;0.83000
6333332;0.86000
6336109;0.67000
6338887;0.27500
6341665;-0.12500
6344443;-0.41000
6347220;-0.52500
6349998;-0.53500
6352776;-0.49500
6355554;-0.46000
6358332;-0.44000
6361109;-0.43500
6363887;-0.43000
6366665;-0.43000
6369443;-0.43500
6372220;-0.45500
6374998;-0.44000
6377776;-0.44000
6380554;-0.42500
6383332;-0.43000
6386109;-0.43500
6388887;-0.44000
6391665;-0.44000
6394443;-0.42500
6397220;-0.43000
6399998;-0.43500
6402776;-0.44500
6405554;-0.46000
6408332;-0.44500
6411109;-0.44000
6413887;-0.43500
6416665;-0.44500
6419443;-0.45500
6422220;-0.46000
6424998;-0.45000
6427776;-0.44000
6430554;-0.44500
6433332;-0.44500
6436109;-0.44500
6438887;-0.45500
6441665;-0.45000
6444443;-0.45000
6447220;-0.44500
6449998;-0.45500
6452776;-0.45500
6455554;-0.45500
6458332;-0.45000
6461109;-0.44500
6463887;-0.43000
6466665;-0.44500
6469443;-0.46000
6472220;-0.46500
6474998;-0.45000
6477776;-0.44500
6480554;-0.44500
6483332;-0.45000
6486109;-0.45500
6488887;-0.45000
6491665;-0.45500
6494443;-0.45000
6497220;-0.45000
6499998;-0.45000
6502776;-0.45500
6505554;-0.46500
6508332;-0.45500
6511109;-0.44000
6513887;-0.43500
6516665;-0.44000
6519443;-0.44000
6522220;-0.46500
6524998;-0.44500
6527776;-0.43500
6530554;-0.44500
6533332;-0.44000
6536109;-0.45000
6538887;-0.46000
6541665;-0.45500
6544443;-0.45000
6547220;-0.44000
6549998;-0.44500
6552776;-0.45500
6555554;-0.46500
6558331;-0.47000
6561109;-0.46500
6563887;-0.47000
6566665;-0.47500
6569443;-0.50000
6572220;-0.51000
6574998;-0.50000
6577776;-0.49500
6580554;-0.49000
6583331;-0.49000
6586109;-0.50500
6588887;-0.49000
6591665;-0.48000
6594443;-0.47000
6597220;-0.46500
6599998;-0.47000
6602776;-0.46500
6605554;-0.46500
6608331;-0.44500
6611109;-0.42000
6613887;-0.41000
6616665;-0.41500
6619443;-0.41500
6622220;-0.41000
6624998;-0.39500
6627776;-0.38500
6630554;-0.37000
6633331;-0.36500
6636109;-0.37000
6638887;-0.38500
6641665;-0.36000
6644443;-0.35500
6647220;-0.35500
6649998;-0.34500
6652776;-0.35500
6655554;-0.37000
6658331;-0.35500
6661109;-0.34000
6663887;-0.33000
6666665;-0.33000
6669443;-0.32000
6672220;-0.32500
6674998;-0.32500
6677776;-0.32000
6680554;-0.31000
6683331;-0.31500
6686109;-0.31500
6688887;-0.32500
6691665;-0.32500
6694443;-0.32500
6697220;-0.31500
6699998;-0.31500
6702776;-0.33500
6705554;-0.35500
6708331;-0.34000
6711109;-0.33000
6713887;-0.33000
6716665;-0.34000
6719443;-0.35000
6722220;-0.35000
6724998;-0.35000
6727776;-0.35500
6730554;-0.35000
6733331;-0.34000
6736109;-0.34000
6738887;-0.34500
6741665;-0.35000
6744443;-0.34000
6747220;-0.33500
6749998;-0.34000
6752776;-0.34500
6755554;-0.35000
6758331;-0.34500
6761109;-0.33500
6763887;-0.33500
6766665;-0.34000
6769443;-0.36000
6772220;-0.36000
6774998;-0.35500
6777776;-0.36000
6780554;-0.36000
6783331;-0.36500
6786109;-0.36500
6788887;-0.38500
6791665;-0.38000
6794443;-0.36500
6797220;-0.35500
6799998;-0.35500
6802776;-0.36500
6805554;-0.38000
6808331;-0.36500
6811109;-0.36000
6813887;-0.37000
6816665;-0.36500
6819443;-0.36500
6822220;-0.37500
6824998;-0.37000
6827776;-0.35000
6830554;-0.36000
6833331;-0.36500
6836109;-0.37500
6838887;-0.37500
6841665;-0.38000
6844443;-0.37000
6847220;-0.36000
6849998;-0.36000
6852776;-0.37500
6855554;-0.37500
6858331;-0.37000
6861109;-0.36500
6863887;-0.36000
6866665;-0.36500
6869443;-0.37500
6872220;-0.38500
6874998;-0.36500
6877776;-0.35000
6880554;-0.35500
6883331;-0.36000
6886109;-0.36000
6888887;-0.35000
6891665;-0.34000
6894443;-0.32000
6897220;-0.32000
6899998;-0.30500
6902776;-0.31000
6905554;-0.31000
6908331;-0.30000
6911109;-0.28000
6913887;-0.27000
6916665;-0.28000
6919443;-0.27500
6922220;-0.27000
6924998;-0.26500
6927776;-0.25000
6930554;-0.23000
6933331;-0.24000
6936109;-0.24500
6938887;-0.27000
6941665;-0.26500
6944442;-0.26000
6947220;-0.24000
6949998;-0.23500
6952776;-0.24500
6955554;-0.24000
6958331;-0.25500
6961109;-0.23000
6963887;-0.22500
6966665;-0.20500
6969442;-0.20000
6972220;-0.21500
6974998;-0.21500
6977776;-0.23500
6980554;-0.26000
6983331;-0.29000
6986109;-0.29500
6988887;-0.31500
6991665;-0.32000
6994442;-0.33000
6997220;-0.33500
6999998;-0.35500
7002776;-0.37500
7005554;-0.37500
7008331;-0.36500
7011109;-0.36500
7013887;-0.37500
7016665;-0.36500
7019442;-0.37500
7022220;-0.38500
7024998;-0.38000
7027776;-0.37000
7030554;-0.36500
7033331;-0.37500
7036109;-0.38500
7038887;-0.38500
7041665;-0.38000
7044442;-0.37500
7047220;-0.36500
7049998;-0.37000
7052776;-0.37500
7055554;-0.38500
7058331;-0.37000
7061109;-0.37000
7063887;-0.40000
7066665;-0.44000
7069442;-0.49000
7072220;-0.50500
7074998;-0.52500
7077776;-0.56000
7080554;-0.56000
7083331;-0.50500
7086109;-0.40500
7088887;-0.26000
7091665;-0.09000
7094442;0.14000
7097220;0.43000
7099998;0.70500
7102776;0.88500
7105554;0.95500
7108331;0.90500
7111109;0.66500
7113887;0.26500
7116665;-0.15000
7119442;-0.41000
7122220;-0.53000
7124998;-0.55000
7127776;-0.54500
7130554;-0.50500
7133331;-0.47000
7136109;-0.44500
7138887;-0.45500
7141665;-0.43500
7144442;-0.42500
7147220;-0.42000
7149998;-0.42000
7152776;-0.42500
7155554;-0.43000
7158331;-0.43000
7161109;-0.42000
7163887;-0.41000
7166665;-0.42000
7169442;-0.42000
7172220;-0.43000
7174998;-0.41500
7177776;-0.41000
7180554;-0.41000
7183331;-0.42000
7186109;-0.41500
7188887;-0.42500
7191665;-0.42000
7194442;-0.41500
7197220;-0.41000
7199998;-0.42000
7202776;-0.42500
7205554;-0.44000
7208331;-0.42500
7211109;-0.41500
7213887;-0.40500
7216665;-0.41000
7219442;-0.42000
7222220;-0.43000
7224998;-0.42000
7227776;-0.41500
7230554;-0.41500
7233331;-0.41500
7236109;-0.42500
7238887;-0.43500
7241665;-0.42500
7244442;-0.41000
7247220;-0.40000
7249998;-0.39500
7252776;-0.40500
7255554;-0.41500
7258331;-0.41500
7261109;-0.40500
7263887;-0.39000
7266665;-0.39500
7269442;-0.41000
7272220;-0.41500
7274998;-0.41000
7277776;-0.39000
7280554;-0.39000
7283331;-0.39000
7286109;-0.39000
7288887;-0.41000
7291665;-0.40500
7294442;-0.40000
7297220;-0.39000
7299998;-0.39500
7302776;-0.41000
7305554;-0.42000
7308331;-0.41000
7311109;-0.40000
7313887;-0.40000
7316665;-0.41000
7319442;-0.41000
7322220;-0.41500
7324998;-0.42500
7327776;-0.40500
7330554;-0.39500
7333331;-0.40500
7336109;-0.41000
7338887;-0.42000
7341665;-0.40500
7344442;-0.40000
7347220;-0.40500
7349998;-0.40500
7352776;-0.42500
7355553;-0.43000
7358331;-0.42500
7361109;-0.42500
7363887;-0.42000
7366665;-0.43000
7369442;-0.43000
7372220;-0.44000
7374998;-0.44000
7377776;-0.43000
7380553;-0.42500
7383331;-0.43000
7386109;-0.43000
7388887;-0.43000
7391665;-0.41500
7394442;-0.40000
7397220;-0.38500
7399998;-0.37000
7402776;-0.37000
7405553;-0.36500
7408331;-0.34000
7411109;-0.32000
7413887;-0.30000
7416665;-0.30000
7419442;-0.29500
7422220;-0.29000
7424998;-0.28500
7427776;-0.27500
7430553;-0.25500
7433331;-0.26000
7436109;-0.25500
7438887;-0.26500
7441665;-0.27500
7444442;-0.26000
7447220;-0.26500
7449998;-0.26000
7452776;-0.27000
7455553;-0.27000
7458331;-0.25000
7461109;-0.25000
7463887;-0.24000
7466665;-0.24500
7469442;-0.25000
7472220;-0.26000
7474998;-0.25500
7477776;-0.24500
7480553;-0.24500
7483331;-0.25000
7486109;-0.26000
7488887;-0.27000
7491665;-0.25500
7494442;-0.25500
7497220;-0.25000
7499998;-0.24000
7502776;-0.26000
7505553;-0.26000
7508331;-0.26000
7511109;-0.25000
7513887;-0.24500
7516665;-0.25000
7519442;-0.24500
7522220;-0.25500
7524998;-0.26500
7527776;-0.24500
7530553;-0.26500
7533331;-0.26000
7536109;-0.27000
7538887;-0.27500
7541665;-0.27000
7544442;-0.26500
7547220;-0.25500
7549998;-0.26500
7552776;-0.26500
7555553;-0.28500
7558331;-0.27500
7561109;-0.27000
7563887;-0.26000
7566665;-0.25000
7569442;-0.27000
7572220;-0.28500
7574998;-0.27500
7577776;-0.27500
7580553;-0.27500
7583331;-0.27000
7586109;-0.27000
7588887;-0.28000
7591665;-0.27000
7594442;-0.27000
7597220;-0.26500
7599998;-0.26500
7602776;-0.27500
7605553;-0.29000
7608331;-0.28500
7611109;-0.27500
7613887;-0.27500
7616665;-0.28000
7619442;-0.28500
7622220;-0.29500
7624998;-0.28500
7627776;-0.27000
7630553;-0.27000
7633331;-0.27500
7636109;-0.29000
7638887;-0.30000
7641665;-0.29000
7644442;-0.28000
7647220;-0.27500
7649998;-0.27000
7652776;-0.27000
7655553;-0.27500
7658331;-0.27000
7661109;-0.23500
7663887;-0.22500
7666665;-0.22500
7669442;-0.22500
7672220;-0.23500
7674998;-0.22500
7677776;-0.20500
7680553;-0.19000
7683331;-0.19500
7686109;-0.20000
7688887;-0.21000
7691665;-0.19500
7694442;-0.17500
7697220;-0.16500
7699998;-0.15000
7702776;-0.14000
7705553;-0.16000
7708331;-0.15500
7711109;-0.16500
7713887;-0.17000
7716665;-0.17500
7719442;-0.18000
7722220;-0.17500
7724998;-0.17500
7727776;-0.16000
7730553;-0.13500
7733331;-0.11500
7736109;-0.11500
7738887;-0.15000
7741664;-0.18000
7744442;-0.19500
7747220;-0.21000
7749998;-0.22000
7752776;-0.23500
7755553;-0.26500
7758331;-0.28500
7761109;-0.28000
7763887;-0.29000
7766664;-0.29000
7769442;-0.29000
7772220;-0.30500
7774998;-0.29000
7777776;-0.29500
7780553;-0.29000
7783331;-0.30000
7786109;-0.31000
7788887;-0.31000
7791664;-0.31000
7794442;-0.30500
7797220;-0.30000
7799998;-0.30000
7802776;-0.31500
7805553;-0.32000
7808331;-0.31500
7811109;-0.30500
7813887;-0.31500
7816664;-0.30500
7819442;-0.30500
7822220;-0.31500
7824998;-0.31500
7827776;-0.32000
7830553;-0.34500
7833331;-0.39000
7836109;-0.43000
7838887;-0.46500
7841664;-0.49500
7844442;-0.51500
7847220;-0.50000
7849998;-0.42000
7852776;-0.31000
7855553;-0.20500
7858331;-0.08500
7861109;0.06000
7863887;0.25500
7866664;0.50000
7869442;0.69000
7872220;0.84500
7874998;0.97000
7877776;1.03000
7880553;0.99500
7883331;0.77500
7886109;0.36000
7888887;-0.10000
7891664;-0.40500
7894442;-0.48500
7897220;-0.45000
7899998;-0.39000
7902776;-0.35500
7905553;-0.35000
7908331;-0.34500
7911109;-0.35500
7913887;-0.34500
7916664;-0.34000
7919442;-0.36000
7922220;-0.37000
7924998;-0.37000
7927776;-0.36500
7930553;-0.36000
7933331;-0.36500
7936109;-0.37500
7938887;-0.38000
7941664;-0.37000
7944442;-0.36500
7947220;-0.35500
7949998;-0.36500
7952776;-0.37000
7955553;-0.37500
7958331;-0.36500
7961109;-0.36500
7963887;-0.34500
7966664;-0.35000
7969442;-0.35500
7972220;-0.36500
7974998;-0.35500
7977776;-0.35000
7980553;-0.35000
7983331;-0.36500
7986109;-0.36500
7988887;-0.37000
7991664;-0.37500
7994442;-0.35500
7997220;-0.35500
7999998;-0.37000
8002776;-0.37500
8005553;-0.38000
8008331;-0.37500
8011109;-0.37000
8013887;-0.35000
8016664;-0.36000
8019442;-0.36500
8022220;-0.37500
8024998;-0.36000
8027776;-0.36000
8030553;-0.35500
8033331;-0.36000
8036109;-0.36000
8038887;-0.38000
8041664;-0.36000
8044442;-0.35000
8047220;-0.33500
8049998;-0.33500
8052776;-0.34500
8055553;-0.36500
8058331;-0.37000
8061109;-0.35500
8063887;-0.35000
8066664;-0.35500
8069442;-0.36500
8072220;-0.37000
8074998;-0.37500
8077776;-0.37000
8080553;-0.36500
8083331;-0.36000
8086109;-0.36500
8088887;-0.36000
8091664;-0.36500
8094442;-0.35000
8097220;-0.34500
8099998;-0.36500
8102776;-0.35500
8105553;-0.37000
8108331;-0.35500
8111109;-0.36500
8113887;-0.35000
8116664;-0.35500
8119442;-0.37000
8122220;-0.36500
8124998;-0.37500
8127776;-0.36500
8130553;-0.36000
8133331;-0.36000
8136109;-0.37000
8138887;-0.37500
8141664;-0.36000
8144442;-0.35000
8147220;-0.33500
8149998;-0.34000
8152775;-0.34000
8155553;-0.34000
8158331;-0.32000
8161109;-0.31000
8163887;-0.30000
8166664;-0.28500
8169442;-0.28000
8172220;-0.27500
8174998;-0.26500
8177775;-0.25000
8180553;-0.25500
8183331;-0.25000
8186109;-0.25000
8188887;-0.27000
8191664;-0.25500
8194442;-0.24000
8197220;-0.25000
8199998;-0.25500
8202775;-0.25500
8205553;-0.26500
8208331;-0.26000
8211109;-0.24000
8213887;-0.22500
8216664;-0.23500
8219442;-0.25000
8222220;-0.26000
8224998;-0.25000
8227775;-0.25000
8230553;-0.25000
8233331;-0.24000
8236109;-0.25000
8238887;-0.26500
8241664;-0.26000
8244442;-0.25000
8247220;-0.25500
8249998;-0.27000
8252775;-0.25500
8255553;-0.27000
8258331;-0.25500
8261109;-0.26000
8263887;-0.25500
8266664;-0.26000
8269442;-0.26500
8272220;-0.28000
8274998;-0.27500
8277775;-0.27500
8280553;-0.26500
8283331;-0.26500
8286109;-0.27500
8288887;-0.28500
8291664;-0.28000
8294442;-0.28000
8297220;-0.27000
8299998;-0.27500
8302775;-0.28000
8305553;-0.29000
8308331;-0.29000
8311109;-0.28000
8313887;-0.27000
8316664;-0.27500
8319442;-0.29500
8322220;-0.29500
8324998;-0.30500
8327775;-0.29000
8330553;-0.29000
8333331;-0.29500
8336109;-0.30500
8338887;-0.31000
8341664;-0.29500
8344442;-0.29000
8347220;-0.29500
8349998;-0.29000
8352775;-0.30000
8355553;-0.31000
8358331;-0.31000
8361109;-0.30500
8363887;-0.28000
8366664;-0.30000
8369442;-0.30500
8372220;-0.31500
8374998;-0.32000
8377775;-0.31000
8380553;-0.30500
8383331;-0.29500
8386109;-0.30500
8388887;-0.31500
8391664;-0.31000
8394442;-0.30000
8397220;-0.30000
8399998;-0.29500
8402775;-0.30000
8405553;-0.32000
8408331;-0.31500
8411109;-0.32000
8413887;-0.30500
8416664;-0.31000
8419442;-0.31000
8422220;-0.31500
8424998;-0.31500
8427775;-0.30500
8430553;-0.28500
8433331;-0.28500
8436109;-0.29500
8438887;-0.29500
8441664;-0.27500
8444442;-0.25500
8447220;-0.23500
8449998;-0.23500
8452775;-0.24000
8455553;-0.23500
8458331;-0.23000
8461109;-0.22000
8463887;-0.20500
8466664;-0.21000
8469442;-0.20000
8472220;-0.20500
8474998;-0.18500
8477775;-0.18000
8480553;-0.17000
8483331;-0.17500
8486109;-0.17000
8488887;-0.18500
8491664;-0.20000
8494442;-0.19000
8497220;-0.19500
8499998;-0.19000
8502775;-0.19000
8505553;-0.19500
8508331;-0.19000
8511109;-0.16500
8513887;-0.14000
8516664;-0.13000
8519442;-0.15000
8522220;-0.19000
8524998;-0.22500
8527775;-0.23000
8530553;-0.23500
8533331;-0.25000
8536109;-0.27500
8538886;-0.30000
8541664;-0.30000
8544442;-0.31000
8547220;-0.31500
8549998;-0.31500
8552775;-0.32000
8555553;-0.34500
8558331;-0.32500
8561109;-0.32000
8563886;-0.32500
8566664;-0.32000
8569442;-0.33000
8572220;-0.34500
8574998;-0.35000
8577775;-0.34500
8580553;-0.32000
8583331;-0.32500
8586109;-0.33500
8588886;-0.34500
8591664;-0.34000
8594442;-0.33500
8597220;-0.32000
8599998;-0.32000
8602775;-0.32500
8605553;-0.33000
8608331;-0.33000
8611109;-0.32000
8613886;-0.32000
8616664;-0.33000
8619442;-0.33500
8622220;-0.35500
8624998;-0.36000
8627775;-0.37000
8630553;-0.41500
8633331;-0.45000
8636109;-0.48000
8638886;-0.50500
8641664;-0.54000
8644442;-0.55500
8647220;-0.51000
8649998;-0.40500
8652775;-0.28000
8655553;-0.15000
8658331;0.07000
8661109;0.35500
8663886;0.62000
8666664;0.81000
8669442;0.84000
8672220;0.71500
8674998;0.38500
8677775;0.00500
8680553;-0.30500
8683331;-0.48500
8686109;-0.51000
8688886;-0.49000
8691664;-0.43500
8694442;-0.40500
8697220;-0.39500
8699998;-0.40000
8702775;-0.41000
8705553;-0.41000
8708331;-0.40000
8711109;-0.38500
8713886;-0.39500
8716664;-0.39000
8719442;-0.40500
8722220;-0.40500
8724998;-0.40000
8727775;-0.39500
8730553;-0.37500
8733331;-0.38500
8736109;-0.39000
8738886;-0.40000
8741664;-0.39500
8744442;-0.39500
8747220;-0.38000
8749998;-0.40000
8752775;-0.40000
8755553;-0.41000
8758331;-0.39500
8761109;-0.40000
8763886;-0.38500
8766664;-0.38500
8769442;-0.39500
8772220;-0.39500
8774998;-0.40000
8777775;-0.38000
8780553;-0.37500
8783331;-0.38000
8786109;-0.39000
8788886;-0.40000
8791664;-0.38000
8794442;-0.38000
8797220;-0.37500
8799998;-0.36500
8802775;-0.37000
8805553;-0.38000
8808331;-0.36500
8811109;-0.37000
8813886;-0.36000
8816664;-0.36500
8819442;-0.37500
8822220;-0.39000
8824998;-0.38500
8827775;-0.38500
8830553;-0.37500
8833331;-0.37500
8836109;-0.38500
8838886;-0.39500
8841664;-0.39000
8844442;-0.39000
8847220;-0.38000
8849998;-0.39000
8852775;-0.39500
8855553;-0.39500
8858331;-0.40000
8861109;-0.38000
8863886;-0.37500
8866664;-0.38000
8869442;-0.39000
8872220;-0.39000
8874998;-0.39000
8877775;-0.38500
8880553;-0.36500
8883331;-0.37000
8886109;-0.37500
8888886;-0.38500
8891664;-0.38500
8894442;-0.38000
8897220;-0.37500
8899998;-0.37500
8902775;-0.39000
8905553;-0.39000
8908331;-0.39500
8911109;-0.38500
8913886;-0.39000
8916664;-0.37500
8919442;-0.40000
8922220;-0.40500
8924998;-0.39500
8927775;-0.38500
8930553;-0.38000
8933331;-0.38000
8936109;-0.37000
8938886;-0.38000
8941664;-0.37500
8944442;-0.36000
8947220;-0.35500
8949997;-0.36000
8952775;-0.36000
8955553;-0.36000
8958331;-0.34500
8961109;-0.32500
8963886;-0.31500
8966664;-0.32500
8969442;-0.32000
8972220;-0.32500
8974997;-0.31500
8977775;-0.30000
8980553;-0.29500
8983331;-0.27500
8986109;-0.28500
8988886;-0.28500
8991664;-0.28500
8994442;-0.28000
8997220;-0.28000
8999997;-0.28000
9002775;-0.28000
9005553;-0.29000
9008331;-0.28000
9011109;-0.27000
9013886;-0.27500
9016664;-0.28000
9019442;-0.28000
9022220;-0.28500
9024997;-0.27500
9027775;-0.26500
9030553;-0.26000
9033331;-0.27000
9036109;-0.27000
9038886;-0.28000
9041664;-0.28000
9044442;-0.27500
9047220;-0.27000
9049997;-0.27500
9052775;-0.29000
9055553;-0.29500
9058331;-0.30000
9061109;-0.27500
9063886;-0.28000
9066664;-0.28000
9069442;-0.29000
9072220;-0.30000
9074997;-0.30000
9077775;-0.30500
9080553;-0.29000
9083331;-0.29000
9086109;-0.30500
9088886;-0.29500
9091664;-0.29000
9094442;-0.29500
9097220;-0.28500
9099997;-0.29000
9102775;-0.28500
9105553;-0.30000
9108331;-0.29000
9111109;-0.29000
9113886;-0.28500
9116664;-0.29500
9119442;-0.31000
9122220;-0.31000
9124997;-0.30000
9127775;-0.30000
9130553;-0.30000
9133331;-0.29500
9136109;-0.29000
9138886;-0.31500
9141664;-0.31500
9144442;-0.30000
9147220;-0.30000
9149997;-0.30500
9152775;-0.31500
9155553;-0.33000
9158331;-0.32500
9161109;-0.31500
9163886;-0.31000
9166664;-0.31000
9169442;-0.31500
9172220;-0.33000
9174997;-0.32500
9177775;-0.31000
9180553;-0.31000
9183331;-0.30500
9186109;-0.31000
9188886;-0.33000
9191664;-0.32000
9194442;-0.33000
9197220;-0.32000
9199997;-0.32000
9202775;-0.32500
9205553;-0.33500
9208331;-0.33500
9211109;-0.32000
9213886;-0.31500
9216664;-0.32500
9219442;-0.32500
9222220;-0.33500
9224997;-0.32000
9227775;-0.31500
9230553;-0.31000
9233331;-0.31500
9236109;-0.30500
9238886;-0.32000
9241664;-0.30500
9244442;-0.27500
9247220;-0.26500
9249997;-0.26000
9252775;-0.26500
9255553;-0.26000
9258331;-0.26000
9261109;-0.25000
9263886;-0.24500
9266664;-0.23500
9269442;-0.22500
9272220;-0.23000
9274997;-0.22500
9277775;-0.21500
9280553;-0.21000
9283331;-0.20000
9286109;-0.22000
9288886;-0.23000
9291664;-0.21500
9294442;-0.22000
9297220;-0.21500
9299997;-0.21500
9302775;-0.22500
9305553;-0.22500
9308331;-0.21500
9311109;-0.20500
9313886;-0.21000
9316664;-0.21500
9319442;-0.20500
9322220;-0.20000
9324997;-0.18000
9327775;-0.19000
9330553;-0.22000
9333331;-0.26500
9336108;-0.28000
9338886;-0.30000
9341664;-0.31000
9344442;-0.31000
9347220;-0.33000
9349997;-0.34500
9352775;-0.36000
9355553;-0.37500
9358331;-0.35500
9361108;-0.35000
9363886;-0.35500
9366664;-0.35000
9369442;-0.36500
9372220;-0.37500
9374997;-0.37000
9377775;-0.37000
9380553;-0.36000
9383331;-0.37000
9386108;-0.37500
9388886;-0.38500
9391664;-0.37000
9394442;-0.36000
9397220;-0.36500
9399997;-0.35500
9402775;-0.37000
9405553;-0.37000
9408331;-0.36500
9411108;-0.35500
9413886;-0.35000
9416664;-0.37000
9419442;-0.37500
9422220;-0.38000
9424997;-0.38000
9427775;-0.36500
9430553;-0.37000
9433331;-0.39500
9436108;-0.44000
9438886;-0.48000
9441664;-0.50000
9444442;-0.52000
9447220;-0.55000
9449997;-0.58500
9452775;-0.60000
9455553;-0.56000
9458331;-0.44500
9461108;-0.34000
9463886;-0.18500
9466664;0.01000
9469442;0.26500
9472220;0.54000
9474997;0.73000
9477775;0.81500
9480553;0.74500
9483331;0.47000
9486108;0.09000
9488886;-0.25500
9491664;-0.47000
9494442;-0.55000
9497220;-0.55000
9499997;-0.51000
9502775;-0.48000
9505553;-0.46000
9508331;-0.46000
9511108;-0.45000
9513886;-0.45500
9516664;-0.44500
9519442;-0.44500
9522220;-0.46000
9524997;-0.45000
9527775;-0.44500
9530553;-0.43500
9533331;-0.45000
9536108;-0.45000
9538886;-0.47000
9541664;-0.46000
9544442;-0.44000
9547220;-0.44000
9549997;-0.44500
9552775;-0.44500
9555553;-0.46000
9558331;-0.45000
9561108;-0.45500
9563886;-0.44500
9566664;-0.44500
9569442;-0.44500
9572220;-0.45000
9574997;-0.44000
9577775;-0.44000
9580553;-0.42500
9583331;-0.43000
9586108;-0.44000
9588886;-0.46000
9591664;-0.45500
9594442;-0.44500
9597220;-0.44000
9599997;-0.44500
9602775;-0.45500
9605553;-0.46000
9608331;-0.46500
9611108;-0.45500
9613886;-0.44500
9616664;-0.44500
9619442;-0.46000
9622220;-0.47000
9624997;-0.47500
9627775;-0.46000
9630553;-0.46500
9633331;-0.46000
9636108;-0.46500
9638886;-0.47000
9641664;-0.45500
9644442;-0.45500
9647220;-0.45500
9649997;-0.45500
9652775;-0.46000
9655553;-0.45500
9658331;-0.46000
9661108;-0.44500
9663886;-0.44000
9666664;-0.44500
9669442;-0.46000
9672220;-0.48000
9674997;-0.46000
9677775;-0.46500
9680553;-0.44000
9683331;-0.44500
9686108;-0.45000
9688886;-0.45500
9691664;-0.45500
9694442;-0.45000
9697220;-0.43000
9699997;-0.43500
9702775;-0.45000
9705553;-0.46000
9708331;-0.46500
9711108;-0.46000
9713886;-0.46000
9716664;-0.46000
9719442;-0.47000
9722220;-0.48000
9724997;-0.49000
9727775;-0.49000
9730553;-0.48000
9733331;-0.47500
9736108;-0.49000
9738886;-0.49000
9741664;-0.47500
9744442;-0.46500
9747219;-0.46500
9749997;-0.47500
9752775;-0.48500
9755553;-0.49000
9758331;-0.48500
9761108;-0.46500
9763886;-0.45500
9766664;-0.46000
9769442;-0.47000
9772219;-0.47500
9774997;-0.47000
9777775;-0.45500
9780553;-0.43500
9783331;-0.43000
9786108;-0.43500
9788886;-0.44000
9791664;-0.41000
9794442;-0.40500
9797219;-0.39000
9799997;-0.38500
9802775;-0.38500
9805553;-0.38500
9808331;-0.38000
9811108;-0.37000
9813886;-0.36500
9816664;-0.37000
9819442;-0.35500
9822219;-0.36000
9824997;-0.34500
9827775;-0.33000
9830553;-0.33500
9833331;-0.34500
9836108;-0.34500
9838886;-0.36000
9841664;-0.34000
9844442;-0.33500
9847219;-0.31500
9849997;-0.33000
9852775;-0.33500
9855553;-0.35500
9858331;-0.34000
9861108;-0.34000
9863886;-0.34000
9866664;-0.35000
9869442;-0.35500
9872219;-0.36500
9874997;-0.37000
9877775;-0.36000
9880553;-0.35500
9883331;-0.35000
9886108;-0.35000
9888886;-0.36000
9891664;-0.34500
9894442;-0.35000
9897219;-0.34500
9899997;-0.35500
9902775;-0.35500
9905553;-0.36000
9908331;-0.35500
9911108;-0.35000
9913886;-0.34500
9916664;-0.33500
9919442;-0.35000
9922219;-0.37000
9924997;-0.36500
9927775;-0.36000
9930553;-0.36000
9933331;-0.36500
9936108;-0.37000
9938886;-0.39500
9941664;-0.38500
9944442;-0.37500
9947219;-0.37500
9949997;-0.36500
9952775;-0.38000
9955553;-0.38000
9958331;-0.37500
9961108;-0.35500
9963886;-0.36000
9966664;-0.36500
9969442;-0.38500
9972219;-0.41000
9974997;-0.39000
9977775;-0.39000
9980553;-0.38000
9983331;-0.38500
9986108;-0.39000
9988886;-0.40000
9991664;-0.39500
9994442;-0.39000
9997219;-0.39500
9999997;-0.39000
10002775;-0.40000
10005553;-0.40000
10008331;-0.40000
10011108;-0.39000
10013886;-0.39500
10016664;-0.39500
10019442;-0.40500
10022219;-0.42000
10024997;-0.39500
10027775;-0.40000
10030553;-0.39500
10033331;-0.39000
10036108;-0.40000
10038886;-0.42000
10041664;-0.40000
10044442;-0.39500
10047219;-0.38500
10049997;-0.39500
10052775;-0.40000
10055553;-0.40000
10058331;-0.38000
10061108;-0.37500
10063886;-0.38000
10066664;-0.37500
10069442;-0.39000
10072219;-0.40500
10074997;-0.40000
10077775;-0.38500
10080553;-0.36500
10083331;-0.36500
10086108;-0.37500
10088886;-0.37500
10091664;-0.37000
10094442;-0.36500
10097219;-0.34000
10099997;-0.33000
10102775;-0.32500
10105553;-0.33000
10108331;-0.33500
10111108;-0.32500
10113886;-0.30500
10116664;-0.29500
10119442;-0.29500
10122219;-0.29500
10124997;-0.28500
10127775;-0.27500
10130553;-0.27500
10133330;-0.28000
10136108;-0.28500
10138886;-0.30000
10141664;-0.28500
10144442;-0.28000
10147219;-0.28000
10149997;-0.30000
10152775;-0.30000
10155553;-0.31500
10158330;-0.30000
10161108;-0.29500
10163886;-0.28500
10166664;-0.29000
10169442;-0.27000
10172219;-0.27500
10174997;-0.29000
10177775;-0.30500
10180553;-0.32000
10183330;-0.33500
10186108;-0.36500
10188886;-0.37000
10191664;-0.39000
10194442;-0.40000
10197219;-0.39500
10199997;-0.41000
10202775;-0.42500
10205553;-0.43000
10208330;-0.44000
10211108;-0.41500
10213886;-0.41000
10216664;-0.42500
10219442;-0.43500
10222219;-0.44000
10224997;-0.43500
10227775;-0.44000
10230553;-0.43000
10233330;-0.45000
10236108;-0.45000
10238886;-0.45500
10241664;-0.45000
10244442;-0.44500
10247219;-0.43500
10249997;-0.43500
10252775;-0.44000
10255553;-0.44500
10258330;-0.44000
10261108;-0.44500
10263886;-0.44000
10266664;-0.46500
10269442;-0.49500
10272219;-0.53500
10274997;-0.55000
10277775;-0.56500
10280553;-0.58000
10283330;-0.64500
10286108;-0.68000
10288886;-0.67500
10291664;-0.61500
10294442;-0.53000
10297219;-0.43500
10299997;-0.33000
10302775;-0.25500
10305553;-0.14000
10308330;0.06500
10311108;0.31000
10313886;0.54000
10316664;0.71000
10319442;0.82500
10322219;0.86500
10324997;0.77000
10327775;0.48500
10330553;0.08000
10333330;-0.29000
10336108;-0.52000
10338886;-0.60000
10341664;-0.60500
10344442;-0.56000
10347219;-0.52000
10349997;-0.49500
10352775;-0.50500
10355553;-0.51000
10358330;-0.50000
10361108;-0.49000
10363886;-0.49500
10366664;-0.48500
10369442;-0.49000
10372219;-0.51000
10374997;-0.49500
10377775;-0.49500
10380553;-0.49000
10383330;-0.50500
10386108;-0.51500
10388886;-0.52000
10391664;-0.51000
10394442;-0.50500
10397219;-0.50500
10399997;-0.49000
10402775;-0.50000
10405553;-0.50500
10408330;-0.50000
10411108;-0.49500
10413886;-0.49500
10416664;-0.49500
10419442;-0.50500
10422219;-0.50500
10424997;-0.50500
10427775;-0.50000
10430553;-0.49500
10433330;-0.48500
10436108;-0.50000
10438886;-0.50500
10441664;-0.51000
10444442;-0.50000
10447219;-0.49500
10449997;-0.49000
10452775;-0.50000
10455553;-0.50500
10458330;-0.49500
10461108;-0.48500
10463886;-0.48500
10466664;-0.49000
10469442;-0.48500
10472219;-0.50000
10474997;-0.49000
10477775;-0.49000
10480553;-0.48500
10483330;-0.47500
10486108;-0.48500
10488886;-0.49500
10491664;-0.49500
10494442;-0.49000
10497219;-0.49500
10499997;-0.49500
10502775;-0.50000
10505553;-0.50500
10508330;-0.51000
10511108;-0.49000
10513886;-0.49000
10516664;-0.49000
10519441;-0.49500
10522219;-0.50000
10524997;-0.49000
10527775;-0.48500
10530553;-0.47500
10533330;-0.49000
10536108;-0.49000
10538886;-0.49000
10541664;-0.49500
10544441;-0.48000
10547219;-0.48000
10549997;-0.48500
10552775;-0.49500
10555553;-0.50500
10558330;-0.49500
10561108;-0.49500
10563886;-0.50500
10566664;-0.50500
10569441;-0.52000
10572219;-0.53000
10574997;-0.52500
10577775;-0.52500
10580553;-0.51500
10583330;-0.53000
10586108;-0.53000
