time_ms;ecg_value
0;-0.50500
2778;-0.55000
5556;-0.58500
8333;-0.60000
11111;-0.55500
13889;-0.45000
16667;-0.30000
19444;-0.15000
22222;0.01500
25000;0.20000
27778;0.41000
30556;0.60000
33333;0.77000
36111;0.91500
38889;1.01000
41667;1.03500
44444;0.92500
47222;0.64000
50000;0.24000
52778;-0.15000
55556;-0.39000
58333;-0.48500
61111;-0.51500
63889;-0.52000
66667;-0.47500
69444;-0.43000
72222;-0.40500
75000;-0.41000
77778;-0.42000
80556;-0.43500
83333;-0.44500
86111;-0.42500
88889;-0.43000
91667;-0.43500
94444;-0.43000
97222;-0.45000
100000;-0.43000
102778;-0.42000
105556;-0.42500
108333;-0.43500
111111;-0.44500
113889;-0.44500
116667;-0.44500
119444;-0.44500
122222;-0.43500
125000;-0.43500
127778;-0.43500
130556;-0.46000
133333;-0.45500
136111;-0.45500
138889;-0.44000
141667;-0.45000
144444;-0.44500
147222;-0.46500
150000;-0.46000
152778;-0.44500
155556;-0.43500
158333;-0.43500
161111;-0.44500
163889;-0.46000
166667;-0.45500
169444;-0.44500
172222;-0.43500
175000;-0.43500
177778;-0.44500
180556;-0.45500
183333;-0.45000
186111;-0.44000
188889;-0.43000
191667;-0.42500
194444;-0.44000
197222;-0.45500
200000;-0.45000
202778;-0.43500
205555;-0.43000
208333;-0.44000
211111;-0.43500
213889;-0.45000
216667;-0.45000
219444;-0.44500
222222;-0.43500
225000;-0.43000
227778;-0.44000
230555;-0.45500
233333;-0.46000
236111;-0.45000
238889;-0.43000
241667;-0.44500
244444;-0.44500
247222;-0.45500
250000;-0.45000
252778;-0.45500
255555;-0.44500
258333;-0.44000
261111;-0.47000
263889;-0.48000
266667;-0.47500
269444;-0.48000
272222;-0.46500
275000;-0.46500
277778;-0.48500
280555;-0.50000
283333;-0.50500
286111;-0.50000
288889;-0.49000
291667;-0.49500
294444;-0.49500
297222;-0.50500
300000;-0.52000
302778;-0.50000
305555;-0.49500
308333;-0.49000
311111;-0.50000
313889;-0.51000
316667;-0.49000
319444;-0.47000
322222;-0.46000
325000;-0.45500
327778;-0.44500
330555;-0.44000
333333;-0.43000
336111;-0.41000
338889;-0.38500
341667;-0.37500
344444;-0.36500
347222;-0.37000
350000;-0.34500
352778;-0.31500
355555;-0.31000
358333;-0.30000
361111;-0.31000
363889;-0.31000
366667;-0.30500
369444;-0.30000
372222;-0.28000
375000;-0.29000
377778;-0.30000
380555;-0.30000
383333;-0.28500
386111;-0.28500
388889;-0.28500
391667;-0.28500
394444;-0.27500
397222;-0.30000
400000;-0.30000
402778;-0.30000
405555;-0.28000
408333;-0.28500
411111;-0.29500
413889;-0.31000
416667;-0.29500
419444;-0.29000
422222;-0.29000
425000;-0.28500
427778;-0.29500
430555;-0.31000
433333;-0.29500
436111;-0.29500
438889;-0.28500
441667;-0.29500
444444;-0.29500
447222;-0.30000
450000;-0.29500
452778;-0.29500
455555;-0.29000
458333;-0.29000
461111;-0.29500
463889;-0.30500
466667;-0.31000
469444;-0.28500
472222;-0.29000
475000;-0.29500
477778;-0.30500
480555;-0.32000
483333;-0.32000
486111;-0.31500
488889;-0.31500
491667;-0.31000
494444;-0.32000
497222;-0.33000
500000;-0.31500
502778;-0.32500
505555;-0.30000
508333;-0.30000
511111;-0.30500
513889;-0.31500
516667;-0.30500
519444;-0.31000
522222;-0.30000
525000;-0.29500
527778;-0.31500
530555;-0.31500
533333;-0.32000
536111;-0.31500
538889;-0.31500
541667;-0.30000
544444;-0.30500
547222;-0.32000
550000;-0.31500
552778;-0.31000
555555;-0.30000
558333;-0.29000
561111;-0.31500
563889;-0.33000
566667;-0.32000
569444;-0.31500
572222;-0.30000
575000;-0.31000
577778;-0.31500
580555;-0.32500
583333;-0.32000
586111;-0.32000
588889;-0.30000
591667;-0.30000
594444;-0.30500
597222;-0.31000
600000;-0.30000
602778;-0.29500
605555;-0.29000
608333;-0.28000
611111;-0.29000
613889;-0.29000
616666;-0.30000
619444;-0.28500
622222;-0.28500
625000;-0.28500
627778;-0.28000
630555;-0.29500
633333;-0.27500
636111;-0.26000
638889;-0.24000
641666;-0.24000
644444;-0.25000
647222;-0.24000
650000;-0.25000
652778;-0.22500
655555;-0.20000
658333;-0.19500
661111;-0.19500
663889;-0.20500
666666;-0.20000
669444;-0.18000
672222;-0.17000
675000;-0.18500
677778;-0.18500
680555;-0.20000
683333;-0.20500
686111;-0.19000
688889;-0.19500
691666;-0.20500
694444;-0.21000
697222;-0.21500
700000;-0.22000
702778;-0.21500
705555;-0.22000
708333;-0.21500
711111;-0.20500
713889;-0.20500
716666;-0.19000
719444;-0.20500
722222;-0.23500
725000;-0.25000
727778;-0.27500
730555;-0.29500
733333;-0.30500
736111;-0.30000
738889;-0.29500
741666;-0.31000
744444;-0.32000
747222;-0.33500
750000;-0.32500
752778;-0.31000
755555;-0.30500
758333;-0.30500
761111;-0.32000
763889;-0.34000
766666;-0.33000
769444;-0.32000
772222;-0.32000
775000;-0.33000
777778;-0.34000
780555;-0.34500
783333;-0.34500
786111;-0.32500
788889;-0.32000
791666;-0.33000
794444;-0.33500
797222;-0.35000
800000;-0.37000
802778;-0.40500
805555;-0.44000
808333;-0.46500
811111;-0.48000
813889;-0.53000
816666;-0.55000
819444;-0.53500
822222;-0.47500
825000;-0.35500
827778;-0.23000
830555;-0.09000
833333;0.06000
836111;0.26000
838889;0.49500
841666;0.74500
844444;0.95500
847222;1.08000
850000;1.11000
852778;0.98500
855555;0.64500
858333;0.13500
861111;-0.27000
863889;-0.44500
866666;-0.43500
869444;-0.37500
872222;-0.31000
875000;-0.32000
877778;-0.34500
880555;-0.36000
883333;-0.35500
886111;-0.35000
888889;-0.34000
891666;-0.35000
894444;-0.35000
897222;-0.36500
900000;-0.36500
902778;-0.35500
905555;-0.35500
908333;-0.34500
911111;-0.34500
913889;-0.36500
916666;-0.35500
919444;-0.35000
922222;-0.34500
925000;-0.35500
927778;-0.36500
930555;-0.38500
933333;-0.38000
936111;-0.36500
938889;-0.35500
941666;-0.34500
944444;-0.35500
947222;-0.37500
950000;-0.37000
952778;-0.36500
955555;-0.34500
958333;-0.35000
961111;-0.35500
963889;-0.36000
966666;-0.36500
969444;-0.34500
972222;-0.35000
975000;-0.35500
977778;-0.35000
980555;-0.36000
983333;-0.36000
986111;-0.35000
988889;-0.34500
991666;-0.35500
994444;-0.36500
997222;-0.36500
1000000;-0.37500
1002777;-0.37000
1005555;-0.35500
1008333;-0.35500
1011111;-0.37000
1013889;-0.36500
1016666;-0.36500
1019444;-0.35500
1022222;-0.34500
1025000;-0.35500
1027777;-0.36000
1030555;-0.37000
1033333;-0.36000
1036111;-0.35000
1038889;-0.35000
1041666;-0.35500
1044444;-0.36000
1047222;-0.37000
1050000;-0.36500
1052777;-0.36000
1055555;-0.35000
1058333;-0.36000
1061111;-0.36000
1063889;-0.38000
1066666;-0.37000
1069444;-0.37000
1072222;-0.37000
1075000;-0.37000
1077777;-0.37000
1080555;-0.39500
1083333;-0.38500
1086111;-0.38000
1088889;-0.38000
1091666;-0.37500
1094444;-0.37500
1097222;-0.38500
1100000;-0.38500
1102777;-0.37500
1105555;-0.36000
1108333;-0.35500
1111111;-0.36000
1113889;-0.37000
1116666;-0.36500
1119444;-0.34500
1122222;-0.33000
1125000;-0.32500
1127777;-0.31000
1130555;-0.32000
1133333;-0.30500
1136111;-0.28000
1138889;-0.26500
1141666;-0.25500
1144444;-0.26000
1147222;-0.26500
1150000;-0.25000
1152777;-0.23500
1155555;-0.22000
1158333;-0.22500
1161111;-0.22000
1163889;-0.23500
1166666;-0.23000
1169444;-0.21500
1172222;-0.22000
1175000;-0.21500
1177777;-0.22500
1180555;-0.22500
1183333;-0.23000
1186111;-0.21000
1188889;-0.19500
1191666;-0.20000
1194444;-0.20500
1197222;-0.21000
1200000;-0.21000
1202777;-0.20000
1205555;-0.20000
1208333;-0.20500
1211111;-0.21500
1213889;-0.21500
1216666;-0.21000
1219444;-0.21500
1222222;-0.20500
1225000;-0.21500
1227777;-0.21000
1230555;-0.22500
1233333;-0.23000
1236111;-0.22500
1238889;-0.21500
1241666;-0.23000
1244444;-0.24000
1247222;-0.24500
1250000;-0.24000
1252777;-0.25500
1255555;-0.25000
1258333;-0.23000
1261111;-0.24000
1263889;-0.24500
1266666;-0.24500
1269444;-0.23500
1272222;-0.23500
1275000;-0.24000
1277777;-0.24500
1280555;-0.25500
1283333;-0.25000
1286111;-0.25000
1288889;-0.23500
1291666;-0.23000
1294444;-0.25000
1297222;-0.27000
1300000;-0.25500
1302777;-0.25500
1305555;-0.25500
1308333;-0.24000
1311111;-0.25500
1313889;-0.26500
1316666;-0.26500
1319444;-0.25500
1322222;-0.25000
1325000;-0.25500
1327777;-0.26500
1330555;-0.28000
1333333;-0.27500
1336111;-0.27000
1338889;-0.25000
1341666;-0.24500
1344444;-0.25500
1347222;-0.26500
1350000;-0.27000
1352777;-0.25500
1355555;-0.25000
1358333;-0.25000
1361111;-0.25000
1363889;-0.27000
1366666;-0.25500
1369444;-0.25500
1372222;-0.25500
1375000;-0.25500
1377777;-0.25500
1380555;-0.27000
1383333;-0.27000
1386111;-0.24500
1388888;-0.24000
1391666;-0.24000
1394444;-0.25500
1397222;-0.25500
1400000;-0.25000
1402777;-0.25000
1405555;-0.23500
1408333;-0.23500
1411111;-0.23500
1413888;-0.22500
1416666;-0.20500
1419444;-0.19000
1422222;-0.17500
1425000;-0.17500
1427777;-0.17500
1430555;-0.18500
1433333;-0.17500
1436111;-0.17000
1438888;-0.15500
1441666;-0.15000
1444444;-0.15000
1447222;-0.15500
1450000;-0.15500
1452777;-0.16000
1455555;-0.15000
1458333;-0.16000
1461111;-0.16000
1463888;-0.17000
1466666;-0.16500
1469444;-0.15500
1472222;-0.16000
1475000;-0.16000
1477777;-0.15500
1480555;-0.14500
1483333;-0.11500
1486111;-0.12000
1488888;-0.14500
1491666;-0.17000
1494444;-0.19500
1497222;-0.21500
1500000;-0.22500
1502777;-0.24500
1505555;-0.24000
1508333;-0.24000
1511111;-0.25000
1513888;-0.26500
1516666;-0.27000
1519444;-0.28000
1522222;-0.27500
1525000;-0.26000
1527777;-0.27000
1530555;-0.27000
1533333;-0.27500
1536111;-0.26500
1538888;-0.26000
1541666;-0.26500
1544444;-0.27000
1547222;-0.27500
1550000;-0.28000
1552777;-0.26500
1555555;-0.26500
1558333;-0.26000
1561111;-0.27000
1563888;-0.28500
1566666;-0.27000
1569444;-0.27500
1572222;-0.28500
1575000;-0.30500
1577777;-0.36000
1580555;-0.41000
1583333;-0.43500
1586111;-0.45500
1588888;-0.47500
1591666;-0.48000
1594444;-0.41500
1597222;-0.29500
1600000;-0.10500
1602777;0.08500
1605555;0.31000
1608333;0.60000
1611111;0.86000
1613888;1.03500
1616666;1.07500
1619444;0.96000
1622222;0.63000
1625000;0.16000
1627777;-0.22500
1630555;-0.40500
1633333;-0.42000
1636111;-0.35000
1638888;-0.30000
1641666;-0.30000
1644444;-0.30500
1647222;-0.32000
1650000;-0.31500
1652777;-0.30500
1655555;-0.29500
1658333;-0.29000
1661111;-0.30000
1663888;-0.33000
1666666;-0.32500
1669444;-0.32500
1672222;-0.31500
1675000;-0.30500
1677777;-0.31500
1680555;-0.33000
1683333;-0.32000
1686111;-0.32500
1688888;-0.31500
1691666;-0.31000
1694444;-0.31500
1697222;-0.33000
1700000;-0.34000
1702777;-0.31500
1705555;-0.32000
1708333;-0.31500
1711111;-0.32500
1713888;-0.34000
1716666;-0.33000
1719444;-0.33500
1722222;-0.31500
1725000;-0.31500
1727777;-0.31500
1730555;-0.33000
1733333;-0.33000
1736111;-0.31500
1738888;-0.30500
1741666;-0.30500
1744444;-0.31000
1747222;-0.32500
1750000;-0.32000
1752777;-0.30500
1755555;-0.31000
1758333;-0.31000
1761111;-0.31500
1763888;-0.32500
1766666;-0.32000
1769444;-0.31000
1772222;-0.30500
1775000;-0.31000
1777777;-0.33000
1780555;-0.32500
1783333;-0.33500
1786111;-0.32500
1788888;-0.31500
1791666;-0.32500
1794444;-0.32000
1797222;-0.34000
1799999;-0.33000
1802777;-0.31500
1805555;-0.32000
1808333;-0.31000
1811111;-0.32500
1813888;-0.32500
1816666;-0.31000
1819444;-0.31500
1822222;-0.30500
1824999;-0.31500
1827777;-0.30500
1830555;-0.31500
1833333;-0.31500
1836111;-0.31500
1838888;-0.30500
1841666;-0.30500
1844444;-0.31000
1847222;-0.32000
1849999;-0.33000
1852777;-0.31500
1855555;-0.31500
1858333;-0.30500
1861111;-0.32000
1863888;-0.32000
1866666;-0.33500
1869444;-0.33500
1872222;-0.33000
1874999;-0.33000
1877777;-0.32500
1880555;-0.34000
1883333;-0.32000
1886111;-0.31500
1888888;-0.31000
1891666;-0.30500
1894444;-0.30500
1897222;-0.31500
1899999;-0.29500
1902777;-0.28500
1905555;-0.26000
1908333;-0.25500
1911111;-0.25000
1913888;-0.24000
1916666;-0.24000
1919444;-0.21500
1922222;-0.20000
1924999;-0.20000
1927777;-0.20500
1930555;-0.21000
1933333;-0.20500
1936111;-0.19500
1938888;-0.19000
1941666;-0.17500
1944444;-0.18000
1947222;-0.19500
1949999;-0.19000
1952777;-0.18000
1955555;-0.16500
1958333;-0.16500
1961111;-0.16500
1963888;-0.17500
1966666;-0.18000
1969444;-0.16500
1972222;-0.16000
1974999;-0.17500
1977777;-0.17000
1980555;-0.19000
1983333;-0.19500
1986111;-0.18500
1988888;-0.18000
1991666;-0.17500
1994444;-0.18500
1997222;-0.19000
1999999;-0.18000
2002777;-0.19000
2005555;-0.17500
2008333;-0.18500
2011111;-0.19000
2013888;-0.21000
2016666;-0.21000
2019444;-0.19500
2022222;-0.18500
2024999;-0.20000
2027777;-0.20000
2030555;-0.21000
2033333;-0.21500
2036111;-0.22000
2038888;-0.21000
2041666;-0.23000
2044444;-0.24000
2047222;-0.24500
2049999;-0.24000
2052777;-0.23500
2055555;-0.22000
2058333;-0.23000
2061111;-0.23500
2063888;-0.24000
2066666;-0.24000
2069444;-0.23500
2072222;-0.23000
2074999;-0.22500
2077777;-0.24000
2080555;-0.25000
2083333;-0.24500
2086111;-0.23000
2088888;-0.23000
2091666;-0.23000
2094444;-0.24000
2097222;-0.25000
2099999;-0.24500
2102777;-0.24000
2105555;-0.24500
2108333;-0.23500
2111111;-0.24500
2113888;-0.25000
2116666;-0.25000
2119444;-0.24500
2122222;-0.23500
2124999;-0.24000
2127777;-0.24500
2130555;-0.25000
2133333;-0.24500
2136111;-0.24000
2138888;-0.23000
2141666;-0.23000
2144444;-0.23000
2147222;-0.24500
2149999;-0.24000
2152777;-0.23000
2155555;-0.22000
2158333;-0.22000
2161111;-0.22500
2163888;-0.24000
2166666;-0.24000
2169444;-0.23000
2172222;-0.22000
2174999;-0.22500
2177777;-0.23500
2180555;-0.25000
2183333;-0.24500
2186110;-0.24500
2188888;-0.22500
2191666;-0.21500
2194444;-0.23000
2197222;-0.22000
2199999;-0.21000
2202777;-0.17500
2205555;-0.16500
2208333;-0.16000
2211110;-0.16500
2213888;-0.15500
2216666;-0.16000
2219444;-0.13500
2222222;-0.12500
2224999;-0.12500
2227777;-0.12500
2230555;-0.12000
2233333;-0.12000
2236110;-0.11000
2238888;-0.11500
2241666;-0.12000
2244444;-0.14500
2247222;-0.16000
2249999;-0.16000
2252777;-0.14500
2255555;-0.15000
2258333;-0.15500
2261110;-0.16000
2263888;-0.15000
2266666;-0.12500
2269444;-0.10500
2272222;-0.12500
2274999;-0.14500
2277777;-0.17000
2280555;-0.20000
2283333;-0.21500
2286110;-0.21500
2288888;-0.20000
2291666;-0.22500
2294444;-0.23500
2297222;-0.25500
2299999;-0.26500
2302777;-0.25000
2305555;-0.24000
2308333;-0.25000
2311110;-0.26000
2313888;-0.27000
2316666;-0.27500
2319444;-0.28000
2322222;-0.24500
2324999;-0.24500
2327777;-0.25500
2330555;-0.27000
2333333;-0.25500
2336110;-0.26000
2338888;-0.25500
2341666;-0.25500
2344444;-0.25500
2347222;-0.27000
2349999;-0.28000
2352777;-0.28000
2355555;-0.28000
2358333;-0.31500
2361110;-0.35500
2363888;-0.40000
2366666;-0.42000
2369444;-0.44000
2372222;-0.46500
2374999;-0.54000
2377777;-0.57000
2380555;-0.56500
2383333;-0.53500
2386110;-0.46500
2388888;-0.39500
2391666;-0.30000
2394444;-0.20500
2397222;-0.08500
2399999;0.08000
2402777;0.31500
2405555;0.60500
2408333;0.85500
2411110;0.99000
2413888;1.00500
2416666;0.81500
2419444;0.44500
2422222;0.04500
2424999;-0.27500
2427777;-0.39000
2430555;-0.38000
2433333;-0.32000
2436110;-0.28500
2438888;-0.27500
2441666;-0.28500
2444444;-0.30000
2447222;-0.30500
2449999;-0.30000
2452777;-0.29000
2455555;-0.28000
2458333;-0.29500
2461110;-0.30000
2463888;-0.30500
2466666;-0.32000
2469444;-0.30500
2472222;-0.29500
2474999;-0.30000
2477777;-0.30000
2480555;-0.30500
2483333;-0.31000
2486110;-0.29500
2488888;-0.28000
2491666;-0.28500
2494444;-0.28500
2497222;-0.31000
2499999;-0.30000
2502777;-0.29000
2505555;-0.28500
2508333;-0.28500
2511110;-0.29000
2513888;-0.30000
2516666;-0.30500
2519444;-0.30000
2522222;-0.29500
2524999;-0.29000
2527777;-0.30000
2530555;-0.31000
2533333;-0.31000
2536110;-0.30000
2538888;-0.28000
2541666;-0.29000
2544444;-0.28500
2547222;-0.28500
2549999;-0.29500
2552777;-0.28500
2555555;-0.28000
2558333;-0.27500
2561110;-0.29000
2563888;-0.29500
2566666;-0.29500
2569444;-0.29500
2572222;-0.27500
2574999;-0.27500
2577777;-0.28500
2580555;-0.29500
2583333;-0.29500
2586110;-0.28000
2588888;-0.26500
2591666;-0.27500
2594444;-0.29000
2597221;-0.29500
2599999;-0.30500
2602777;-0.30000
2605555;-0.28500
2608333;-0.29500
2611110;-0.31500
2613888;-0.31500
2616666;-0.31500
2619444;-0.31500
2622221;-0.29500
2624999;-0.29500
2627777;-0.29500
2630555;-0.31000
2633333;-0.31000
2636110;-0.31000
2638888;-0.29500
2641666;-0.30000
2644444;-0.31000
2647221;-0.32000
2649999;-0.32000
2652777;-0.31000
2655555;-0.30000
2658333;-0.29000
2661110;-0.29500
2663888;-0.31500
2666666;-0.31000
2669444;-0.31000
2672221;-0.29500
2674999;-0.29500
2677777;-0.31500
2680555;-0.30000
2683333;-0.30500
2686110;-0.30500
2688888;-0.29500
2691666;-0.30500
2694444;-0.31000
2697221;-0.32500
2699999;-0.32000
2702777;-0.31000
2705555;-0.29500
2708333;-0.28500
2711110;-0.30000
2713888;-0.29000
2716666;-0.27500
2719444;-0.24500
2722221;-0.22000
2724999;-0.21500
2727777;-0.22000
2730555;-0.22000
2733333;-0.22000
2736110;-0.20000
2738888;-0.17500
2741666;-0.18000
2744444;-0.19500
2747221;-0.19500
2749999;-0.20000
2752777;-0.18500
2755555;-0.17500
2758333;-0.18000
2761110;-0.19000
2763888;-0.21500
2766666;-0.22000
2769444;-0.22000
2772221;-0.20000
2774999;-0.20000
2777777;-0.20500
2780555;-0.20500
2783333;-0.21000
2786110;-0.19500
2788888;-0.19000
2791666;-0.19500
2794444;-0.20500
2797221;-0.22500
2799999;-0.20500
2802777;-0.20500
2805555;-0.19000
2808333;-0.18500
2811110;-0.20000
2813888;-0.21000
2816666;-0.21500
2819444;-0.21500
2822221;-0.21500
2824999;-0.23000
2827777;-0.22500
2830555;-0.24000
2833333;-0.24500
2836110;-0.23000
2838888;-0.22000
2841666;-0.22500
2844444;-0.23500
2847221;-0.24000
2849999;-0.24500
2852777;-0.25500
2855555;-0.25000
2858333;-0.25000
2861110;-0.26000
2863888;-0.28000
2866666;-0.26500
2869444;-0.25000
2872221;-0.24500
2874999;-0.25000
2877777;-0.26000
2880555;-0.28000
2883333;-0.28000
2886110;-0.27000
2888888;-0.27000
2891666;-0.26500
2894444;-0.26500
2897221;-0.28500
2899999;-0.28000
2902777;-0.27000
2905555;-0.25500
2908333;-0.26500
2911110;-0.27000
2913888;-0.27500
2916666;-0.28500
2919444;-0.28000
2922221;-0.27000
2924999;-0.27000
2927777;-0.28000
2930555;-0.28500
2933333;-0.29000
2936110;-0.28000
2938888;-0.27000
2941666;-0.27000
2944444;-0.27000
2947221;-0.27500
2949999;-0.27000
2952777;-0.27500
2955555;-0.25500
2958333;-0.27000
2961110;-0.28000
2963888;-0.28500
2966666;-0.28500
2969444;-0.26000
2972221;-0.24500
2974999;-0.24000
2977777;-0.24500
2980555;-0.23500
2983332;-0.24000
2986110;-0.22500
2988888;-0.21500
2991666;-0.22000
2994444;-0.21500
2997221;-0.22000
2999999;-0.22500
3002777;-0.21500
3005555;-0.19000
3008332;-0.19000
3011110;-0.19000
3013888;-0.19000
3016666;-0.17500
3019444;-0.17000
3022221;-0.15500
3024999;-0.16500
3027777;-0.17500
3030555;-0.17500
3033332;-0.19500
3036110;-0.19000
3038888;-0.18000
3041666;-0.18000
3044444;-0.19500
3047221;-0.20500
3049999;-0.21500
3052777;-0.19000
3055555;-0.18000
3058332;-0.17000
3061110;-0.19000
3063888;-0.22500
3066666;-0.24500
3069444;-0.26000
3072221;-0.26500
3074999;-0.28500
3077777;-0.29500
3080555;-0.29500
3083332;-0.30500
3086110;-0.29000
3088888;-0.29000
3091666;-0.29500
3094444;-0.30500
3097221;-0.31500
3099999;-0.31500
3102777;-0.31000
3105555;-0.29000
3108332;-0.31000
3111110;-0.31500
3113888;-0.31500
3116666;-0.32500
3119444;-0.32500
3122221;-0.31000
3124999;-0.32000
3127777;-0.32000
3130555;-0.33500
3133332;-0.34500
3136110;-0.33000
3138888;-0.32500
3141666;-0.33000
3144444;-0.36000
3147221;-0.39500
3149999;-0.41000
3152777;-0.41000
3155555;-0.42500
3158332;-0.48500
3161110;-0.51500
3163888;-0.50500
3166666;-0.42000
3169444;-0.28500
3172221;-0.14500
3174999;0.00000
3177777;0.17500
3180555;0.39500
3183332;0.61000
3186110;0.80000
3188888;0.92500
3191666;1.03000
3194444;1.05500
3197221;0.95500
3199999;0.76500
3202777;0.47500
3205555;0.16500
3208332;-0.11000
3211110;-0.31500
3213888;-0.43500
3216666;-0.46500
3219444;-0.44500
3222221;-0.41000
3224999;-0.37000
3227777;-0.36500
3230555;-0.37500
3233332;-0.37500
3236110;-0.37000
3238888;-0.35000
3241666;-0.35500
3244444;-0.36000
3247221;-0.37000
3249999;-0.37000
3252777;-0.37000
3255555;-0.37000
3258332;-0.38000
3261110;-0.39000
3263888;-0.40000
3266666;-0.39500
3269444;-0.39000
3272221;-0.36500
3274999;-0.39000
3277777;-0.39500
3280555;-0.39500
3283332;-0.39000
3286110;-0.38500
3288888;-0.37500
3291666;-0.39500
3294444;-0.41000
3297221;-0.42000
3299999;-0.41500
3302777;-0.39000
3305555;-0.37000
3308332;-0.39500
3311110;-0.38500
3313888;-0.39000
3316666;-0.40000
3319444;-0.40000
3322221;-0.39500
3324999;-0.41500
3327777;-0.39500
3330555;-0.40000
3333332;-0.41000
3336110;-0.39500
3338888;-0.38000
3341666;-0.39000
3344444;-0.39500
3347221;-0.41500
3349999;-0.41000
3352777;-0.39500
3355555;-0.38500
3358332;-0.40000
3361110;-0.41000
3363888;-0.42500
3366666;-0.42000
3369444;-0.40500
3372221;-0.39500
3374999;-0.40500
3377777;-0.43000
3380555;-0.44500
3383332;-0.44000
3386110;-0.40500
3388888;-0.39500
3391666;-0.39000
3394443;-0.39500
3397221;-0.40000
3399999;-0.40500
3402777;-0.41000
3405555;-0.39500
3408332;-0.40000
3411110;-0.41000
3413888;-0.43500
3416666;-0.42000
3419443;-0.42000
3422221;-0.40500
3424999;-0.42000
3427777;-0.42500
3430555;-0.43500
3433332;-0.44500
3436110;-0.43500
3438888;-0.41500
3441666;-0.42000
3444443;-0.42500
3447221;-0.45000
3449999;-0.45500
3452777;-0.46000
3455555;-0.46000
3458332;-0.46000
3461110;-0.45500
3463888;-0.46500
3466666;-0.46500
3469443;-0.46500
3472221;-0.46000
3474999;-0.48000
3477777;-0.48500
3480555;-0.49000
3483332;-0.48500
3486110;-0.47000
3488888;-0.44500
3491666;-0.43500
3494443;-0.43500
3497221;-0.43500
3499999;-0.43000
3502777;-0.41500
3505555;-0.39500
3508332;-0.39500
3511110;-0.40000
3513888;-0.38500
3516666;-0.38000
3519443;-0.36000
3522221;-0.33500
3524999;-0.31500
3527777;-0.29500
3530555;-0.29500
3533332;-0.30500
3536110;-0.31500
3538888;-0.29500
3541666;-0.28500
3544443;-0.30000
3547221;-0.30500
3549999;-0.30500
3552777;-0.30000
3555555;-0.28000
3558332;-0.28500
3561110;-0.28500
3563888;-0.30500
3566666;-0.30500
3569443;-0.29500
3572221;-0.27500
3574999;-0.27500
3577777;-0.28500
3580555;-0.29500
3583332;-0.30000
3586110;-0.29500
3588888;-0.29000
3591666;-0.29000
3594443;-0.31000
3597221;-0.30500
3599999;-0.31000
3602777;-0.30500
3605555;-0.30500
3608332;-0.31500
3611110;-0.33000
3613888;-0.33000
3616666;-0.33000
3619443;-0.32000
3622221;-0.30500
3624999;-0.31000
3627777;-0.32000
3630555;-0.32500
3633332;-0.32500
3636110;-0.30500
3638888;-0.28500
3641666;-0.29500
3644443;-0.30500
3647221;-0.30500
3649999;-0.32000
3652777;-0.31500
3655555;-0.32500
3658332;-0.33000
3661110;-0.34000
3663888;-0.33500
3666666;-0.33500
3669443;-0.31500
3672221;-0.31000
3674999;-0.32000
3677777;-0.31500
3680555;-0.33500
3683332;-0.35000
3686110;-0.34000
3688888;-0.33000
3691666;-0.34000
3694443;-0.34500
3697221;-0.34500
3699999;-0.34500
3702777;-0.33500
3705555;-0.33500
3708332;-0.33000
3711110;-0.34000
3713888;-0.35000
3716666;-0.34000
3719443;-0.33500
3722221;-0.31500
3724999;-0.32500
3727777;-0.32000
3730555;-0.32500
3733332;-0.32500
3736110;-0.33000
3738888;-0.31000
3741666;-0.34000
3744443;-0.34000
3747221;-0.32500
3749999;-0.32500
3752777;-0.32500
3755555;-0.31500
3758332;-0.31000
3761110;-0.32500
3763888;-0.34000
3766666;-0.34000
3769443;-0.33000
3772221;-0.32500
3774999;-0.32000
3777777;-0.32500
3780554;-0.34000
3783332;-0.34000
3786110;-0.32500
3788888;-0.31500
3791666;-0.31500
3794443;-0.32000
3797221;-0.32500
3799999;-0.33000
3802777;-0.31000
3805554;-0.29500
3808332;-0.29000
3811110;-0.29000
3813888;-0.28500
3816666;-0.27000
3819443;-0.25500
3822221;-0.24000
3824999;-0.25000
3827777;-0.25000
3830554;-0.25500
3833332;-0.24000
3836110;-0.23500
3838888;-0.21000
3841666;-0.21000
3844443;-0.20500
3847221;-0.21500
3849999;-0.22000
3852777;-0.21500
3855554;-0.20000
3858332;-0.22500
3861110;-0.24000
3863888;-0.24500
3866666;-0.24500
3869443;-0.23500
3872221;-0.22500
3874999;-0.24500
3877777;-0.25500
3880554;-0.24500
3883332;-0.22500
3886110;-0.21500
3888888;-0.22000
3891666;-0.25000
3894443;-0.27000
3897221;-0.29500
3899999;-0.31000
3902777;-0.32500
3905554;-0.31500
3908332;-0.32000
3911110;-0.32500
3913888;-0.34500
3916666;-0.34000
3919443;-0.34500
3922221;-0.33500
3924999;-0.33500
3927777;-0.34000
3930554;-0.34500
3933332;-0.35500
3936110;-0.33500
3938888;-0.33000
3941666;-0.32500
3944443;-0.33500
3947221;-0.34000
3949999;-0.34000
3952777;-0.33500
3955554;-0.32500
3958332;-0.33000
3961110;-0.33000
3963888;-0.34500
3966666;-0.34500
3969443;-0.34000
3972221;-0.33000
3974999;-0.34500
3977777;-0.37500
3980554;-0.42000
3983332;-0.45500
3986110;-0.44500
3988888;-0.44000
3991666;-0.44500
3994443;-0.47500
3997221;-0.53500
3999999;-0.58500
4002777;-0.57000
4005554;-0.53000
4008332;-0.46000
4011110;-0.37500
4013888;-0.24500
4016666;-0.09500
4019443;0.10500
4022221;0.33500
4024999;0.59000
4027777;0.81000
4030554;0.95500
4033332;1.00000
4036110;0.89000
4038888;0.62500
4041666;0.19000
4044443;-0.17000
4047221;-0.37500
4049999;-0.44500
4052777;-0.42000
4055554;-0.38000
4058332;-0.35500
4061110;-0.35000
4063888;-0.36500
4066666;-0.36500
4069443;-0.35000
4072221;-0.34500
4074999;-0.35000
4077777;-0.35500
4080554;-0.36500
4083332;-0.37000
4086110;-0.37000
4088888;-0.35500
4091666;-0.36500
4094443;-0.37000
4097221;-0.37000
4099999;-0.37000
4102777;-0.35000
4105554;-0.34000
4108332;-0.35000
4111110;-0.35000
4113888;-0.36000
4116666;-0.36000
4119443;-0.35500
4122221;-0.34000
4124999;-0.33500
4127777;-0.34000
4130554;-0.34500
4133332;-0.34500
4136110;-0.34500
4138888;-0.34000
4141666;-0.34500
4144443;-0.35000
4147221;-0.36000
4149999;-0.36500
4152777;-0.36000
4155554;-0.33500
4158332;-0.34000
4161110;-0.36500
4163888;-0.36000
4166666;-0.37000
4169443;-0.36000
4172221;-0.34500
4174999;-0.36000
4177777;-0.37000
4180554;-0.36500
4183332;-0.36500
4186110;-0.36000
4188888;-0.35000
4191665;-0.37000
4194443;-0.35500
4197221;-0.36000
4199999;-0.37000
4202777;-0.35500
4205554;-0.34000
4208332;-0.35500
4211110;-0.35500
4213888;-0.36500
4216665;-0.36500
4219443;-0.37000
4222221;-0.34500
4224999;-0.34500
4227777;-0.35000
4230554;-0.36500
4233332;-0.36000
4236110;-0.36500
4238888;-0.35000
4241665;-0.35500
4244443;-0.36000
4247221;-0.37000
4249999;-0.37000
4252777;-0.36000
4255554;-0.35500
4258332;-0.36500
4261110;-0.37500
4263888;-0.37500
4266665;-0.38500
4269443;-0.37000
4272221;-0.36000
4274999;-0.36500
4277777;-0.35500
4280554;-0.37500
4283332;-0.38000
4286110;-0.38000
4288888;-0.37000
4291665;-0.37500
4294443;-0.39000
4297221;-0.40000
4299999;-0.40500
4302777;-0.39000
4305554;-0.39500
4308332;-0.39500
4311110;-0.40500
4313888;-0.41000
4316665;-0.42000
4319443;-0.41000
4322221;-0.39500
4324999;-0.40000
4327777;-0.40000
4330554;-0.41000
4333332;-0.40500
4336110;-0.38000
4338888;-0.37000
4341665;-0.37000
4344443;-0.36000
4347221;-0.36000
4349999;-0.35500
4352777;-0.32500
4355554;-0.29500
4358332;-0.29000
4361110;-0.28000
4363888;-0.28000
4366665;-0.26000
4369443;-0.24500
4372221;-0.23500
4374999;-0.23500
4377777;-0.23500
4380554;-0.24000
4383332;-0.22500
4386110;-0.22000
4388888;-0.21000
4391665;-0.20500
4394443;-0.21500
4397221;-0.22000
4399999;-0.22000
4402777;-0.21000
4405554;-0.19500
4408332;-0.21000
4411110;-0.22500
4413888;-0.24000
4416665;-0.24500
4419443;-0.23500
4422221;-0.22000
4424999;-0.22500
4427777;-0.23000
4430554;-0.24000
4433332;-0.24000
4436110;-0.22500
4438888;-0.21000
4441665;-0.21500
4444443;-0.22500
4447221;-0.22500
4449999;-0.24000
4452777;-0.23000
4455554;-0.22500
4458332;-0.21000
4461110;-0.22500
4463888;-0.23500
4466665;-0.23500
4469443;-0.22500
4472221;-0.21000
4474999;-0.22000
4477777;-0.23000
4480554;-0.24500
4483332;-0.24000
4486110;-0.23500
4488888;-0.23000
4491665;-0.23000
4494443;-0.24500
4497221;-0.25000
4499999;-0.26000
4502777;-0.25500
4505554;-0.24500
4508332;-0.25500
4511110;-0.25500
4513888;-0.26000
4516665;-0.26000
4519443;-0.25500
4522221;-0.25000
4524999;-0.25500
4527777;-0.25500
4530554;-0.25000
4533332;-0.27000
4536110;-0.25000
4538888;-0.24500
4541665;-0.26500
4544443;-0.25500
4547221;-0.25500
4549999;-0.26500
4552777;-0.26500
4555554;-0.24500
4558332;-0.25500
4561110;-0.26500
4563888;-0.28000
4566665;-0.28000
4569443;-0.27500
4572221;-0.26000
4574999;-0.26500
4577776;-0.27000
4580554;-0.28000
4583332;-0.28500
4586110;-0.28000
4588888;-0.27000
4591665;-0.25500
4594443;-0.26500
4597221;-0.28000
4599999;-0.27000
4602776;-0.27000
4605554;-0.25000
4608332;-0.26000
4611110;-0.26000
4613888;-0.27000
4616665;-0.28000
4619443;-0.26500
4622221;-0.25000
4624999;-0.26000
4627776;-0.26000
4630554;-0.27500
4633332;-0.28000
4636110;-0.26500
4638888;-0.25500
4641665;-0.26500
4644443;-0.26500
4647221;-0.27000
4649999;-0.27000
4652776;-0.26500
4655554;-0.24500
4658332;-0.25000
4661110;-0.26000
4663888;-0.26000
4666665;-0.26500
4669443;-0.24500
4672221;-0.22500
4674999;-0.21500
4677776;-0.21500
4680554;-0.21000
4683332;-0.20000
4686110;-0.20000
4688888;-0.18000
4691665;-0.18000
4694443;-0.19000
4697221;-0.18000
4699999;-0.17000
4702776;-0.15500
4705554;-0.13500
4708332;-0.14500
4711110;-0.15500
4713888;-0.15000
4716665;-0.16000
4719443;-0.17000
4722221;-0.16500
4724999;-0.16500
4727776;-0.16500
4730554;-0.17500
4733332;-0.17000
4736110;-0.17500
4738888;-0.16000
4741665;-0.16000
4744443;-0.14000
4747221;-0.13500
4749999;-0.15000
4752776;-0.17500
4755554;-0.19500
4758332;-0.20500
4761110;-0.23000
4763888;-0.25000
4766665;-0.28000
4769443;-0.27000
4772221;-0.26000
4774999;-0.27000
4777776;-0.27500
4780554;-0.27500
4783332;-0.27500
4786110;-0.26000
4788888;-0.25500
4791665;-0.26000
4794443;-0.28000
4797221;-0.28500
4799999;-0.27500
4802776;-0.28000
4805554;-0.27500
4808332;-0.27000
4811110;-0.28500
4813888;-0.28500
4816665;-0.29000
4819443;-0.28000
4822221;-0.29500
4824999;-0.28500
4827776;-0.29000
4830554;-0.30000
4833332;-0.30500
4836110;-0.29500
4838888;-0.29500
4841665;-0.30000
4844443;-0.32000
4847221;-0.35000
4849999;-0.40500
4852776;-0.42000
4855554;-0.43000
4858332;-0.46000
4861110;-0.49000
4863888;-0.47500
4866665;-0.34500
4869443;-0.17000
4872221;0.02000
4874999;0.23500
4877776;0.50000
4880554;0.77000
4883332;1.00000
4886110;1.14000
4888888;1.13500
4891665;0.93000
4894443;0.53500
4897221;0.06000
4899999;-0.28000
4902776;-0.42000
4905554;-0.40000
4908332;-0.33500
4911110;-0.31000
4913888;-0.31000
4916665;-0.32500
4919443;-0.32500
4922221;-0.31500
4924999;-0.32000
4927776;-0.33000
4930554;-0.33000
4933332;-0.33000
4936110;-0.33000
4938888;-0.32000
4941665;-0.33000
4944443;-0.33500
4947221;-0.34000
4949999;-0.34500
4952776;-0.33500
4955554;-0.32500
4958332;-0.32000
4961110;-0.32500
4963887;-0.33500
4966665;-0.34000
4969443;-0.34000
4972221;-0.33000
4974999;-0.33500
4977776;-0.34500
4980554;-0.35000
4983332;-0.35500
4986110;-0.34500
4988887;-0.34500
4991665;-0.33500
4994443;-0.35000
4997221;-0.35000
4999999;-0.35000
5002776;-0.34000
5005554;-0.32500
5008332;-0.33500
5011110;-0.34500
5013887;-0.34000
5016665;-0.34500
5019443;-0.33500
5022221;-0.33000
5024999;-0.33500
5027776;-0.33500
5030554;-0.35500
5033332;-0.34000
5036110;-0.33000
5038887;-0.32000
5041665;-0.32500
5044443;-0.33500
5047221;-0.33500
5049999;-0.34000
5052776;-0.33000
5055554;-0.31500
5058332;-0.34000
5061110;-0.35000
5063887;-0.36000
5066665;-0.35500
5069443;-0.35000
5072221;-0.34000
5074999;-0.34000
5077776;-0.35000
5080554;-0.36500
5083332;-0.36500
5086110;-0.33500
5088887;-0.33000
5091665;-0.32500
5094443;-0.34000
5097221;-0.34500
5099999;-0.35000
5102776;-0.34000
5105554;-0.33500
5108332;-0.33000
5111110;-0.34500
5113887;-0.35500
5116665;-0.36000
5119443;-0.35000
5122221;-0.35000
5124999;-0.34500
5127776;-0.36500
5130554;-0.37500
5133332;-0.37000
5136110;-0.36000
5138887;-0.37000
5141665;-0.35500
5144443;-0.35500
5147221;-0.36000
5149999;-0.37500
5152776;-0.35500
5155554;-0.35000
5158332;-0.34500
5161110;-0.35000
5163887;-0.37000
5166665;-0.36000
5169443;-0.35000
5172221;-0.35500
5174999;-0.34000
5177776;-0.34000
5180554;-0.33500
5183332;-0.33500
5186110;-0.33000
5188887;-0.30000
5191665;-0.29000
5194443;-0.29500
5197221;-0.28500
5199999;-0.27500
5202776;-0.26500
5205554;-0.25000
5208332;-0.24500
5211110;-0.24000
5213887;-0.24000
5216665;-0.26000
5219443;-0.24000
5222221;-0.22500
5224999;-0.22000
5227776;-0.22500
5230554;-0.24500
5233332;-0.24000
5236110;-0.22500
5238887;-0.22000
5241665;-0.21500
5244443;-0.22500
5247221;-0.23500
5249999;-0.22000
5252776;-0.22000
5255554;-0.21000
5258332;-0.21000
5261110;-0.22000
5263887;-0.24500
5266665;-0.23000
5269443;-0.22500
5272221;-0.21500
5274999;-0.22000
5277776;-0.23500
5280554;-0.24000
5283332;-0.25500
5286110;-0.24000
5288887;-0.24000
5291665;-0.22000
5294443;-0.24500
5297221;-0.24500
5299999;-0.25500
5302776;-0.24500
5305554;-0.23500
5308332;-0.24000
5311110;-0.26500
5313887;-0.26000
5316665;-0.25500
5319443;-0.25000
5322221;-0.23500
5324999;-0.23500
5327776;-0.24500
5330554;-0.25500
5333332;-0.25500
5336110;-0.25000
5338887;-0.24500
5341665;-0.25500
5344443;-0.25500
5347221;-0.27000
5349999;-0.27000
5352776;-0.26500
5355554;-0.26000
5358332;-0.26000
5361110;-0.27500
5363887;-0.28000
5366665;-0.29000
5369443;-0.28500
5372221;-0.27500
5374998;-0.28000
5377776;-0.29000
5380554;-0.29500
5383332;-0.30500
5386110;-0.30000
5388887;-0.28500
5391665;-0.29000
5394443;-0.30000
5397221;-0.30000
5399998;-0.29500
5402776;-0.29000
5405554;-0.29000
5408332;-0.28500
5411110;-0.29000
5413887;-0.29500
5416665;-0.30000
5419443;-0.29000
5422221;-0.27500
5424998;-0.27000
5427776;-0.29000
5430554;-0.30000
5433332;-0.30000
5436110;-0.28500
5438887;-0.27500
5441665;-0.28000
5444443;-0.28000
5447221;-0.28500
5449998;-0.28000
5452776;-0.28000
5455554;-0.27000
5458332;-0.27500
5461110;-0.28500
5463887;-0.29500
5466665;-0.30000
5469443;-0.28500
5472221;-0.28500
5474998;-0.28000
5477776;-0.29000
5480554;-0.30500
5483332;-0.29000
5486110;-0.28500
5488887;-0.27000
5491665;-0.26500
5494443;-0.26500
5497221;-0.26000
5499998;-0.25500
5502776;-0.23000
5505554;-0.21500
5508332;-0.21000
5511110;-0.21000
5513887;-0.21000
5516665;-0.21000
5519443;-0.19500
5522221;-0.18000
5524998;-0.17500
5527776;-0.17000
5530554;-0.16500
5533332;-0.17000
5536110;-0.16000
5538887;-0.16000
5541665;-0.17000
5544443;-0.18000
5547221;-0.20000
5549998;-0.20000
5552776;-0.19500
5555554;-0.18000
5558332;-0.18500
5561110;-0.18500
5563887;-0.18500
5566665;-0.18500
5569443;-0.14500
5572221;-0.14500
5574998;-0.15500
5577776;-0.19000
5580554;-0.22500
5583332;-0.24000
5586110;-0.24500
5588887;-0.25000
5591665;-0.26500
5594443;-0.28500
5597221;-0.29000
5599998;-0.31500
5602776;-0.30500
5605554;-0.30000
5608332;-0.30000
5611110;-0.31000
5613887;-0.32000
5616665;-0.31500
5619443;-0.31000
5622221;-0.30500
5624998;-0.31000
5627776;-0.30500
5630554;-0.32000
5633332;-0.32500
5636110;-0.30500
5638887;-0.29000
5641665;-0.30000
5644443;-0.30500
5647221;-0.32000
5649998;-0.31500
5652776;-0.30000
5655554;-0.28500
5658332;-0.28500
5661110;-0.30000
5663887;-0.31000
5666665;-0.31500
5669443;-0.31500
5672221;-0.32500
5674998;-0.36000
5677776;-0.40500
5680554;-0.44000
5683332;-0.47500
5686110;-0.51000
5688887;-0.53500
5691665;-0.47500
5694443;-0.36000
5697221;-0.19500
5699998;-0.02000
5702776;0.20500
5705554;0.49500
5708332;0.78000
5711110;0.96000
5713887;1.02500
5716665;0.90500
5719443;0.60000
5722221;0.16500
5724998;-0.21500
5727776;-0.43000
5730554;-0.45500
5733332;-0.40500
5736110;-0.35500
5738887;-0.32500
5741665;-0.34500
5744443;-0.35500
5747221;-0.35500
5749998;-0.37000
5752776;-0.35500
5755554;-0.35000
5758332;-0.35000
5761109;-0.36000
5763887;-0.36500
5766665;-0.37500
5769443;-0.37000
5772221;-0.35500
5774998;-0.35500
5777776;-0.36000
5780554;-0.37000
5783332;-0.39000
5786109;-0.36500
5788887;-0.36000
5791665;-0.36000
5794443;-0.37000
5797221;-0.36500
5799998;-0.36500
5802776;-0.35500
5805554;-0.34500
5808332;-0.35000
5811109;-0.36500
5813887;-0.37000
5816665;-0.37500
5819443;-0.35500
5822221;-0.34500
5824998;-0.35000
5827776;-0.35500
5830554;-0.36000
5833332;-0.37000
5836109;-0.34500
5838887;-0.34000
5841665;-0.34500
5844443;-0.34500
5847221;-0.36000
5849998;-0.37000
5852776;-0.37000
5855554;-0.35500
5858332;-0.35500
5861109;-0.36500
5863887;-0.37500
5866665;-0.36500
5869443;-0.36500
5872221;-0.35000
5874998;-0.35500
5877776;-0.36000
5880554;-0.37500
5883332;-0.37000
5886109;-0.35500
5888887;-0.35500
5891665;-0.34500
5894443;-0.36000
5897221;-0.36500
5899998;-0.37000
5902776;-0.35000
5905554;-0.35000
5908332;-0.35500
5911109;-0.35500
5913887;-0.36000
5916665;-0.36500
5919443;-0.36000
5922221;-0.36000
5924998;-0.36500
5927776;-0.38000
5930554;-0.38000
5933332;-0.38000
5936109;-0.36500
5938887;-0.37500
5941665;-0.36500
5944443;-0.37500
5947221;-0.37500
5949998;-0.38500
5952776;-0.37000
5955554;-0.36500
5958332;-0.37000
5961109;-0.38000
5963887;-0.37500
5966665;-0.38000
5969443;-0.36500
5972221;-0.36500
5974998;-0.35000
5977776;-0.36500
5980554;-0.37000
5983332;-0.37500
5986109;-0.36000
5988887;-0.35000
5991665;-0.34500
5994443;-0.34500
5997221;-0.35000
5999998;-0.33500
6002776;-0.30500
6005554;-0.29500
6008332;-0.29000
6011109;-0.28500
6013887;-0.28500
6016665;-0.28000
6019443;-0.25500
6022221;-0.24000
6024998;-0.23000
6027776;-0.24000
6030554;-0.24000
6033332;-0.24000
6036109;-0.23000
6038887;-0.22500
6041665;-0.23000
6044443;-0.23000
6047221;-0.23500
6049998;-0.23500
6052776;-0.22000
6055554;-0.21500
6058332;-0.21500
6061109;-0.23000
6063887;-0.23500
6066665;-0.24500
6069443;-0.23500
6072221;-0.21500
6074998;-0.23000
6077776;-0.22500
6080554;-0.25000
6083332;-0.25000
6086109;-0.24000
6088887;-0.23500
6091665;-0.23500
6094443;-0.24000
6097221;-0.23000
6099998;-0.24000
6102776;-0.22500
6105554;-0.22500
6108332;-0.22500
6111109;-0.23500
6113887;-0.24500
6116665;-0.25500
6119443;-0.24500
6122221;-0.23500
6124998;-0.25000
6127776;-0.25000
6130554;-0.24500
6133332;-0.26000
6136109;-0.26000
6138887;-0.25000
6141665;-0.25500
6144443;-0.27000
6147221;-0.27500
6149998;-0.28000
6152776;-0.28500
6155554;-0.27000
6158332;-0.27000
6161109;-0.27500
6163887;-0.28500
6166665;-0.27500
6169443;-0.28000
6172220;-0.27000
6174998;-0.26000
6177776;-0.26000
6180554;-0.28500
6183332;-0.27500
6186109;-0.27000
6188887;-0.26000
6191665;-0.26000
6194443;-0.26500
6197220;-0.28500
6199998;-0.29000
6202776;-0.27000
6205554;-0.26500
6208332;-0.27000
6211109;-0.27000
6213887;-0.29000
6216665;-0.30500
6219443;-0.30000
6222220;-0.29500
6224998;-0.29000
6227776;-0.29000
6230554;-0.29500
6233332;-0.29500
6236109;-0.28000
6238887;-0.27000
6241665;-0.27000
6244443;-0.27000
6247220;-0.28500
6249998;-0.28500
6252776;-0.27500
6255554;-0.27500
6258332;-0.26000
6261109;-0.28000
6263887;-0.28500
6266665;-0.28000
6269443;-0.28000
6272220;-0.26000
6274998;-0.26000
6277776;-0.26500
6280554;-0.28000
6283332;-0.26500
6286109;-0.25500
6288887;-0.24500
6291665;-0.24500
6294443;-0.23500
6297220;-0.22500
6299998;-0.22500
6302776;-0.21000
6305554;-0.19500
6308332;-0.20000
6311109;-0.19500
6313887;-0.19000
6316665;-0.17000
6319443;-0.16000
6322220;-0.15000
6324998;-0.14500
6327776;-0.17000
6330554;-0.17500
6333332;-0.19500
6336109;-0.18000
6338887;-0.17500
6341665;-0.17000
6344443;-0.18000
6347220;-0.19000
6349998;-0.19500
6352776;-0.19500
6355554;-0.19000
6358332;-0.17000
6361109;-0.16000
6363887;-0.15500
6366665;-0.17500
6369443;-0.20500
6372220;-0.20000
6374998;-0.23000
6377776;-0.23000
6380554;-0.24500
6383332;-0.27000
6386109;-0.27500
6388887;-0.28500
6391665;-0.29000
6394443;-0.30500
6397220;-0.30000
6399998;-0.31500
6402776;-0.29000
6405554;-0.29500
6408332;-0.30500
6411109;-0.30500
6413887;-0.32000
6416665;-0.32000
6419443;-0.30500
6422220;-0.30000
6424998;-0.29000
6427776;-0.31500
6430554;-0.32000
6433332;-0.32500
6436109;-0.32000
6438887;-0.30000
6441665;-0.31000
6444443;-0.32000
6447220;-0.32500
6449998;-0.33500
6452776;-0.33500
6455554;-0.33500
6458332;-0.37000
6461109;-0.41000
6463887;-0.43500
6466665;-0.47500
6469443;-0.50000
6472220;-0.53500
6474998;-0.52500
6477776;-0.45000
6480554;-0.34000
6483332;-0.18000
6486109;0.00500
6488887;0.23500
6491665;0.49500
6494443;0.73500
6497220;0.88000
6499998;0.93000
6502776;0.78500
6505554;0.46500
6508332;0.06000
6511109;-0.26500
6513887;-0.45000
6516665;-0.50000
6519443;-0.47000
6522220;-0.42000
6524998;-0.38500
6527776;-0.37500
6530554;-0.40000
6533332;-0.38500
6536109;-0.37000
6538887;-0.34500
6541665;-0.34000
6544443;-0.34500
6547220;-0.36500
6549998;-0.36000
6552776;-0.36000
6555554;-0.35500
6558331;-0.36000
6561109;-0.36500
6563887;-0.36000
6566665;-0.36500
6569443;-0.36000
6572220;-0.37000
6574998;-0.37000
6577776;-0.38000
6580554;-0.39500
6583331;-0.39000
6586109;-0.37500
6588887;-0.36500
6591665;-0.38500
6594443;-0.39000
6597220;-0.39000
6599998;-0.39500
6602776;-0.38500
6605554;-0.37500
6608331;-0.37000
6611109;-0.38000
6613887;-0.40000
6616665;-0.39500
6619443;-0.38500
6622220;-0.36500
6624998;-0.36500
6627776;-0.37500
6630554;-0.37000
6633331;-0.38500
6636109;-0.38500
6638887;-0.37000
6641665;-0.37500
6644443;-0.37500
6647220;-0.38000
6649998;-0.39500
6652776;-0.38500
6655554;-0.38000
6658331;-0.38500
6661109;-0.40500
6663887;-0.41000
6666665;-0.42000
6669443;-0.39000
6672220;-0.38500
6674998;-0.38000
6677776;-0.38500
6680554;-0.39500
6683331;-0.39000
6686109;-0.39000
6688887;-0.38500
6691665;-0.38500
6694443;-0.38000
6697220;-0.39500
6699998;-0.40000
6702776;-0.40000
6705554;-0.39500
6708331;-0.39500
6711109;-0.39500
6713887;-0.40000
6716665;-0.40000
6719443;-0.39500
6722220;-0.38000
6724998;-0.39500
6727776;-0.41000
6730554;-0.42000
6733331;-0.42500
6736109;-0.42000
6738887;-0.41500
6741665;-0.42500
6744443;-0.43000
6747220;-0.43500
6749998;-0.43500
6752776;-0.43500
6755554;-0.42500
6758331;-0.42000
6761109;-0.44000
6763887;-0.45000
6766665;-0.45000
6769443;-0.44000
6772220;-0.43000
6774998;-0.43500
6777776;-0.43500
6780554;-0.44000
6783331;-0.44000
6786109;-0.42500
6788887;-0.42000
6791665;-0.42000
6794443;-0.42000
6797220;-0.41500
6799998;-0.40500
6802776;-0.39500
6805554;-0.36500
6808331;-0.34000
6811109;-0.34000
6813887;-0.34000
6816665;-0.32500
6819443;-0.31000
6822220;-0.30500
6824998;-0.29000
6827776;-0.28500
6830554;-0.29000
6833331;-0.29500
6836109;-0.30000
6838887;-0.27500
6841665;-0.27000
6844443;-0.27500
6847220;-0.27500
6849998;-0.28500
6852776;-0.27000
6855554;-0.26000
6858331;-0.26500
6861109;-0.26500
6863887;-0.28000
6866665;-0.27500
6869443;-0.27000
6872220;-0.26500
6874998;-0.28000
6877776;-0.29000
6880554;-0.28500
6883331;-0.30000
6886109;-0.30000
6888887;-0.29500
6891665;-0.29500
6894443;-0.29000
6897220;-0.30000
6899998;-0.29500
6902776;-0.27000
6905554;-0.26000
6908331;-0.27000
6911109;-0.29000
6913887;-0.31000
6916665;-0.32000
6919443;-0.30000
6922220;-0.27500
6924998;-0.27500
6927776;-0.29500
6930554;-0.30500
6933331;-0.31000
6936109;-0.30500
6938887;-0.30000
6941665;-0.30500
6944442;-0.31500
6947220;-0.32500
6949998;-0.33000
6952776;-0.31500
6955554;-0.31000
6958331;-0.31000
6961109;-0.32000
6963887;-0.32500
6966665;-0.33500
6969442;-0.32500
6972220;-0.33000
6974998;-0.33000
6977776;-0.34000
6980554;-0.34500
6983331;-0.33000
6986109;-0.32000
6988887;-0.31500
6991665;-0.31000
6994442;-0.31500
6997220;-0.32500
6999998;-0.34000
7002776;-0.34000
7005554;-0.33500
7008331;-0.34500
7011109;-0.33500
7013887;-0.33000
7016665;-0.32000
7019442;-0.31500
7022220;-0.31500
7024998;-0.32500
7027776;-0.33000
7030554;-0.33000
7033331;-0.33500
7036109;-0.32000
7038887;-0.32500
7041665;-0.32500
7044442;-0.33500
7047220;-0.35000
7049998;-0.34500
7052776;-0.33500
7055554;-0.34500
7058331;-0.34500
7061109;-0.34500
7063887;-0.34000
7066665;-0.33500
7069442;-0.32000
7072220;-0.31500
7074998;-0.31000
7077776;-0.30500
7080554;-0.30000
7083331;-0.30000
7086109;-0.28500
7088887;-0.26500
7091665;-0.27000
7094442;-0.28000
7097220;-0.28500
7099998;-0.27000
7102776;-0.25000
7105554;-0.22500
7108331;-0.21500
7111109;-0.21500
7113887;-0.23000
7116665;-0.24500
7119442;-0.25000
7122220;-0.24500
7124998;-0.25000
7127776;-0.25000
7130554;-0.26000
7133331;-0.26000
7136109;-0.25000
7138887;-0.24500
7141665;-0.25000
7144442;-0.25000
7147220;-0.26000
7149998;-0.27000
7152776;-0.23500
7155554;-0.22500
7158331;-0.23000
7161109;-0.22500
7163887;-0.23000
7166665;-0.25000
7169442;-0.26500
7172220;-0.28000
7174998;-0.27500
7177776;-0.29500
7180554;-0.32000
7183331;-0.33500
7186109;-0.34500
7188887;-0.34000
7191665;-0.35000
7194442;-0.35000
7197220;-0.36500
7199998;-0.37500
7202776;-0.35500
7205554;-0.34500
7208331;-0.36500
7211109;-0.37500
7213887;-0.38500
7216665;-0.39000
7219442;-0.38500
7222220;-0.37000
7224998;-0.37000
7227776;-0.38000
7230554;-0.40000
7233331;-0.39000
7236109;-0.37500
7238887;-0.35500
7241665;-0.35500
7244442;-0.36500
7247220;-0.36500
7249998;-0.38000
7252776;-0.37500
7255554;-0.39000
7258331;-0.42000
7261109;-0.47000
7263887;-0.50000
7266665;-0.52500
7269442;-0.57000
7272220;-0.55500
7274998;-0.51000
7277776;-0.37000
7280554;-0.23500
7283331;-0.07500
7286109;0.15500
7288887;0.41000
7291665;0.66500
7294442;0.86000
7297220;0.97500
7299998;0.91500
7302776;0.67000
7305554;0.26000
7308331;-0.15000
7311109;-0.41000
7313887;-0.49500
7316665;-0.49000
7319442;-0.44500
7322220;-0.41500
7324998;-0.39000
7327776;-0.40000
7330554;-0.41000
7333331;-0.41000
7336109;-0.39000
7338887;-0.38000
7341665;-0.37500
7344442;-0.39000
7347220;-0.40000
7349998;-0.41500
7352776;-0.40500
7355553;-0.39500
7358331;-0.40000
7361109;-0.40500
7363887;-0.41500
7366665;-0.41000
7369442;-0.40500
7372220;-0.39500
7374998;-0.40000
7377776;-0.40500
7380553;-0.40000
7383331;-0.40500
7386109;-0.40000
7388887;-0.39000
7391665;-0.39500
7394442;-0.40000
7397220;-0.40500
7399998;-0.41500
7402776;-0.40000
7405553;-0.38500
7408331;-0.39000
7411109;-0.39500
7413887;-0.39500
7416665;-0.40000
7419442;-0.38500
7422220;-0.39000
7424998;-0.37500
7427776;-0.39000
7430553;-0.40000
7433331;-0.40500
7436109;-0.40000
7438887;-0.39000
7441665;-0.38500
7444442;-0.40000
7447220;-0.40000
7449998;-0.40500
7452776;-0.40000
7455553;-0.39500
7458331;-0.39000
7461109;-0.37500
7463887;-0.39000
7466665;-0.38500
7469442;-0.38000
7472220;-0.37000
7474998;-0.37000
7477776;-0.37500
7480553;-0.37500
7483331;-0.38500
7486109;-0.38000
7488887;-0.36500
7491665;-0.36500
7494442;-0.38000
7497220;-0.38000
7499998;-0.39000
7502776;-0.39000
7505553;-0.38000
7508331;-0.38000
7511109;-0.39500
7513887;-0.40000
7516665;-0.41500
7519442;-0.41500
7522220;-0.41000
7524998;-0.41000
7527776;-0.43000
7530553;-0.43500
7533331;-0.44000
7536109;-0.43500
7538887;-0.42500
7541665;-0.43500
7544442;-0.43500
7547220;-0.44500
7549998;-0.46000
7552776;-0.45000
7555553;-0.44000
7558331;-0.44500
7561109;-0.44500
7563887;-0.44500
7566665;-0.44500
7569442;-0.43500
7572220;-0.41500
7574998;-0.41000
7577776;-0.40500
7580553;-0.40000
7583331;-0.38500
7586109;-0.37000
7588887;-0.35000
7591665;-0.33500
7594442;-0.34000
7597220;-0.33500
7599998;-0.31000
7602776;-0.30000
7605553;-0.27500
7608331;-0.27000
7611109;-0.27000
7613887;-0.27500
7616665;-0.27500
7619442;-0.26000
7622220;-0.25500
7624998;-0.24500
7627776;-0.25500
7630553;-0.25000
7633331;-0.25500
7636109;-0.25000
7638887;-0.24000
7641665;-0.23500
7644442;-0.24000
7647220;-0.25000
7649998;-0.26000
7652776;-0.24500
7655553;-0.24000
7658331;-0.25000
7661109;-0.24000
7663887;-0.25000
7666665;-0.26500
7669442;-0.26000
7672220;-0.26000
7674998;-0.24500
7677776;-0.26000
7680553;-0.26500
7683331;-0.27000
7686109;-0.26000
7688887;-0.25000
7691665;-0.25500
7694442;-0.25500
7697220;-0.26500
7699998;-0.26500
7702776;-0.25500
7705553;-0.24000
7708331;-0.25000
7711109;-0.25000
7713887;-0.25500
7716665;-0.26500
7719442;-0.25000
7722220;-0.25000
7724998;-0.25000
7727776;-0.26500
7730553;-0.27000
7733331;-0.28000
7736109;-0.28000
7738887;-0.27500
7741664;-0.26500
7744442;-0.28000
7747220;-0.29000
7749998;-0.29500
7752776;-0.27500
7755553;-0.27000
7758331;-0.27000
7761109;-0.28000
7763887;-0.28500
7766664;-0.28000
7769442;-0.28000
7772220;-0.26500
7774998;-0.27000
7777776;-0.27000
7780553;-0.27500
7783331;-0.28500
7786109;-0.27500
7788887;-0.26500
7791664;-0.26500
7794442;-0.27500
7797220;-0.28500
7799998;-0.28500
7802776;-0.27500
7805553;-0.27000
7808331;-0.27500
7811109;-0.28000
7813887;-0.29500
7816664;-0.28500
7819442;-0.27500
7822220;-0.27000
7824998;-0.27000
7827776;-0.26000
7830553;-0.27500
7833331;-0.27000
7836109;-0.26500
7838887;-0.26000
7841664;-0.26000
7844442;-0.27000
7847220;-0.26500
7849998;-0.28000
7852776;-0.27000
7855553;-0.26000
7858331;-0.25500
7861109;-0.26000
7863887;-0.26500
7866664;-0.27000
7869442;-0.26000
7872220;-0.25500
7874998;-0.25000
7877776;-0.24500
7880553;-0.25000
7883331;-0.23500
7886109;-0.21500
7888887;-0.19500
7891664;-0.19500
7894442;-0.19500
7897220;-0.19000
7899998;-0.18500
7902776;-0.16500
7905553;-0.16000
7908331;-0.15000
7911109;-0.14500
7913887;-0.14500
7916664;-0.15500
7919442;-0.15500
7922220;-0.15000
7924998;-0.15500
7927776;-0.17500
7930553;-0.18000
7933331;-0.17500
7936109;-0.17500
7938887;-0.16500
7941664;-0.18000
7944442;-0.17500
7947220;-0.16000
7949998;-0.15500
7952776;-0.13500
7955553;-0.16500
7958331;-0.20000
7961109;-0.21500
7963887;-0.24000
7966664;-0.24000
7969442;-0.26000
7972220;-0.25500
7974998;-0.26000
7977776;-0.27000
7980553;-0.28000
7983331;-0.28000
7986109;-0.27500
7988887;-0.26500
7991664;-0.26000
7994442;-0.26500
7997220;-0.29000
7999998;-0.29000
8002776;-0.28000
8005553;-0.27500
8008331;-0.26500
8011109;-0.27000
8013887;-0.28500
8016664;-0.28500
8019442;-0.28000
8022220;-0.28000
8024998;-0.27500
8027776;-0.28500
8030553;-0.29500
8033331;-0.29500
8036109;-0.28500
8038887;-0.27500
8041664;-0.28500
8044442;-0.30500
8047220;-0.31500
8049998;-0.35000
8052776;-0.37500
8055553;-0.40500
8058331;-0.42500
8061109;-0.46000
8063887;-0.48500
8066664;-0.47500
8069442;-0.36500
8072220;-0.19000
8074998;-0.00500
8077776;0.20500
8080553;0.45500
8083331;0.76500
8086109;1.03000
8088887;1.17500
8091664;1.17000
8094442;0.97500
8097220;0.58000
8099998;0.09000
8102776;-0.28000
8105553;-0.42000
8108331;-0.40500
8111109;-0.34500
8113887;-0.31500
8116664;-0.31000
8119442;-0.32000
8122220;-0.31000
8124998;-0.30500
8127776;-0.31000
8130553;-0.32000
8133331;-0.32500
8136109;-0.32500
8138887;-0.32000
8141664;-0.33000
8144442;-0.32500
8147220;-0.34000
8149998;-0.33500
8152775;-0.33500
8155553;-0.33000
8158331;-0.33500
8161109;-0.34000
8163887;-0.34000
8166664;-0.35500
8169442;-0.34500
8172220;-0.33500
8174998;-0.33500
8177775;-0.34500
8180553;-0.36000
8183331;-0.36000
8186109;-0.34500
8188887;-0.33500
8191664;-0.33500
8194442;-0.34000
8197220;-0.34500
8199998;-0.34500
8202775;-0.34000
8205553;-0.32500
8208331;-0.33500
8211109;-0.33000
8213887;-0.34500
8216664;-0.33500
8219442;-0.33000
8222220;-0.32000
8224998;-0.32500
8227775;-0.32500
8230553;-0.33000
8233331;-0.33000
8236109;-0.33000
8238887;-0.33000
8241664;-0.32000
8244442;-0.32500
8247220;-0.33000
8249998;-0.34500
8252775;-0.34000
8255553;-0.33500
8258331;-0.33500
8261109;-0.33000
8263887;-0.34500
8266664;-0.34000
8269442;-0.33500
8272220;-0.33000
8274998;-0.32000
8277775;-0.33000
8280553;-0.33000
8283331;-0.33000
8286109;-0.31500
8288887;-0.31500
8291664;-0.31500
8294442;-0.32000
8297220;-0.32500
8299998;-0.34000
8302775;-0.33000
8305553;-0.32000
8308331;-0.33500
8311109;-0.33500
8313887;-0.33500
8316664;-0.34000
8319442;-0.32500
8322220;-0.32000
8324998;-0.32000
8327775;-0.32500
8330553;-0.34000
8333331;-0.35000
8336109;-0.35500
8338887;-0.35000
8341664;-0.34000
8344442;-0.34500
8347220;-0.34500
8349998;-0.36000
8352775;-0.35500
8355553;-0.35000
8358331;-0.33500
8361109;-0.33000
8363887;-0.33000
8366664;-0.32500
8369442;-0.30500
8372220;-0.29500
8374998;-0.28000
8377775;-0.27000
8380553;-0.27500
8383331;-0.25500
8386109;-0.24000
8388887;-0.21000
8391664;-0.22000
8394442;-0.21500
8397220;-0.21000
8399998;-0.22000
8402775;-0.20500
8405553;-0.19000
8408331;-0.19000
8411109;-0.19000
8413887;-0.20000
8416664;-0.20000
8419442;-0.19500
8422220;-0.18000
8424998;-0.19500
8427775;-0.20000
8430553;-0.19500
8433331;-0.20500
8436109;-0.19500
8438887;-0.19500
8441664;-0.19000
8444442;-0.19500
8447220;-0.19000
8449998;-0.21000
8452775;-0.20000
8455553;-0.19000
8458331;-0.19500
8461109;-0.19000
8463887;-0.21000
8466664;-0.21500
8469442;-0.21000
8472220;-0.20000
8474998;-0.19500
8477775;-0.19500
8480553;-0.21000
8483331;-0.21000
8486109;-0.21000
8488887;-0.19000
8491664;-0.19000
8494442;-0.18000
8497220;-0.18500
8499998;-0.18000
8502775;-0.16500
8505553;-0.15000
8508331;-0.13500
8511109;-0.14500
8513887;-0.15000
8516664;-0.16000
8519442;-0.14000
8522220;-0.13000
8524998;-0.13000
8527775;-0.14500
8530553;-0.13000
8533331;-0.12000
8536109;-0.11500
8538886;-0.13000
8541664;-0.15000
8544442;-0.16500
8547220;-0.18500
8549998;-0.19000
8552775;-0.19500
8555553;-0.21000
8558331;-0.22000
8561109;-0.23000
8563886;-0.24500
8566664;-0.25000
8569442;-0.25500
8572220;-0.25500
8574998;-0.26000
8577775;-0.27000
8580553;-0.27500
8583331;-0.28500
8586109;-0.27000
8588886;-0.28000
8591664;-0.26500
8594442;-0.27500
8597220;-0.28500
8599998;-0.29000
8602775;-0.28000
8605553;-0.29500
8608331;-0.29500
8611109;-0.30000
8613886;-0.29500
8616664;-0.30500
8619442;-0.30500
8622220;-0.29500
8624998;-0.29000
8627775;-0.30500
8630553;-0.30500
8633331;-0.31500
8636109;-0.30000
8638886;-0.29500
8641664;-0.29500
8644442;-0.29500
8647220;-0.31000
8649998;-0.33000
8652775;-0.35500
8655553;-0.40000
8658331;-0.44500
8661109;-0.47000
8663886;-0.52000
8666664;-0.53000
8669442;-0.41000
8672220;-0.22000
8674998;-0.01500
8677775;0.22000
8680553;0.45000
8683331;0.75000
8686109;1.00000
8688886;1.13500
8691664;1.09500
8694442;0.82500
8697220;0.38500
8699998;-0.06500
8702775;-0.35000
8705553;-0.39000
8708331;-0.34000
8711109;-0.30000
8713886;-0.30000
8716664;-0.30500
8719442;-0.30500
8722220;-0.31000
8724998;-0.30000
8727775;-0.31000
8730553;-0.32000
8733331;-0.32000
8736109;-0.30500
8738886;-0.32000
8741664;-0.32000
8744442;-0.32000
8747220;-0.32500
8749998;-0.33500
8752775;-0.32000
8755553;-0.32500
8758331;-0.31500
8761109;-0.32000
8763886;-0.34500
8766664;-0.34500
8769442;-0.33000
8772220;-0.32500
8774998;-0.31500
8777775;-0.32500
8780553;-0.33500
8783331;-0.33500
8786109;-0.33000
8788886;-0.31500
8791664;-0.32000
8794442;-0.32500
8797220;-0.32500
8799998;-0.33000
8802775;-0.33000
8805553;-0.32000
8808331;-0.32000
8811109;-0.32500
8813886;-0.33000
8816664;-0.33500
8819442;-0.33000
8822220;-0.32000
8824998;-0.32500
8827775;-0.31500
8830553;-0.33000
8833331;-0.33000
8836109;-0.33500
8838886;-0.33500
8841664;-0.34500
8844442;-0.33000
8847220;-0.35500
8849998;-0.35000
8852775;-0.35500
8855553;-0.33500
8858331;-0.34000
8861109;-0.33500
8863886;-0.34500
8866664;-0.34500
8869442;-0.34000
8872220;-0.33000
8874998;-0.33000
8877775;-0.33000
8880553;-0.34500
8883331;-0.34000
8886109;-0.34000
8888886;-0.32500
8891664;-0.33000
8894442;-0.33500
8897220;-0.34500
8899998;-0.35500
8902775;-0.34500
8905553;-0.34000
8908331;-0.35000
8911109;-0.35500
8913886;-0.35500
8916664;-0.36500
8919442;-0.34500
8922220;-0.34500
8924998;-0.34500
8927775;-0.36000
8930553;-0.37000
8933331;-0.37500
8936109;-0.37000
8938886;-0.37000
8941664;-0.37000
8944442;-0.36500
8947220;-0.35500
8949997;-0.37000
8952775;-0.36000
8955553;-0.34500
8958331;-0.36000
8961109;-0.34000
8963886;-0.35000
8966664;-0.35000
8969442;-0.33000
8972220;-0.31500
8974997;-0.31500
8977775;-0.29000
8980553;-0.31000
8983331;-0.30500
8986109;-0.29500
8988886;-0.27000
8991664;-0.26500
8994442;-0.27000
8997220;-0.27000
8999997;-0.26500
9002775;-0.25500
9005553;-0.24000
9008331;-0.23500
9011109;-0.23500
9013886;-0.24000
9016664;-0.24500
9019442;-0.23500
9022220;-0.21500
9024997;-0.21500
9027775;-0.23500
9030553;-0.23500
9033331;-0.24000
9036109;-0.24000
9038886;-0.22000
9041664;-0.21500
9044442;-0.22000
9047220;-0.23000
9049997;-0.24500
9052775;-0.23000
9055553;-0.23500
9058331;-0.23500
9061109;-0.25000
9063886;-0.25500
9066664;-0.26000
9069442;-0.25500
9072220;-0.25500
9074997;-0.25000
9077775;-0.26500
9080553;-0.27000
9083331;-0.27500
9086109;-0.25000
9088886;-0.25500
9091664;-0.25500
9094442;-0.26000
9097220;-0.27500
9099997;-0.27000
9102775;-0.25500
9105553;-0.25500
9108331;-0.27000
9111109;-0.25500
9113886;-0.27500
9116664;-0.27500
9119442;-0.27500
9122220;-0.26500
9124997;-0.25500
9127775;-0.27500
9130553;-0.28000
9133331;-0.29500
9136109;-0.28500
9138886;-0.27500
9141664;-0.27500
9144442;-0.28000
9147220;-0.29000
9149997;-0.31000
9152775;-0.29500
9155553;-0.29500
9158331;-0.29500
9161109;-0.30000
9163886;-0.31000
9166664;-0.31500
9169442;-0.30500
9172220;-0.29500
9174997;-0.28500
9177775;-0.31000
9180553;-0.29500
9183331;-0.29500
9186109;-0.30500
9188886;-0.27500
9191664;-0.28500
9194442;-0.28000
9197220;-0.29500
9199997;-0.31500
9202775;-0.29500
9205553;-0.28500
9208331;-0.27500
9211109;-0.28000
9213886;-0.29500
9216664;-0.30000
9219442;-0.28000
9222220;-0.28000
9224997;-0.28000
9227775;-0.30500
9230553;-0.30500
9233331;-0.30000
9236109;-0.29000
9238886;-0.28500
9241664;-0.28000
9244442;-0.28500
9247220;-0.28500
9249997;-0.29500
9252775;-0.28000
9255553;-0.28000
9258331;-0.28000
9261109;-0.29000
9263886;-0.29500
9266664;-0.29500
9269442;-0.29500
9272220;-0.27500
9274997;-0.28000
9277775;-0.28000
9280553;-0.29500
9283331;-0.30500
9286109;-0.29500
9288886;-0.28000
9291664;-0.28500
9294442;-0.28500
9297220;-0.28500
9299997;-0.29000
9302775;-0.29500
9305553;-0.28500
9308331;-0.27500
9311109;-0.27500
9313886;-0.28500
9316664;-0.29500
9319442;-0.28000
9322220;-0.27500
9324997;-0.27000
9327775;-0.29000
9330553;-0.29000
9333331;-0.30000
9336108;-0.28500
9338886;-0.30000
9341664;-0.29000
9344442;-0.28500
9347220;-0.31000
9349997;-0.31000
9352775;-0.30500
9355553;-0.29000
9358331;-0.28500
9361108;-0.27500
9363886;-0.30500
9366664;-0.31000
9369442;-0.29000
9372220;-0.27500
9374997;-0.26500
9377775;-0.27000
9380553;-0.27500
9383331;-0.27500
9386108;-0.28000
9388886;-0.27500
9391664;-0.26000
9394442;-0.27500
9397220;-0.29000
9399997;-0.28500
9402775;-0.27500
9405553;-0.27000
9408331;-0.27500
9411108;-0.26500
9413886;-0.28500
9416664;-0.27000
9419442;-0.25500
9422220;-0.23000
9424997;-0.21000
9427775;-0.21500
9430553;-0.22500
9433331;-0.23000
9436108;-0.21000
9438886;-0.20500
9441664;-0.18500
9444442;-0.18500
9447220;-0.18500
9449997;-0.17500
9452775;-0.16000
9455553;-0.15000
9458331;-0.14500
9461108;-0.16000
9463886;-0.18000
9466664;-0.19500
9469442;-0.17500
9472220;-0.18000
9474997;-0.17500
9477775;-0.18000
9480553;-0.19500
9483331;-0.22000
9486108;-0.22000
9488886;-0.20500
9491664;-0.18000
9494442;-0.18500
9497220;-0.19000
9499997;-0.23000
9502775;-0.23000
9505553;-0.23500
9508331;-0.25000
9511108;-0.26000
9513886;-0.28000
9516664;-0.29500
9519442;-0.29500
9522220;-0.29000
9524997;-0.29000
9527775;-0.29000
9530553;-0.30000
9533331;-0.30500
9536108;-0.30000
9538886;-0.28500
9541664;-0.28000
9544442;-0.29000
9547220;-0.31000
9549997;-0.31500
9552775;-0.31000
9555553;-0.31000
9558331;-0.31000
9561108;-0.32500
9563886;-0.33000
9566664;-0.33500
9569442;-0.33500
9572220;-0.32000
9574997;-0.31000
9577775;-0.31000
9580553;-0.32500
9583331;-0.33500
9586108;-0.33500
9588886;-0.36500
9591664;-0.40000
9594442;-0.42000
9597220;-0.44500
9599997;-0.48000
9602775;-0.52000
9605553;-0.52500
9608331;-0.47500
9611108;-0.38000
9613886;-0.25000
9616664;-0.11000
9619442;0.08000
9622220;0.31000
9624997;0.58000
9627775;0.80000
9630553;0.92500
9633331;0.97500
9636108;0.91000
9638886;0.68500
9641664;0.35500
9644442;0.02500
9647220;-0.23000
9649997;-0.38500
9652775;-0.46500
9655553;-0.49500
9658331;-0.50500
9661108;-0.51500
9663886;-0.48500
9666664;-0.44500
9669442;-0.40000
9672220;-0.38000
9674997;-0.37500
9677775;-0.38000
9680553;-0.37500
9683331;-0.38000
9686108;-0.37000
9688886;-0.36000
9691664;-0.36500
9694442;-0.38000
9697220;-0.38000
9699997;-0.40000
9702775;-0.38500
9705553;-0.37000
9708331;-0.38000
9711108;-0.38000
9713886;-0.38000
9716664;-0.39000
9719442;-0.38500
9722220;-0.37500
9724997;-0.37500
9727775;-0.39000
9730553;-0.40000
9733331;-0.40500
9736108;-0.39500
9738886;-0.39000
9741664;-0.38500
9744442;-0.39500
9747219;-0.39000
9749997;-0.40500
9752775;-0.39500
9755553;-0.38500
9758331;-0.39500
9761108;-0.40000
9763886;-0.40000
9766664;-0.40500
9769442;-0.39000
9772219;-0.39000
9774997;-0.38500
9777775;-0.38500
9780553;-0.40000
9783331;-0.41500
9786108;-0.39500
9788886;-0.39500
9791664;-0.38000
9794442;-0.39500
9797219;-0.40000
9799997;-0.41000
9802775;-0.40000
9805553;-0.40000
9808331;-0.40500
9811108;-0.41500
9813886;-0.41500
9816664;-0.42500
9819442;-0.41500
9822219;-0.40500
9824997;-0.40500
9827775;-0.41000
9830553;-0.41000
9833331;-0.41500
9836108;-0.40000
9838886;-0.39000
9841664;-0.38500
9844442;-0.39500
9847219;-0.39500
9849997;-0.42500
9852775;-0.41500
9855553;-0.39500
9858331;-0.38500
9861108;-0.40000
9863886;-0.40500
9866664;-0.41500
9869442;-0.40500
9872219;-0.40000
9874997;-0.40500
9877775;-0.41000
9880553;-0.42000
9883331;-0.42500
9886108;-0.43500
9888886;-0.42500
9891664;-0.43500
9894442;-0.44000
9897219;-0.45000
9899997;-0.47000
9902775;-0.44500
9905553;-0.43000
9908331;-0.43000
9911108;-0.44000
9913886;-0.44000
9916664;-0.44000
9919442;-0.43000
9922219;-0.42500
9924997;-0.43000
9927775;-0.43500
9930553;-0.44000
9933331;-0.45000
9936108;-0.43500
9938886;-0.41000
9941664;-0.41000
9944442;-0.41500
9947219;-0.42000
9949997;-0.41000
9952775;-0.40500
9955553;-0.38500
9958331;-0.38000
9961108;-0.37500
9963886;-0.38500
9966664;-0.38500
9969442;-0.35500
9972219;-0.34000
9974997;-0.33000
9977775;-0.33500
9980553;-0.34000
9983331;-0.33500
9986108;-0.31500
9988886;-0.30000
9991664;-0.29000
9994442;-0.31000
9997219;-0.29000
9999997;-0.29000
10002775;-0.28000
10005553;-0.27000
10008331;-0.27500
10011108;-0.28500
10013886;-0.29500
10016664;-0.30500
10019442;-0.30000
10022219;-0.29500
10024997;-0.30000
10027775;-0.30500
10030553;-0.31500
10033331;-0.32000
10036108;-0.31000
10038886;-0.29000
10041664;-0.29500
10044442;-0.30000
10047219;-0.29500
10049997;-0.30500
10052775;-0.29000
10055553;-0.29000
10058331;-0.29500
10061108;-0.31000
10063886;-0.30500
10066664;-0.32500
10069442;-0.33000
10072219;-0.30500
10074997;-0.29500
10077775;-0.30000
10080553;-0.32000
10083331;-0.31500
10086108;-0.32000
10088886;-0.30500
10091664;-0.31500
10094442;-0.32000
10097219;-0.33000
10099997;-0.34500
10102775;-0.34000
10105553;-0.34000
10108331;-0.34000
10111108;-0.35000
10113886;-0.36500
10116664;-0.36000
10119442;-0.34000
10122219;-0.34500
10124997;-0.34000
10127775;-0.34500
10130553;-0.35000
10133330;-0.36000
10136108;-0.36500
10138886;-0.35500
10141664;-0.35500
10144442;-0.35500
10147219;-0.36000
10149997;-0.36500
10152775;-0.36500
10155553;-0.36500
10158330;-0.36500
10161108;-0.37500
10163886;-0.37500
10166664;-0.37000
10169442;-0.36500
10172219;-0.36000
10174997;-0.35500
10177775;-0.36500
10180553;-0.38000
10183330;-0.38500
10186108;-0.38000
10188886;-0.37500
10191664;-0.37500
10194442;-0.38000
10197219;-0.37500
10199997;-0.38500
10202775;-0.37000
10205553;-0.37000
10208330;-0.37000
10211108;-0.38500
10213886;-0.39000
10216664;-0.38500
10219442;-0.36500
10222219;-0.35500
10224997;-0.34000
10227775;-0.33000
10230553;-0.34000
10233330;-0.35000
10236108;-0.34000
10238886;-0.32500
10241664;-0.31000
10244442;-0.30000
10247219;-0.30500
10249997;-0.29500
10252775;-0.30000
10255553;-0.28500
10258330;-0.26500
10261108;-0.26500
10263886;-0.28000
10266664;-0.29000
10269442;-0.28000
10272219;-0.28000
10274997;-0.28500
10277775;-0.28500
10280553;-0.31000
10283330;-0.32500
10286108;-0.31000
10288886;-0.29500
10291664;-0.29000
10294442;-0.29000
10297219;-0.30500
10299997;-0.32000
10302775;-0.30000
10305553;-0.28500
10308330;-0.25500
10311108;-0.25500
10313886;-0.27500
10316664;-0.31500
10319442;-0.34500
10322219;-0.37000
10324997;-0.38500
10327775;-0.39000
10330553;-0.40500
10333330;-0.41500
10336108;-0.42000
10338886;-0.42000
10341664;-0.42000
10344442;-0.41500
10347219;-0.42000
10349997;-0.43000
10352775;-0.41500
10355553;-0.41500
10358330;-0.40000
10361108;-0.40500
10363886;-0.41500
10366664;-0.43500
10369442;-0.42000
10372219;-0.42000
10374997;-0.41500
10377775;-0.42500
10380553;-0.43500
10383330;-0.45500
10386108;-0.44500
10388886;-0.44500
10391664;-0.43000
10394442;-0.43000
10397219;-0.43500
10399997;-0.45000
10402775;-0.46000
10405553;-0.48500
10408330;-0.51500
10411108;-0.53500
10413886;-0.55500
10416664;-0.61000
10419442;-0.66000
10422219;-0.65500
10424997;-0.62500
10427775;-0.55500
10430553;-0.45500
10433330;-0.34000
10436108;-0.19000
10438886;0.00500
10441664;0.25500
10444442;0.51500
10447219;0.72000
10449997;0.83500
10452775;0.83000
10455553;0.64500
10458330;0.29000
10461108;-0.09500
10463886;-0.37000
10466664;-0.51000
10469442;-0.55000
10472219;-0.53000
10474997;-0.49000
10477775;-0.47000
10480553;-0.48000
10483330;-0.48000
10486108;-0.45500
10488886;-0.45500
10491664;-0.46000
10494442;-0.46000
10497219;-0.46000
10499997;-0.47500
10502775;-0.46000
10505553;-0.45500
10508330;-0.45000
10511108;-0.45500
10513886;-0.46000
10516664;-0.46500
10519441;-0.45000
10522219;-0.44000
10524997;-0.44500
10527775;-0.45000
10530553;-0.48000
10533330;-0.48500
10536108;-0.47500
10538886;-0.46000
10541664;-0.45000
10544441;-0.46000
10547219;-0.47500
10549997;-0.48500
10552775;-0.48500
10555553;-0.48000
10558330;-0.48000
10561108;-0.47500
10563886;-0.48500
10566664;-0.50000
10569441;-0.49000
10572219;-0.48000
10574997;-0.48500
10577775;-0.48500
10580553;-0.48000
10583330;-0.48000
10586108;-0.48000
10588886;-0.46500
10591664;-0.47500
10594441;-0.46500
10597219;-0.48000
10599997;-0.48500
10602775;-0.47500
10605553;-0.47000
10608330;-0.47500
10611108;-0.47500
10613886;-0.47500
10616664;-0.48500
10619441;-0.48000
10622219;-0.48000
10624997;-0.48500
10627775;-0.47000
10630553;-0.48000
10633330;-0.48500
10636108;-0.47500
10638886;-0.48000
10641664;-0.48000
10644441;-0.48500
10647219;-0.48500
10649997;-0.49500
10652775;-0.48500
10655553;-0.48000
10658330;-0.47000
10661108;-0.47000
10663886;-0.48000
10666664;-0.48000
10669441;-0.47000
10672219;-0.47000
10674997;-0.47000
10677775;-0.48000
10680553;-0.49500
10683330;-0.49500
10686108;-0.49000
10688886;-0.47000
10691664;-0.46500
10694441;-0.47000
10697219;-0.49000
10699997;-0.49500
10702775;-0.49500
10705553;-0.49000
10708330;-0.49000
10711108;-0.51000
10713886;-0.52500
10716664;-0.53500
10719441;-0.52000
10722219;-0.52000
10724997;-0.52000
10727775;-0.54000
10730553;-0.53500
10733330;-0.52500
10736108;-0.52000
10738886;-0.50500
10741664;-0.51000
10744441;-0.52500
10747219;-0.52500
10749997;-0.52500
10752775;-0.50500
10755553;-0.48500
10758330;-0.46500
10761108;-0.47000
10763886;-0.47000
10766664;-0.44500
10769441;-0.42500
10772219;-0.41500
10774997;-0.40000
10777775;-0.40000
10780553;-0.39500
10783330;-0.39000
10786108;-0.38500
10788886;-0.36500
10791664;-0.36000
10794441;-0.35000
10797219;-0.35500
10799997;-0.36000
10802775;-0.36500
10805553;-0.34000
10808330;-0.34000
10811108;-0.36000
10813886;-0.35500
10816664;-0.36000
10819441;-0.34500
10822219;-0.32000
10824997;-0.33000
10827775;-0.32500
10830553;-0.33500
10833330;-0.34500
10836108;-0.33500
10838886;-0.32500
10841664;-0.32500
10844441;-0.33000
10847219;-0.34500
10849997;-0.35000
10852775;-0.34000
10855553;-0.33000
10858330;-0.33500
10861108;-0.33000
10863886;-0.33500
10866664;-0.35000
10869441;-0.35000
10872219;-0.34500
10874997;-0.35000
10877775;-0.35500
10880553;-0.36500
10883330;-0.36000
10886108;-0.36000
10888886;-0.35000
10891664;-0.36000
10894441;-0.36000
10897219;-0.36500
10899997;-0.36000
10902775;-0.37000
10905553;-0.36000
10908330;-0.36000
10911108;-0.36000
10913886;-0.37000
10916664;-0.37000
10919441;-0.37000
10922219;-0.36000
10924997;-0.35500
10927775;-0.36000
10930552;-0.36500
10933330;-0.37000
10936108;-0.36500
10938886;-0.36000
10941664;-0.36000
10944441;-0.36500
10947219;-0.38000
10949997;-0.39500
10952775;-0.39000
10955552;-0.37500
10958330;-0.37500
10961108;-0.38000
10963886;-0.38500
10966664;-0.40000
10969441;-0.39500
10972219;-0.39000
10974997;-0.38000
10977775;-0.38500
10980552;-0.39500
10983330;-0.41000
10986108;-0.39500
10988886;-0.39000
10991664;-0.37500
10994441;-0.38500
10997219;-0.39500
10999997;-0.40500
11002775;-0.38500
11005552;-0.38000
11008330;-0.38500
11011108;-0.38500
11013886;-0.39000
11016664;-0.40000
11019441;-0.38500
11022219;-0.38000
11024997;-0.38500
11027775;-0.39500
11030552;-0.40000
11033330;-0.40500
11036108;-0.39500
11038886;-0.38500
11041664;-0.40500
11044441;-0.39500
11047219;-0.40500
11049997;-0.40500
11052775;-0.39500
11055552;-0.37500
11058330;-0.37500
11061108;-0.36500
11063886;-0.36500
11066664;-0.35500
11069441;-0.34000
11072219;-0.32500
11074997;-0.31500
11077775;-0.31500
11080552;-0.32000
11083330;-0.31500
11086108;-0.30000
11088886;-0.29500
11091664;-0.29500
11094441;-0.29500
11097219;-0.29000
11099997;-0.30000
11102775;-0.28000
11105552;-0.28000
11108330;-0.28000
11111108;-0.29000
11113886;-0.29000
11116664;-0.31000
11119441;-0.30000
11122219;-0.29000
11124997;-0.29500
11127775;-0.30500
11130552;-0.30500
11133330;-0.32000
11136108;-0.31000
11138886;-0.29500
11141664;-0.27000
11144441;-0.25500
11147219;-0.27000
11149997;-0.30000
11152775;-0.33000
11155552;-0.33000
11158330;-0.33000
11161108;-0.34500
11163886;-0.36500
11166664;-0.38500
11169441;-0.40000
11172219;-0.40000
11174997;-0.39000
11177775;-0.40500
11180552;-0.42500
11183330;-0.41000
11186108;-0.41500
11188886;-0.39500
11191664;-0.40500
11194441;-0.40500
11197219;-0.40500
11199997;-0.42000
11202775;-0.42000
11205552;-0.40500
11208330;-0.41000
11211108;-0.40500
11213886;-0.42500
11216664;-0.43500
11219441;-0.42500
11222219;-0.42500
11224997;-0.41000
11227775;-0.41500
11230552;-0.43000
11233330;-0.43500
11236108;-0.43000
11238886;-0.42500
11241664;-0.44000
11244441;-0.48000
11247219;-0.52500
11249997;-0.56500
11252775;-0.56500
11255552;-0.60000
11258330;-0.62000
11261108;-0.57500
11263886;-0.47000
11266664;-0.34000
11269441;-0.17000
11272219;0.00000
11274997;0.21500
11277775;0.48000
11280552;0.72500
11283330;0.92500
11286108;1.03500
11288886;1.00500
11291664;0.78500
11294441;0.36000
11297219;-0.09000
11299997;-0.42000
11302775;-0.54500
11305552;-0.53500
11308330;-0.47500
11311108;-0.43500
11313886;-0.42500
11316663;-0.43000
11319441;-0.43500
11322219;-0.43500
11324997;-0.42500
11327775;-0.43500
11330552;-0.44000
11333330;-0.45000
11336108;-0.43500
11338886;-0.44000
11341663;-0.42500
11344441;-0.43500
11347219;-0.45000
11349997;-0.45500
11352775;-0.45500
11355552;-0.45000
11358330;-0.44000
11361108;-0.44500
11363886;-0.45500
11366663;-0.46500
11369441;-0.47000
11372219;-0.45000
11374997;-0.45000
11377775;-0.46000
11380552;-0.46500
11383330;-0.47000
11386108;-0.46500
11388886;-0.45000
11391663;-0.46000
11394441;-0.46000
11397219;-0.46000
11399997;-0.47500
11402775;-0.46000
11405552;-0.45500
11408330;-0.44500
11411108;-0.44500
11413886;-0.45500
11416663;-0.45500
11419441;-0.46000
11422219;-0.44500
11424997;-0.45000
11427775;-0.45500
11430552;-0.47000
11433330;-0.47000
11436108;-0.46500
11438886;-0.46500
11441663;-0.45000
11444441;-0.46500
11447219;-0.46500
11449997;-0.48000
11452775;-0.47000
11455552;-0.46500
11458330;-0.46000
11461108;-0.45500
11463886;-0.46500
11466663;-0.46500
11469441;-0.46000
11472219;-0.44500
11474997;-0.44500
11477775;-0.44500
11480552;-0.45000
11483330;-0.46000
11486108;-0.45000
11488886;-0.43500
11491663;-0.43000
11494441;-0.44000
11497219;-0.44500
11499997;-0.45000
11502775;-0.44500
11505552;-0.43500
11508330;-0.43500
11511108;-0.45500
11513886;-0.45500
11516663;-0.46500
11519441;-0.45000
11522219;-0.46000
11524997;-0.44500
11527775;-0.44500
11530552;-0.46500
11533330;-0.47000
11536108;-0.46000
11538886;-0.45500
11541663;-0.45500
11544441;-0.44500
11547219;-0.46000
11549997;-0.47500
11552775;-0.47000
11555552;-0.44500
11558330;-0.45000
11561108;-0.46000
11563886;-0.46000
11566663;-0.46500
11569441;-0.46000
11572219;-0.46500
11574997;-0.45500
11577775;-0.46500
11580552;-0.46000
11583330;-0.46000
11586108;-0.44000
11588886;-0.42500
11591663;-0.42000
11594441;-0.42500
11597219;-0.40500
11599997;-0.41000
11602775;-0.39000
11605552;-0.37500
11608330;-0.36500
11611108;-0.36000
11613886;-0.37000
11616663;-0.36000
11619441;-0.35000
11622219;-0.32500
11624997;-0.30500
11627775;-0.30500
11630552;-0.31000
11633330;-0.30500
11636108;-0.29500
11638886;-0.29500
11641663;-0.29000
11644441;-0.29500
11647219;-0.29000
11649997;-0.30000
11652775;-0.30000
11655552;-0.29500
11658330;-0.29000
11661108;-0.29500
11663886;-0.30500
11666663;-0.30000
11669441;-0.30000
11672219;-0.29000
11674997;-0.29000
11677775;-0.30000
11680552;-0.30000
11683330;-0.33000
11686108;-0.31500
11688886;-0.30500
11691663;-0.30000
11694441;-0.31000
11697219;-0.31000
11699997;-0.32000
11702775;-0.31500
11705552;-0.31000
11708330;-0.30500
11711108;-0.31000
11713886;-0.32000
11716663;-0.32000
11719441;-0.30000
11722219;-0.30000
11724997;-0.31000
11727774;-0.30500
11730552;-0.31500
11733330;-0.33000
11736108;-0.32000
11738886;-0.31000
11741663;-0.31500
11744441;-0.32000
11747219;-0.33000
11749997;-0.34500
11752774;-0.34000
11755552;-0.33000
11758330;-0.33000
11761108;-0.33500
11763886;-0.34000
11766663;-0.35500
11769441;-0.34500
11772219;-0.34000
11774997;-0.33500
11777774;-0.34500
11780552;-0.35000
11783330;-0.36000
11786108;-0.34500
11788886;-0.34000
11791663;-0.34500
11794441;-0.34000
11797219;-0.35000
11799997;-0.35000
11802774;-0.34500
11805552;-0.33500
11808330;-0.33500
11811108;-0.34500
11813886;-0.35500
11816663;-0.35500
11819441;-0.35500
11822219;-0.34000
11824997;-0.34000
11827774;-0.35500
11830552;-0.35000
11833330;-0.36500
11836108;-0.35500
11838886;-0.35500
11841663;-0.35000
11844441;-0.35500
11847219;-0.35500
11849997;-0.36000
11852774;-0.35500
11855552;-0.34500
11858330;-0.34000
11861108;-0.33500
11863886;-0.34500
11866663;-0.35500
11869441;-0.35500
11872219;-0.34000
11874997;-0.33000
11877774;-0.33500
11880552;-0.35000
11883330;-0.35000
11886108;-0.34500
11888886;-0.33500
11891663;-0.32500
11894441;-0.32000
11897219;-0.31000
11899997;-0.30500
11902774;-0.28000
11905552;-0.26500
11908330;-0.26000
11911108;-0.26500
11913886;-0.28000
11916663;-0.26500
11919441;-0.25000
11922219;-0.24000
11924997;-0.22000
11927774;-0.23500
11930552;-0.24500
11933330;-0.22500
11936108;-0.21500
11938886;-0.21000
11941663;-0.22000
11944441;-0.23000
11947219;-0.25500
11949997;-0.27000
11952774;-0.26500
11955552;-0.25500
11958330;-0.25000
11961108;-0.26500
11963886;-0.28000
11966663;-0.27000
11969441;-0.23000
11972219;-0.21500
11974997;-0.21500
11977774;-0.24500
11980552;-0.28000
11983330;-0.30000
11986108;-0.31000
11988886;-0.32000
11991663;-0.32000
11994441;-0.35500
11997219;-0.36000
11999997;-0.37000
12002774;-0.36500
12005552;-0.35000
12008330;-0.35000
12011108;-0.36000
12013886;-0.37000
12016663;-0.38500
12019441;-0.38500
12022219;-0.36500
12024997;-0.37000
12027774;-0.37500
12030552;-0.38000
12033330;-0.39000
12036108;-0.37000
12038886;-0.38000
12041663;-0.38000
12044441;-0.37000
12047219;-0.37500
12049997;-0.38000
12052774;-0.37500
12055552;-0.37000
12058330;-0.37000
12061108;-0.37500
12063886;-0.40000
12066663;-0.44500
12069441;-0.49000
12072219;-0.50500
12074997;-0.51000
12077774;-0.55500
12080552;-0.59000
12083330;-0.59000
12086108;-0.48000
12088886;-0.33000
12091663;-0.15000
12094441;0.04500
12097219;0.30500
12099997;0.61000
12102774;0.88500
12105552;1.01500
12108330;0.95500
12111108;0.66000
12113885;0.19000
12116663;-0.26000
12119441;-0.48000
12122219;-0.50000
12124997;-0.44500
12127774;-0.39500
12130552;-0.39500
12133330;-0.40500
12136108;-0.40000
12138885;-0.40500
12141663;-0.39500
12144441;-0.39500
12147219;-0.41500
12149997;-0.42000
12152774;-0.42000
12155552;-0.41000
12158330;-0.41500
12161108;-0.42000
12163885;-0.43000
12166663;-0.42500
12169441;-0.43500
12172219;-0.43500
12174997;-0.42500
12177774;-0.42000
12180552;-0.43500
12183330;-0.43500
12186108;-0.44000
12188885;-0.43500
12191663;-0.42500
12194441;-0.43000
12197219;-0.42500
12199997;-0.44000
12202774;-0.43000
12205552;-0.41500
12208330;-0.41500
12211108;-0.41500
12213885;-0.43000
12216663;-0.42500
12219441;-0.42500
12222219;-0.41500
12224997;-0.41500
12227774;-0.41500
12230552;-0.43000
12233330;-0.43500
12236108;-0.42000
12238885;-0.41000
12241663;-0.41000
12244441;-0.41500
12247219;-0.41500
12249997;-0.43000
12252774;-0.42500
12255552;-0.41500
12258330;-0.41500
12261108;-0.42000
12263885;-0.42500
12266663;-0.43000
12269441;-0.43000
12272219;-0.41000
12274997;-0.40000
12277774;-0.41000
12280552;-0.41000
12283330;-0.43000
12286108;-0.41500
12288885;-0.40500
12291663;-0.40000
12294441;-0.40000
12297219;-0.41500
12299997;-0.43000
12302774;-0.41500
12305552;-0.40000
12308330;-0.40500
12311108;-0.41000
12313885;-0.41500
12316663;-0.43500
12319441;-0.42500
12322219;-0.41500
12324997;-0.41500
12327774;-0.43000
12330552;-0.43500
12333330;-0.45500
12336108;-0.43500
12338885;-0.43000
12341663;-0.43500
12344441;-0.44000
12347219;-0.45000
12349997;-0.45000
12352774;-0.44500
12355552;-0.43000
12358330;-0.42000
12361108;-0.43000
12363885;-0.44000
12366663;-0.43500
12369441;-0.43000
12372219;-0.43000
12374997;-0.43000
12377774;-0.41000
12380552;-0.42000
12383330;-0.42500
12386108;-0.40500
12388885;-0.39500
12391663;-0.39000
12394441;-0.38000
12397219;-0.37500
12399997;-0.38500
12402774;-0.37000
12405552;-0.35500
12408330;-0.34500
12411108;-0.33500
12413885;-0.34000
12416663;-0.33500
12419441;-0.32500
12422219;-0.31500
12424997;-0.31000
12427774;-0.31000
12430552;-0.31000
12433330;-0.30500
12436108;-0.30500
12438885;-0.30500
12441663;-0.30500
12444441;-0.30000
12447219;-0.31500
12449997;-0.31500
12452774;-0.31500
12455552;-0.30500
12458330;-0.32000
12461108;-0.33000
12463885;-0.34000
12466663;-0.35000
12469441;-0.32000
12472219;-0.31500
12474997;-0.32000
12477774;-0.33000
12480552;-0.32500
12483330;-0.33000
12486108;-0.32500
12488885;-0.32000
12491663;-0.32000
12494441;-0.31000
12497219;-0.32500
12499996;-0.33500
12502774;-0.32000
12505552;-0.32000
12508330;-0.32000
12511108;-0.33500
12513885;-0.33500
12516663;-0.34000
12519441;-0.34500
12522219;-0.34000
12524996;-0.33000
12527774;-0.34000
12530552;-0.35500
12533330;-0.36500
12536108;-0.36000
12538885;-0.36000
12541663;-0.35500
12544441;-0.35500
12547219;-0.35500
12549996;-0.36500
12552774;-0.36500
12555552;-0.36000
12558330;-0.35500
12561108;-0.36500
12563885;-0.37500
12566663;-0.38500
12569441;-0.38500
12572219;-0.38500
12574996;-0.36000
12577774;-0.38500
12580552;-0.38000
12583330;-0.38000
12586108;-0.38500
12588885;-0.37500
12591663;-0.37000
12594441;-0.37500
12597219;-0.38500
12599996;-0.40000
12602774;-0.39500
12605552;-0.38500
12608330;-0.38000
12611108;-0.39000
12613885;-0.39500
12616663;-0.40000
12619441;-0.39000
12622219;-0.38000
12624996;-0.37500
12627774;-0.37500
12630552;-0.39500
12633330;-0.39500
12636108;-0.38000
12638885;-0.37500
12641663;-0.36000
12644441;-0.36500
12647219;-0.37500
12649996;-0.38000
12652774;-0.37500
12655552;-0.36000
12658330;-0.36000
12661108;-0.36000
12663885;-0.37500
12666663;-0.37000
12669441;-0.35500
12672219;-0.32500
12674996;-0.31000
12677774;-0.31500
12680552;-0.31000
12683330;-0.32500
12686108;-0.31000
12688885;-0.30000
12691663;-0.29500
12694441;-0.27500
12697219;-0.27500
12699996;-0.27000
12702774;-0.26500
12705552;-0.25500
12708330;-0.25000
12711108;-0.25000
12713885;-0.26000
12716663;-0.27500
12719441;-0.29000
12722219;-0.29000
12724996;-0.28000
12727774;-0.28000
12730552;-0.29500
12733330;-0.30000
12736108;-0.29000
12738885;-0.25500
12741663;-0.24000
12744441;-0.26000
12747219;-0.28500
12749996;-0.31000
12752774;-0.32000
12755552;-0.33000
12758330;-0.36000
12761108;-0.35500
12763885;-0.38000
12766663;-0.39000
12769441;-0.39000
12772219;-0.37500
12774996;-0.38000
12777774;-0.37000
12780552;-0.38000
12783330;-0.38500
12786108;-0.38000
12788885;-0.37500
12791663;-0.36500
12794441;-0.38000
12797219;-0.39500
12799996;-0.41500
12802774;-0.40500
12805552;-0.40500
12808330;-0.39500
12811108;-0.41000
12813885;-0.42500
12816663;-0.41500
12819441;-0.39500
12822219;-0.38500
12824996;-0.38000
12827774;-0.38500
12830552;-0.41500
12833330;-0.43500
12836108;-0.48000
12838885;-0.50500
12841663;-0.52500
12844441;-0.58500
12847219;-0.63000
12849996;-0.60500
12852774;-0.46500
12855552;-0.30500
12858330;-0.13000
12861108;0.08500
12863885;0.35000
12866663;0.61000
12869441;0.81500
12872219;0.87000
12874996;0.72500
12877774;0.37000
12880552;-0.07500
12883330;-0.41000
12886108;-0.55000
12888885;-0.54500
12891663;-0.48000
12894441;-0.44500
12897219;-0.42000
12899996;-0.42500
12902774;-0.42500
12905552;-0.42500
12908330;-0.43000
12911107;-0.42000
12913885;-0.42500
12916663;-0.42000
12919441;-0.42500
12922219;-0.43000
12924996;-0.41500
12927774;-0.41500
12930552;-0.42000
12933330;-0.45000
12936107;-0.43500
12938885;-0.44000
12941663;-0.43500
12944441;-0.44500
12947219;-0.45500
12949996;-0.46500
12952774;-0.45500
12955552;-0.44500
12958330;-0.42500
12961107;-0.42500
12963885;-0.44500
12966663;-0.44500
12969441;-0.44000
12972219;-0.43000
12974996;-0.43000
12977774;-0.43500
12980552;-0.43000
12983330;-0.44500
12986107;-0.44500
12988885;-0.43000
12991663;-0.44000
12994441;-0.45000
12997219;-0.44000
12999996;-0.45500
13002774;-0.44500
13005552;-0.44000
13008330;-0.44500
13011107;-0.44500
13013885;-0.45000
13016663;-0.46000
13019441;-0.46000
13022219;-0.46000
13024996;-0.46000
13027774;-0.45000
13030552;-0.45000
13033330;-0.46000
13036107;-0.45500
13038885;-0.44000
13041663;-0.43500
13044441;-0.42500
13047219;-0.42500
13049996;-0.44500
13052774;-0.43500
13055552;-0.43500
13058330;-0.42500
13061107;-0.42500
13063885;-0.44000
13066663;-0.45000
13069441;-0.44500
13072219;-0.43500
13074996;-0.42500
13077774;-0.44500
13080552;-0.45000
13083330;-0.46500
13086107;-0.45500
13088885;-0.45000
13091663;-0.44500
13094441;-0.46500
13097219;-0.47000
13099996;-0.49000
13102774;-0.47500
13105552;-0.47000
13108330;-0.47000
13111107;-0.47000
13113885;-0.48500
13116663;-0.49000
13119441;-0.48500
13122219;-0.48500
13124996;-0.47500
13127774;-0.48000
13130552;-0.48000
13133330;-0.47500
13136107;-0.47000
13138885;-0.45500
13141663;-0.45500
13144441;-0.44500
13147219;-0.45000
13149996;-0.45500
13152774;-0.44500
13155552;-0.41500
13158330;-0.40000
13161107;-0.39500
13163885;-0.39500
13166663;-0.40000
13169441;-0.37500
13172219;-0.37000
13174996;-0.36500
13177774;-0.36000
13180552;-0.37500
13183330;-0.37500
13186107;-0.37000
13188885;-0.36000
13191663;-0.35000
13194441;-0.35500
13197219;-0.36500
13199996;-0.36500
13202774;-0.35500
13205552;-0.35000
13208330;-0.34500
13211107;-0.35500
13213885;-0.37000
13216663;-0.36000
13219441;-0.35000
13222219;-0.35500
13224996;-0.36000
13227774;-0.36500
13230552;-0.38500
13233330;-0.37500
13236107;-0.37000
13238885;-0.34500
13241663;-0.34500
13244441;-0.35000
13247219;-0.38000
13249996;-0.38500
13252774;-0.38500
13255552;-0.38000
13258330;-0.38000
13261107;-0.38000
13263885;-0.38000
13266663;-0.39000
13269441;-0.39000
13272219;-0.40000
13274996;-0.40500
13277774;-0.39500
13280552;-0.41000
13283330;-0.41500
13286107;-0.39500
13288885;-0.40000
13291663;-0.39500
13294441;-0.39000
13297218;-0.40000
13299996;-0.40500
13302774;-0.41000
13305552;-0.39000
13308330;-0.40000
13311107;-0.40000
13313885;-0.40000
13316663;-0.42000
13319441;-0.42000
13322218;-0.41500
13324996;-0.42500
13327774;-0.42500
13330552;-0.44500
13333330;-0.44500
13336107;-0.44000
13338885;-0.42500
13341663;-0.43000
13344441;-0.44500
13347218;-0.45000
13349996;-0.44000
13352774;-0.44000
13355552;-0.44000
13358330;-0.42500
13361107;-0.42500
13363885;-0.42500
13366663;-0.41500
13369441;-0.42500
13372218;-0.41500
13374996;-0.41000
13377774;-0.40000
13380552;-0.43000
13383330;-0.44500
13386107;-0.44500
13388885;-0.42500
13391663;-0.41000
13394441;-0.42000
13397218;-0.43000
13399996;-0.45500
13402774;-0.44000
13405552;-0.42500
13408330;-0.40500
13411107;-0.39000
13413885;-0.39000
13416663;-0.39000
13419441;-0.39000
13422218;-0.38500
13424996;-0.38000
13427774;-0.37500
13430552;-0.37500
13433330;-0.37000
13436107;-0.34000
13438885;-0.32000
13441663;-0.31000
13444441;-0.31000
13447218;-0.31500
13449996;-0.33500
13452774;-0.32500
13455552;-0.32500
13458330;-0.33500
13461107;-0.34000
13463885;-0.34000
13466663;-0.34500
13469441;-0.36000
13472218;-0.35500
13474996;-0.33500
13477774;-0.33000
13480552;-0.31500
13483330;-0.32000
13486107;-0.35000
13488885;-0.36000
13491663;-0.37000
13494441;-0.39500
13497218;-0.40500
13499996;-0.41500
13502774;-0.42000
13505552;-0.42000
13508330;-0.42500
13511107;-0.45500
13513885;-0.46000
13516663;-0.47500
13519441;-0.47000
13522218;-0.47500
13524996;-0.45500
13527774;-0.46000
13530552;-0.47500
13533330;-0.48500
13536107;-0.46500
13538885;-0.46000
13541663;-0.45500
13544441;-0.46500
13547218;-0.47500
13549996;-0.48500
13552774;-0.47000
13555552;-0.46500
13558330;-0.46500
13561107;-0.46500
13563885;-0.48500
13566663;-0.50000
13569441;-0.49000
13572218;-0.48500
13574996;-0.47500
13577774;-0.49000
13580552;-0.51500
13583330;-0.54500
13586107;-0.57000
13588885;-0.59500
13591663;-0.61000
13594441;-0.64500
13597218;-0.67500
13599996;-0.63000
13602774;-0.51500
13605552;-0.37000
13608330;-0.19500
13611107;0.02000
13613885;0.26500
13616663;0.51000
13619441;0.71500
13622218;0.80500
13624996;0.72000
13627774;0.44000
13630552;0.04500
13633330;-0.32000
13636107;-0.54000
13638885;-0.61500
13641663;-0.61000
13644441;-0.57000
13647218;-0.54500
13649996;-0.53000
13652774;-0.52500
13655552;-0.52500
13658330;-0.53500
13661107;-0.54500
13663885;-0.54500
13666663;-0.55000
13669441;-0.54000
13672218;-0.52000
13674996;-0.53000
13677774;-0.54000
13680552;-0.54500
13683330;-0.55500
13686107;-0.55500
13688885;-0.53500
13691663;-0.51500
13694441;-0.52500
