time_ms;ecg_value
0;-0.15000
2778;-0.16000
5556;-0.16000
8333;-0.17000
11111;-0.17500
13889;-0.18000
16667;-0.19000
19444;-0.18000
22222;-0.16500
25000;-0.16000
27778;-0.16500
30556;-0.16500
33333;-0.13500
36111;-0.13000
38889;-0.12000
41667;-0.16500
44444;-0.20500
47222;-0.22000
50000;-0.23500
52778;-0.23500
55556;-0.24500
58333;-0.25500
61111;-0.27000
63889;-0.29000
66667;-0.29500
69444;-0.30000
72222;-0.29500
75000;-0.28500
77778;-0.29500
80556;-0.30000
83333;-0.31000
86111;-0.32000
88889;-0.30500
91667;-0.31000
94444;-0.30500
97222;-0.32000
100000;-0.32000
102778;-0.34500
105556;-0.32000
108333;-0.31500
111111;-0.31000
113889;-0.32000
116667;-0.33000
119444;-0.33500
122222;-0.31500
125000;-0.30500
127778;-0.32500
130556;-0.34000
133333;-0.36000
136111;-0.40000
138889;-0.43000
141667;-0.43500
144444;-0.43000
147222;-0.45000
150000;-0.48500
152778;-0.54500
155556;-0.57000
158333;-0.56000
161111;-0.51000
163889;-0.42000
166667;-0.33500
169444;-0.20500
172222;-0.07000
175000;0.09500
177778;0.31500
180556;0.58000
183333;0.78000
186111;0.90500
188889;0.92500
191667;0.79500
194444;0.46500
197222;0.03000
200000;-0.30500
202778;-0.48000
205555;-0.50000
208333;-0.44000
211111;-0.38500
213889;-0.38000
216667;-0.37500
219444;-0.38500
222222;-0.38500
225000;-0.36500
227778;-0.36500
230555;-0.37000
233333;-0.38000
236111;-0.39000
238889;-0.37500
241667;-0.37000
244444;-0.37000
247222;-0.39500
250000;-0.40000
252778;-0.39000
255555;-0.39500
258333;-0.38500
261111;-0.38500
263889;-0.39000
266667;-0.40000
269444;-0.40500
272222;-0.39500
275000;-0.38000
277778;-0.38000
280555;-0.39000
283333;-0.40000
286111;-0.39500
288889;-0.38500
291667;-0.37500
294444;-0.38000
297222;-0.39000
300000;-0.39500
302778;-0.39500
305555;-0.38500
308333;-0.37500
311111;-0.37500
313889;-0.38500
316667;-0.39000
319444;-0.40000
322222;-0.39500
325000;-0.38500
327778;-0.37500
330555;-0.39000
333333;-0.40000
336111;-0.39000
338889;-0.39000
341667;-0.37500
344444;-0.37500
347222;-0.38000
350000;-0.38500
352778;-0.38500
355555;-0.38000
358333;-0.37500
361111;-0.37000
363889;-0.38000
366667;-0.39000
369444;-0.38500
372222;-0.37500
375000;-0.36000
377778;-0.36500
380555;-0.37500
383333;-0.37500
386111;-0.38500
388889;-0.37500
391667;-0.38500
394444;-0.38500
397222;-0.40000
400000;-0.39500
402778;-0.40000
405555;-0.40000
408333;-0.38500
411111;-0.39000
413889;-0.38500
416667;-0.40000
419444;-0.40500
422222;-0.39000
425000;-0.38500
427778;-0.39000
430555;-0.40000
433333;-0.40000
436111;-0.40000
438889;-0.39000
441667;-0.37500
444444;-0.38500
447222;-0.38000
450000;-0.38500
452778;-0.39000
455555;-0.38500
458333;-0.38000
461111;-0.37000
463889;-0.38000
466667;-0.38500
469444;-0.37000
472222;-0.36000
475000;-0.33500
477778;-0.32500
480555;-0.32500
483333;-0.32500
486111;-0.31500
488889;-0.30500
491667;-0.29500
494444;-0.28000
497222;-0.28000
500000;-0.27500
502778;-0.28500
505555;-0.25500
508333;-0.25500
511111;-0.25500
513889;-0.25500
516667;-0.26000
519444;-0.26500
522222;-0.25500
525000;-0.24000
527778;-0.25000
530555;-0.25000
533333;-0.27000
536111;-0.27500
538889;-0.26000
541667;-0.25000
544444;-0.26000
547222;-0.26500
550000;-0.27000
552778;-0.27000
555555;-0.27500
558333;-0.26500
561111;-0.26500
563889;-0.27000
566667;-0.28000
569444;-0.27500
572222;-0.28000
575000;-0.27000
577778;-0.27000
580555;-0.27500
583333;-0.28500
586111;-0.28000
588889;-0.27500
591667;-0.27000
594444;-0.28000
597222;-0.29000
600000;-0.29500
602778;-0.30000
605555;-0.29000
608333;-0.28000
611111;-0.28500
613889;-0.29500
616666;-0.30500
619444;-0.32000
622222;-0.31500
625000;-0.30000
627778;-0.30000
630555;-0.31000
633333;-0.31500
636111;-0.33000
638889;-0.31500
641666;-0.31000
644444;-0.30500
647222;-0.32500
650000;-0.31500
652778;-0.32000
655555;-0.31500
658333;-0.31000
661111;-0.31500
663889;-0.32000
666666;-0.32500
669444;-0.34000
672222;-0.32000
675000;-0.31000
677778;-0.30500
680555;-0.32500
683333;-0.34000
686111;-0.34000
688889;-0.32500
691666;-0.31000
694444;-0.32000
697222;-0.32000
700000;-0.32000
702778;-0.31500
705555;-0.32000
708333;-0.32000
711111;-0.31000
713889;-0.31000
716666;-0.32000
719444;-0.32500
722222;-0.30500
725000;-0.30500
727778;-0.29500
730555;-0.31500
733333;-0.31000
736111;-0.31500
738889;-0.31500
741666;-0.30500
744444;-0.29500
747222;-0.31000
750000;-0.33000
752778;-0.32500
755555;-0.31500
758333;-0.30500
761111;-0.30500
763889;-0.30000
766666;-0.29500
769444;-0.29000
772222;-0.26000
775000;-0.25500
777778;-0.25500
780555;-0.24500
783333;-0.25000
786111;-0.23500
788889;-0.24000
791666;-0.23000
794444;-0.21000
797222;-0.21500
800000;-0.20500
802778;-0.21500
805555;-0.19500
808333;-0.17500
811111;-0.18000
813889;-0.18500
816666;-0.19500
819444;-0.20500
822222;-0.20500
825000;-0.19500
827778;-0.19000
830555;-0.19500
833333;-0.19500
836111;-0.19500
838889;-0.18000
841666;-0.16500
844444;-0.15500
847222;-0.19000
850000;-0.23500
852778;-0.25500
855555;-0.26000
858333;-0.25500
861111;-0.27500
863889;-0.29500
866666;-0.31000
869444;-0.32500
872222;-0.33500
875000;-0.32500
877778;-0.31500
880555;-0.31500
883333;-0.32000
886111;-0.33500
888889;-0.32500
891666;-0.32000
894444;-0.31500
897222;-0.33500
900000;-0.34500
902778;-0.34000
905555;-0.33500
908333;-0.32000
911111;-0.32000
913889;-0.33000
916666;-0.33000
919444;-0.35000
922222;-0.35500
925000;-0.35500
927778;-0.33500
930555;-0.36000
933333;-0.36000
936111;-0.36000
938889;-0.36000
941666;-0.34500
944444;-0.35000
947222;-0.38000
950000;-0.42000
952778;-0.46500
955555;-0.47500
958333;-0.49000
961111;-0.54000
963889;-0.57500
966666;-0.54000
969444;-0.43000
972222;-0.29000
975000;-0.13500
977778;0.05500
980555;0.30500
983333;0.56500
986111;0.75000
988889;0.83000
991666;0.79500
994444;0.54000
997222;0.16000
1000000;-0.19500
1002777;-0.43500
1005555;-0.51000
1008333;-0.48500
1011111;-0.43500
1013889;-0.41500
1016666;-0.41000
1019444;-0.41000
1022222;-0.39500
1025000;-0.39000
1027777;-0.38500
1030555;-0.40000
1033333;-0.40000
1036111;-0.40500
1038889;-0.41000
1041666;-0.39500
1044444;-0.40500
1047222;-0.39500
1050000;-0.40500
1052777;-0.40500
1055555;-0.40000
1058333;-0.40500
1061111;-0.39500
1063889;-0.40500
1066666;-0.41000
1069444;-0.41000
1072222;-0.39500
1075000;-0.39000
1077777;-0.38500
1080555;-0.39000
1083333;-0.39000
1086111;-0.41000
1088889;-0.40000
1091666;-0.40500
1094444;-0.40000
1097222;-0.41500
1100000;-0.40500
1102777;-0.41000
1105555;-0.39500
1108333;-0.39000
1111111;-0.38500
1113889;-0.40000
1116666;-0.40500
1119444;-0.42500
1122222;-0.40000
1125000;-0.38000
1127777;-0.40000
1130555;-0.40500
1133333;-0.42000
1136111;-0.42500
1138889;-0.41000
1141666;-0.40000
1144444;-0.39500
1147222;-0.40000
1150000;-0.40500
1152777;-0.40500
1155555;-0.40000
1158333;-0.38500
1161111;-0.38500
1163889;-0.40000
1166666;-0.40000
1169444;-0.41000
1172222;-0.38000
1175000;-0.37000
1177777;-0.38000
1180555;-0.39000
1183333;-0.40000
1186111;-0.40000
1188889;-0.39500
1191666;-0.38500
1194444;-0.39000
1197222;-0.40000
1200000;-0.41500
1202777;-0.40000
1205555;-0.39000
1208333;-0.38500
1211111;-0.38500
1213889;-0.38500
1216666;-0.39500
1219444;-0.40500
1222222;-0.39500
1225000;-0.39000
1227777;-0.38000
1230555;-0.39000
1233333;-0.40000
1236111;-0.41000
1238889;-0.41000
1241666;-0.39500
1244444;-0.41000
1247222;-0.41000
1250000;-0.42500
1252777;-0.42000
1255555;-0.42000
1258333;-0.40000
1261111;-0.40500
1263889;-0.40500
1266666;-0.41500
1269444;-0.41500
1272222;-0.40500
1275000;-0.39500
1277777;-0.38500
1280555;-0.39000
1283333;-0.39500
1286111;-0.39500
1288889;-0.37000
1291666;-0.36000
1294444;-0.35000
1297222;-0.35000
1300000;-0.34500
1302777;-0.34500
1305555;-0.32500
1308333;-0.32000
1311111;-0.32000
1313889;-0.32000
1316666;-0.32000
1319444;-0.31500
1322222;-0.31000
1325000;-0.29000
1327777;-0.29000
1330555;-0.28500
1333333;-0.30000
1336111;-0.30500
1338889;-0.31500
1341666;-0.29500
1344444;-0.29000
1347222;-0.29500
1350000;-0.30500
1352777;-0.30500
1355555;-0.29500
1358333;-0.28500
1361111;-0.29500
1363889;-0.29500
1366666;-0.31000
1369444;-0.31500
1372222;-0.29500
1375000;-0.29000
1377777;-0.28500
1380555;-0.29500
1383333;-0.30000
1386111;-0.31000
1388888;-0.31000
1391666;-0.30000
1394444;-0.30500
1397222;-0.30500
1400000;-0.31000
1402777;-0.31000
1405555;-0.31500
1408333;-0.31000
1411111;-0.31000
1413888;-0.31000
1416666;-0.31500
1419444;-0.32500
1422222;-0.31500
1425000;-0.30000
1427777;-0.30500
1430555;-0.32000
1433333;-0.32500
1436111;-0.32500
1438888;-0.32000
1441666;-0.31500
1444444;-0.32500
1447222;-0.32500
1450000;-0.34500
1452777;-0.34000
1455555;-0.33000
1458333;-0.33000
1461111;-0.34000
1463888;-0.34000
1466666;-0.34500
1469444;-0.34500
1472222;-0.33500
1475000;-0.33000
1477777;-0.33500
1480555;-0.34000
1483333;-0.35000
1486111;-0.36000
1488888;-0.34000
1491666;-0.33500
1494444;-0.33500
1497222;-0.34500
1500000;-0.35000
1502777;-0.35500
1505555;-0.34500
1508333;-0.34000
1511111;-0.34000
1513888;-0.34000
1516666;-0.34000
1519444;-0.35500
1522222;-0.36000
1525000;-0.36000
1527777;-0.35000
1530555;-0.34500
1533333;-0.34500
1536111;-0.35000
1538888;-0.35000
1541666;-0.33500
1544444;-0.33000
1547222;-0.33000
1550000;-0.35000
1552777;-0.34000
1555555;-0.32500
1558333;-0.33000
1561111;-0.33500
1563888;-0.33500
1566666;-0.34500
1569444;-0.34000
1572222;-0.34000
1575000;-0.32500
1577777;-0.33000
1580555;-0.34500
1583333;-0.35000
1586111;-0.34500
1588888;-0.34000
1591666;-0.33000
1594444;-0.34000
1597222;-0.33500
1600000;-0.35000
1602777;-0.35000
1605555;-0.33500
1608333;-0.32000
1611111;-0.30500
1613888;-0.30000
1616666;-0.30500
1619444;-0.30500
1622222;-0.28500
1625000;-0.27500
1627777;-0.27000
1630555;-0.28500
1633333;-0.28500
1636111;-0.28500
1638888;-0.27500
1641666;-0.26000
1644444;-0.25500
1647222;-0.24000
1650000;-0.24000
1652777;-0.26000
1655555;-0.24500
1658333;-0.23500
1661111;-0.22500
1663888;-0.22500
1666666;-0.23000
1669444;-0.24500
1672222;-0.23500
1675000;-0.23500
1677777;-0.23000
1680555;-0.23000
1683333;-0.24000
1686111;-0.23500
1688888;-0.22000
1691666;-0.20500
1694444;-0.20000
1697222;-0.22500
1700000;-0.27500
1702777;-0.29500
1705555;-0.30500
1708333;-0.30500
1711111;-0.32000
1713888;-0.35500
1716666;-0.36500
1719444;-0.36500
1722222;-0.37000
1725000;-0.36000
1727777;-0.36000
1730555;-0.35500
1733333;-0.37000
1736111;-0.36500
1738888;-0.37500
1741666;-0.36500
1744444;-0.36500
1747222;-0.37000
1750000;-0.38500
1752777;-0.39000
1755555;-0.38500
1758333;-0.37000
1761111;-0.37500
1763888;-0.37500
1766666;-0.38500
1769444;-0.40000
1772222;-0.38500
1775000;-0.38000
1777777;-0.39500
1780555;-0.38500
1783333;-0.40000
1786111;-0.40500
1788888;-0.41000
1791666;-0.43500
1794444;-0.47500
1797222;-0.49500
1799999;-0.51500
1802777;-0.55500
1805555;-0.60500
1808333;-0.63000
1811111;-0.62000
1813888;-0.57000
1816666;-0.49000
1819444;-0.38000
1822222;-0.25500
1824999;-0.10000
1827777;0.10500
1830555;0.36000
1833333;0.60500
1836111;0.77500
1838888;0.87000
1841666;0.80000
1844444;0.55500
1847222;0.17500
1849999;-0.16500
1852777;-0.41500
1855555;-0.51000
1858333;-0.53000
1861111;-0.49500
1863888;-0.46500
1866666;-0.45500
1869444;-0.47000
1872222;-0.44000
1874999;-0.43000
1877777;-0.42500
1880555;-0.42500
1883333;-0.42500
1886111;-0.43500
1888888;-0.43500
1891666;-0.42000
1894444;-0.42500
1897222;-0.43000
1899999;-0.43000
1902777;-0.44500
1905555;-0.44000
1908333;-0.42500
1911111;-0.43500
1913888;-0.44000
1916666;-0.45000
1919444;-0.45500
1922222;-0.45000
1924999;-0.44000
1927777;-0.43500
1930555;-0.42500
1933333;-0.44000
1936111;-0.45500
1938888;-0.44000
1941666;-0.42500
1944444;-0.42000
1947222;-0.42500
1949999;-0.43000
1952777;-0.44000
1955555;-0.43000
1958333;-0.43000
1961111;-0.43500
1963888;-0.44000
1966666;-0.44000
1969444;-0.45000
1972222;-0.45000
1974999;-0.44500
1977777;-0.43000
1980555;-0.43500
1983333;-0.43500
1986111;-0.44500
1988888;-0.44000
1991666;-0.43000
1994444;-0.42500
1997222;-0.44500
1999999;-0.44000
2002777;-0.44000
2005555;-0.45000
2008333;-0.44000
2011111;-0.43000
2013888;-0.42500
2016666;-0.43500
2019444;-0.44500
2022222;-0.42500
2024999;-0.42000
2027777;-0.42500
2030555;-0.42500
2033333;-0.43500
2036111;-0.44500
2038888;-0.43000
2041666;-0.42000
2044444;-0.43000
2047222;-0.44000
2049999;-0.45000
2052777;-0.44500
2055555;-0.43500
2058333;-0.43500
2061111;-0.44000
2063888;-0.45000
2066666;-0.45500
2069444;-0.46000
2072222;-0.47500
2074999;-0.47000
2077777;-0.46500
2080555;-0.46500
2083333;-0.47000
2086111;-0.47500
2088888;-0.47500
2091666;-0.46000
2094444;-0.46500
2097222;-0.47500
2099999;-0.48000
2102777;-0.49000
2105555;-0.48000
2108333;-0.47000
2111111;-0.47000
2113888;-0.47000
2116666;-0.46000
2119444;-0.46000
2122222;-0.44000
2124999;-0.43000
2127777;-0.41500
2130555;-0.40000
2133333;-0.40000
2136111;-0.39500
2138888;-0.37000
2141666;-0.35000
2144444;-0.34000
2147222;-0.32000
2149999;-0.33000
2152777;-0.33000
2155555;-0.32500
2158333;-0.30000
2161111;-0.30000
2163888;-0.29500
2166666;-0.29500
2169444;-0.31000
2172222;-0.30000
2174999;-0.29000
2177777;-0.28500
2180555;-0.29000
2183333;-0.29500
2186110;-0.30500
2188888;-0.28500
2191666;-0.28500
2194444;-0.29000
2197222;-0.30000
2199999;-0.31500
2202777;-0.29500
2205555;-0.28500
2208333;-0.29000
2211110;-0.28500
2213888;-0.29000
2216666;-0.30000
2219444;-0.30500
2222222;-0.30000
2224999;-0.29500
2227777;-0.29500
2230555;-0.29500
2233333;-0.31000
2236110;-0.30500
2238888;-0.30000
2241666;-0.29500
2244444;-0.29500
2247222;-0.29000
2249999;-0.30000
2252777;-0.30500
2255555;-0.31000
2258333;-0.29500
2261110;-0.29500
2263888;-0.30500
2266666;-0.32000
2269444;-0.33000
2272222;-0.31500
2274999;-0.30000
2277777;-0.30500
2280555;-0.31500
2283333;-0.32000
2286110;-0.32500
2288888;-0.32000
2291666;-0.31000
2294444;-0.32000
2297222;-0.31500
2299999;-0.33500
2302777;-0.34500
2305555;-0.31500
2308333;-0.32000
2311110;-0.31000
2313888;-0.31500
2316666;-0.32000
2319444;-0.32500
2322222;-0.31500
2324999;-0.31500
2327777;-0.31000
2330555;-0.31500
2333333;-0.32000
2336110;-0.33000
2338888;-0.31500
2341666;-0.31500
2344444;-0.30000
2347222;-0.32000
2349999;-0.32500
2352777;-0.33500
2355555;-0.32500
2358333;-0.30500
2361110;-0.31000
2363888;-0.31500
2366666;-0.32500
2369444;-0.32500
2372222;-0.31000
2374999;-0.30500
2377777;-0.30500
2380555;-0.31000
2383333;-0.32000
2386110;-0.33000
2388888;-0.30500
2391666;-0.30500
2394444;-0.30500
2397222;-0.30000
2399999;-0.31000
2402777;-0.31500
2405555;-0.30000
2408333;-0.29500
2411110;-0.29500
2413888;-0.30000
2416666;-0.30500
2419444;-0.29000
2422222;-0.28000
2424999;-0.26500
2427777;-0.26500
2430555;-0.25500
2433333;-0.25500
2436110;-0.25000
2438888;-0.23500
2441666;-0.23500
2444444;-0.22000
2447222;-0.22000
2449999;-0.21000
2452777;-0.21000
2455555;-0.19000
2458333;-0.18500
2461110;-0.18500
2463888;-0.19500
2466666;-0.21500
2469444;-0.21500
2472222;-0.21000
2474999;-0.18500
2477777;-0.19500
2480555;-0.19000
2483333;-0.19000
2486110;-0.18000
2488888;-0.16500
2491666;-0.19000
2494444;-0.24000
2497222;-0.25500
2499999;-0.27000
2502777;-0.28500
2505555;-0.29500
2508333;-0.29500
2511110;-0.30000
2513888;-0.31500
2516666;-0.33500
2519444;-0.33500
2522222;-0.32000
2524999;-0.31500
2527777;-0.31500
2530555;-0.33000
2533333;-0.32500
2536110;-0.34000
2538888;-0.33500
2541666;-0.32000
2544444;-0.32500
2547222;-0.32500
2549999;-0.35000
2552777;-0.35500
2555555;-0.34000
2558333;-0.34000
2561110;-0.32500
2563888;-0.33500
2566666;-0.34500
2569444;-0.35500
2572222;-0.35500
2574999;-0.33500
2577777;-0.32500
2580555;-0.33000
2583333;-0.36000
2586110;-0.37000
2588888;-0.39000
2591666;-0.42000
2594444;-0.46000
2597221;-0.48000
2599999;-0.53000
2602777;-0.56500
2605555;-0.57000
2608333;-0.49000
2611110;-0.35500
2613888;-0.20000
2616666;-0.02500
2619444;0.21500
2622221;0.52000
2624999;0.79000
2627777;0.93000
2630555;0.92500
2633333;0.71500
2636110;0.31000
2638888;-0.11000
2641666;-0.40500
2644444;-0.49500
2647221;-0.48000
2649999;-0.43000
2652777;-0.41000
2655555;-0.38500
2658333;-0.37500
2661110;-0.37500
2663888;-0.38500
2666666;-0.38000
2669444;-0.39000
2672221;-0.38500
2674999;-0.37500
2677777;-0.38000
2680555;-0.38500
2683333;-0.40000
2686110;-0.40000
2688888;-0.39000
2691666;-0.39000
2694444;-0.39500
2697221;-0.39000
2699999;-0.40000
2702777;-0.41500
2705555;-0.39500
2708333;-0.39000
2711110;-0.38000
2713888;-0.39500
2716666;-0.39500
2719444;-0.40000
2722221;-0.39000
2724999;-0.38500
2727777;-0.38500
2730555;-0.37000
2733333;-0.39500
2736110;-0.40500
2738888;-0.38500
2741666;-0.38500
2744444;-0.37500
2747221;-0.37000
2749999;-0.38000
2752777;-0.39500
2755555;-0.38000
2758333;-0.37000
2761110;-0.37000
2763888;-0.39000
2766666;-0.39000
2769444;-0.39000
2772221;-0.38500
2774999;-0.38000
2777777;-0.38000
2780555;-0.39000
2783333;-0.39000
2786110;-0.39500
2788888;-0.38500
2791666;-0.38000
2794444;-0.37500
2797221;-0.39000
2799999;-0.39000
2802777;-0.39500
2805555;-0.39500
2808333;-0.38500
2811110;-0.37500
2813888;-0.38500
2816666;-0.39500
2819444;-0.39000
2822221;-0.38000
2824999;-0.38000
2827777;-0.38000
2830555;-0.38500
2833333;-0.39500
2836110;-0.40500
2838888;-0.40000
2841666;-0.38500
2844444;-0.38500
2847221;-0.39000
2849999;-0.39500
2852777;-0.40000
2855555;-0.40000
2858333;-0.38500
2861110;-0.39500
2863888;-0.40000
2866666;-0.40500
2869444;-0.41500
2872221;-0.40500
2874999;-0.39500
2877777;-0.40500
2880555;-0.42000
2883333;-0.40500
2886110;-0.41000
2888888;-0.41500
2891666;-0.40500
2894444;-0.39500
2897221;-0.39500
2899999;-0.40500
2902777;-0.40000
2905555;-0.37000
2908333;-0.35000
2911110;-0.34500
2913888;-0.34000
2916666;-0.32500
2919444;-0.32000
2922221;-0.31500
2924999;-0.29500
2927777;-0.29000
2930555;-0.28500
2933333;-0.29500
2936110;-0.29000
2938888;-0.27500
2941666;-0.27500
2944444;-0.27000
2947221;-0.25500
2949999;-0.26500
2952777;-0.27000
2955555;-0.25500
2958333;-0.24500
2961110;-0.25000
2963888;-0.24500
2966666;-0.25000
2969444;-0.26500
2972221;-0.25500
2974999;-0.25000
2977777;-0.26000
2980555;-0.26000
2983332;-0.26500
2986110;-0.27000
2988888;-0.26500
2991666;-0.25000
2994444;-0.26500
2997221;-0.26500
2999999;-0.26500
3002777;-0.28000
3005555;-0.27000
3008332;-0.26000
3011110;-0.26500
3013888;-0.25500
3016666;-0.27000
3019444;-0.28000
3022221;-0.27000
3024999;-0.27500
3027777;-0.27000
3030555;-0.26500
3033332;-0.28000
3036110;-0.30000
3038888;-0.29500
3041666;-0.28500
3044444;-0.28000
3047221;-0.28000
3049999;-0.29000
3052777;-0.29500
3055555;-0.29000
3058332;-0.28000
3061110;-0.29000
3063888;-0.30000
3066666;-0.30000
3069444;-0.30500
3072221;-0.29500
3074999;-0.29000
3077777;-0.28500
3080555;-0.29500
3083332;-0.30000
3086110;-0.30500
3088888;-0.30500
3091666;-0.29500
3094444;-0.29000
3097221;-0.30000
3099999;-0.31500
3102777;-0.32000
3105555;-0.32000
3108332;-0.30000
3111110;-0.30000
3113888;-0.30500
3116666;-0.31000
3119444;-0.31500
3122221;-0.31000
3124999;-0.30000
3127777;-0.30500
3130555;-0.30500
3133332;-0.31000
3136110;-0.31500
3138888;-0.31000
3141666;-0.31000
3144444;-0.30000
3147221;-0.30500
3149999;-0.30000
3152777;-0.31000
3155555;-0.30000
3158332;-0.29500
3161110;-0.29500
3163888;-0.29000
3166666;-0.31000
3169444;-0.30000
3172221;-0.27500
3174999;-0.26500
3177777;-0.25500
3180555;-0.25000
3183332;-0.25000
3186110;-0.24500
3188888;-0.23000
3191666;-0.21000
3194444;-0.20500
3197221;-0.21500
3199999;-0.21500
3202777;-0.21000
3205555;-0.19000
3208332;-0.18500
3211110;-0.17000
3213888;-0.17500
3216666;-0.17000
3219444;-0.19500
3222221;-0.19500
3224999;-0.18500
3227777;-0.18500
3230555;-0.18000
3233332;-0.18500
3236110;-0.18500
3238888;-0.17500
3241666;-0.14500
3244444;-0.15000
3247221;-0.18000
3249999;-0.22000
3252777;-0.24500
3255555;-0.24000
3258332;-0.25000
3261110;-0.27000
3263888;-0.30000
3266666;-0.31000
3269444;-0.32500
3272221;-0.31500
3274999;-0.30500
3277777;-0.29500
3280555;-0.30000
3283332;-0.31500
3286110;-0.31500
3288888;-0.31000
3291666;-0.30500
3294444;-0.30500
3297221;-0.30500
3299999;-0.32000
3302777;-0.32500
3305555;-0.32500
3308332;-0.30500
3311110;-0.32000
3313888;-0.32500
3316666;-0.34500
3319444;-0.34500
3322221;-0.34000
3324999;-0.32500
3327777;-0.32000
3330555;-0.33000
3333332;-0.32500
3336110;-0.34500
3338888;-0.34000
3341666;-0.36000
3344444;-0.39500
3347221;-0.44000
3349999;-0.48000
3352777;-0.52500
3355555;-0.55500
3358332;-0.52000
3361110;-0.41500
3363888;-0.27000
3366666;-0.12000
3369444;0.07000
3372221;0.34500
3374999;0.64000
3377777;0.85500
3380555;0.96000
3383332;0.91500
3386110;0.65000
3388888;0.22500
3391666;-0.17000
3394443;-0.42500
3397221;-0.50000
3399999;-0.46000
3402777;-0.41000
3405555;-0.37000
3408332;-0.36500
3411110;-0.36000
3413888;-0.36500
3416666;-0.38500
3419443;-0.38000
3422221;-0.37000
3424999;-0.37000
3427777;-0.36000
3430555;-0.36500
3433332;-0.38500
3436110;-0.38000
3438888;-0.37500
3441666;-0.37000
3444443;-0.37000
3447221;-0.37500
3449999;-0.38500
3452777;-0.40000
3455555;-0.38500
3458332;-0.38500
3461110;-0.37500
3463888;-0.39000
3466666;-0.38500
3469443;-0.40500
3472221;-0.38500
3474999;-0.38000
3477777;-0.37000
3480555;-0.37000
3483332;-0.37500
3486110;-0.38000
3488888;-0.37500
3491666;-0.37000
3494443;-0.36500
3497221;-0.38500
3499999;-0.38500
3502777;-0.38000
3505555;-0.37000
3508332;-0.36500
3511110;-0.36000
3513888;-0.37000
3516666;-0.37500
3519443;-0.39500
3522221;-0.38500
3524999;-0.37500
3527777;-0.37000
3530555;-0.38000
3533332;-0.38500
3536110;-0.40000
3538888;-0.38500
3541666;-0.37500
3544443;-0.37000
3547221;-0.38500
3549999;-0.39500
3552777;-0.39000
3555555;-0.38000
3558332;-0.37500
3561110;-0.37500
3563888;-0.38000
3566666;-0.38000
3569443;-0.38000
3572221;-0.37000
3574999;-0.36000
3577777;-0.35500
3580555;-0.35500
3583332;-0.36500
3586110;-0.37500
3588888;-0.37500
3591666;-0.37000
3594443;-0.35500
3597221;-0.38000
3599999;-0.37000
3602777;-0.37500
3605555;-0.37500
3608332;-0.36500
3611110;-0.37000
3613888;-0.38000
3616666;-0.38500
3619443;-0.39000
3622221;-0.38500
3624999;-0.40000
3627777;-0.38000
3630555;-0.39000
3633332;-0.39000
3636110;-0.39500
3638888;-0.38000
3641666;-0.37500
3644443;-0.37500
3647221;-0.37000
3649999;-0.36000
3652777;-0.37000
3655555;-0.36000
3658332;-0.34000
3661110;-0.32500
3663888;-0.33000
3666666;-0.32000
3669443;-0.32000
3672221;-0.30000
3674999;-0.28500
3677777;-0.27000
3680555;-0.27000
3683332;-0.26000
3686110;-0.27500
3688888;-0.26000
3691666;-0.26000
3694443;-0.23000
3697221;-0.25500
3699999;-0.25000
3702777;-0.25500
3705555;-0.25500
3708332;-0.24000
3711110;-0.23500
3713888;-0.23500
3716666;-0.25000
3719443;-0.25000
3722221;-0.24500
3724999;-0.23500
3727777;-0.23000
3730555;-0.24500
3733332;-0.24000
3736110;-0.25000
3738888;-0.25000
3741666;-0.24000
3744443;-0.23500
3747221;-0.24000
3749999;-0.26000
3752777;-0.27000
3755555;-0.26000
3758332;-0.25000
3761110;-0.24000
3763888;-0.23000
3766666;-0.25500
3769443;-0.27000
3772221;-0.26500
3774999;-0.25000
3777777;-0.24500
3780554;-0.26000
3783332;-0.26500
3786110;-0.27000
3788888;-0.26000
3791666;-0.25500
3794443;-0.26000
3797221;-0.27000
3799999;-0.27000
3802777;-0.27000
3805554;-0.27000
3808332;-0.26500
3811110;-0.26000
3813888;-0.26000
3816666;-0.27500
3819443;-0.28000
3822221;-0.26500
3824999;-0.26000
3827777;-0.26000
3830554;-0.27000
3833332;-0.27000
3836110;-0.28500
3838888;-0.29000
3841666;-0.28000
3844443;-0.27500
3847221;-0.28000
3849999;-0.28500
3852777;-0.29000
3855554;-0.28000
3858332;-0.27000
3861110;-0.27000
3863888;-0.27000
3866666;-0.28500
3869443;-0.28500
3872221;-0.28500
3874999;-0.26000
3877777;-0.26500
3880554;-0.27000
3883332;-0.28500
3886110;-0.28500
3888888;-0.28000
3891666;-0.26500
3894443;-0.26000
3897221;-0.27000
3899999;-0.27500
3902777;-0.29500
3905554;-0.29000
3908332;-0.28500
3911110;-0.29500
3913888;-0.27000
3916666;-0.29000
3919443;-0.29500
3922221;-0.28500
3924999;-0.27000
3927777;-0.27000
3930554;-0.27500
3933332;-0.27500
3936110;-0.28500
3938888;-0.27000
3941666;-0.24500
3944443;-0.24500
3947221;-0.23000
3949999;-0.23000
3952777;-0.24000
3955554;-0.22000
3958332;-0.20500
3961110;-0.20500
3963888;-0.21500
3966666;-0.21000
3969443;-0.20500
3972221;-0.18000
3974999;-0.17000
3977777;-0.15500
3980554;-0.15000
3983332;-0.16000
3986110;-0.17500
3988888;-0.16500
3991666;-0.15500
3994443;-0.16000
3997221;-0.18000
3999999;-0.18500
4002777;-0.18500
4005554;-0.17000
4008332;-0.15000
4011110;-0.15000
4013888;-0.15000
4016666;-0.13000
4019443;-0.12500
4022221;-0.11000
4024999;-0.11000
4027777;-0.14000
4030554;-0.16500
4033332;-0.20000
4036110;-0.21500
4038888;-0.21000
4041666;-0.21000
4044443;-0.21500
4047221;-0.24000
4049999;-0.25500
4052777;-0.28000
4055554;-0.28000
4058332;-0.27000
4061110;-0.27000
4063888;-0.28000
4066666;-0.29500
4069443;-0.30500
4072221;-0.31000
4074999;-0.30500
4077777;-0.29500
4080554;-0.30500
4083332;-0.29500
4086110;-0.31000
4088888;-0.29500
4091666;-0.29000
4094443;-0.29500
4097221;-0.30000
4099999;-0.30000
4102777;-0.32000
4105554;-0.30000
4108332;-0.30500
4111110;-0.29000
4113888;-0.30000
4116666;-0.32000
4119443;-0.35000
4122221;-0.38500
4124999;-0.40500
4127777;-0.41500
4130554;-0.45500
4133332;-0.51500
4136110;-0.54500
4138888;-0.51000
4141666;-0.40500
4144443;-0.28500
4147221;-0.14500
4149999;0.02000
4152777;0.27500
4155554;0.57500
4158332;0.79500
4161110;0.91000
4163888;0.88500
4166666;0.73000
4169443;0.37000
4172221;-0.01000
4174999;-0.27500
4177777;-0.41500
4180554;-0.44000
4183332;-0.42500
4186110;-0.39500
4188888;-0.36500
4191665;-0.35000
4194443;-0.33500
4197221;-0.33000
4199999;-0.33500
4202777;-0.36000
4205554;-0.35000
4208332;-0.35000
4211110;-0.34000
4213888;-0.34000
4216665;-0.34500
4219443;-0.35500
4222221;-0.34500
4224999;-0.33500
4227777;-0.32500
4230554;-0.33500
4233332;-0.33500
4236110;-0.35000
4238888;-0.34500
4241665;-0.34000
4244443;-0.33500
4247221;-0.34000
4249999;-0.36000
4252777;-0.36000
4255554;-0.34000
4258332;-0.33500
4261110;-0.33500
4263888;-0.35000
4266665;-0.34000
4269443;-0.35500
4272221;-0.35000
4274999;-0.32500
4277777;-0.33500
4280554;-0.34000
4283332;-0.34500
4286110;-0.35500
4288888;-0.35500
4291665;-0.35500
4294443;-0.35000
4297221;-0.35500
4299999;-0.36000
4302777;-0.36000
4305554;-0.35000
4308332;-0.34000
4311110;-0.33500
4313888;-0.34000
4316665;-0.34500
4319443;-0.35000
4322221;-0.34500
4324999;-0.35000
4327777;-0.33500
4330554;-0.34500
4333332;-0.34500
4336110;-0.35500
4338888;-0.36000
4341665;-0.34000
4344443;-0.34000
4347221;-0.34500
4349999;-0.34500
4352777;-0.35000
4355554;-0.35000
4358332;-0.34000
4361110;-0.33500
4363888;-0.34000
4366665;-0.36000
4369443;-0.36000
4372221;-0.35000
4374999;-0.34500
4377777;-0.34500
4380554;-0.34500
4383332;-0.36500
4386110;-0.37000
4388888;-0.36000
4391665;-0.34500
4394443;-0.34000
4397221;-0.35500
4399999;-0.36500
4402777;-0.37000
4405554;-0.37500
4408332;-0.37000
4411110;-0.37000
4413888;-0.37500
4416665;-0.37000
4419443;-0.37500
4422221;-0.36500
4424999;-0.36000
4427777;-0.37000
4430554;-0.37000
4433332;-0.37500
4436110;-0.39000
4438888;-0.38000
4441665;-0.36500
4444443;-0.35500
4447221;-0.34500
4449999;-0.35500
4452777;-0.36000
4455554;-0.33000
4458332;-0.31500
4461110;-0.30000
4463888;-0.30500
4466665;-0.31000
4469443;-0.31000
4472221;-0.29500
4474999;-0.27500
4477777;-0.26500
4480554;-0.27500
4483332;-0.26500
4486110;-0.27000
4488888;-0.25500
4491665;-0.26500
4494443;-0.24000
4497221;-0.23500
4499999;-0.24000
4502777;-0.25000
4505554;-0.24000
4508332;-0.22500
4511110;-0.22000
4513888;-0.23000
4516665;-0.24000
4519443;-0.23500
4522221;-0.23000
4524999;-0.21500
4527777;-0.22000
4530554;-0.21000
4533332;-0.22500
4536110;-0.23000
4538888;-0.23000
4541665;-0.21500
4544443;-0.21000
4547221;-0.22500
4549999;-0.23000
4552777;-0.24500
4555554;-0.23500
4558332;-0.23500
4561110;-0.22000
4563888;-0.23500
4566665;-0.24000
4569443;-0.24500
4572221;-0.24500
4574999;-0.23500
4577776;-0.22500
4580554;-0.22500
4583332;-0.23500
4586110;-0.25000
4588888;-0.23500
4591665;-0.23000
4594443;-0.23500
4597221;-0.24500
4599999;-0.25500
4602776;-0.27500
4605554;-0.25000
4608332;-0.25000
4611110;-0.24500
4613888;-0.25000
4616665;-0.25500
4619443;-0.26000
4622221;-0.25500
4624999;-0.25000
4627776;-0.24500
4630554;-0.26000
4633332;-0.26500
4636110;-0.27500
4638888;-0.28500
4641665;-0.26500
4644443;-0.25000
4647221;-0.26500
4649999;-0.27500
4652776;-0.28500
4655554;-0.27500
4658332;-0.27000
4661110;-0.26500
4663888;-0.27500
4666665;-0.28500
4669443;-0.28500
4672221;-0.27500
4674999;-0.27500
4677776;-0.27000
4680554;-0.28000
4683332;-0.27000
4686110;-0.27500
4688888;-0.27500
4691665;-0.26000
4694443;-0.24500
4697221;-0.25500
4699999;-0.27500
4702776;-0.28000
4705554;-0.27000
4708332;-0.26500
4711110;-0.25500
4713888;-0.27000
4716665;-0.28500
4719443;-0.30000
4722221;-0.30500
4724999;-0.28000
4727776;-0.27500
4730554;-0.26500
4733332;-0.28500
4736110;-0.28500
4738888;-0.27500
4741665;-0.26500
4744443;-0.26500
4747221;-0.26500
4749999;-0.27500
4752776;-0.26500
4755554;-0.26000
4758332;-0.25000
4761110;-0.24500
4763888;-0.25500
4766665;-0.24500
4769443;-0.24000
4772221;-0.23000
4774999;-0.21500
4777776;-0.20000
4780554;-0.19000
4783332;-0.19500
4786110;-0.19000
4788888;-0.18500
4791665;-0.17000
4794443;-0.16000
4797221;-0.16000
4799999;-0.16000
4802776;-0.18500
4805554;-0.17000
4808332;-0.16000
4811110;-0.16500
4813888;-0.18500
4816665;-0.19500
4819443;-0.20500
4822221;-0.20000
4824999;-0.17000
4827776;-0.16000
4830554;-0.16500
4833332;-0.16500
4836110;-0.16000
4838888;-0.15500
4841665;-0.14500
4844443;-0.14000
4847221;-0.16000
4849999;-0.19500
4852776;-0.22500
4855554;-0.22500
4858332;-0.23000
4861110;-0.24500
4863888;-0.26000
4866665;-0.28000
4869443;-0.29500
4872221;-0.29000
4874999;-0.29000
4877776;-0.28000
4880554;-0.29500
4883332;-0.29000
4886110;-0.30500
4888888;-0.30500
4891665;-0.29000
4894443;-0.28500
4897221;-0.29000
4899999;-0.30000
4902776;-0.31000
4905554;-0.29500
4908332;-0.28500
4911110;-0.30500
4913888;-0.29500
4916665;-0.30000
4919443;-0.30500
4922221;-0.29500
4924999;-0.29500
4927776;-0.30000
4930554;-0.31500
4933332;-0.34500
4936110;-0.39500
4938888;-0.42500
4941665;-0.44500
4944443;-0.48500
4947221;-0.52000
4949999;-0.52000
4952776;-0.42500
4955554;-0.29500
4958332;-0.14000
4961110;0.05000
4963887;0.29500
4966665;0.57500
4969443;0.78500
4972221;0.92500
4974999;0.91000
4977776;0.71000
4980554;0.32500
4983332;-0.06500
4986110;-0.33000
4988887;-0.43000
4991665;-0.44000
4994443;-0.37500
4997221;-0.37000
4999999;-0.36000
5002776;-0.36000
5005554;-0.35000
5008332;-0.36000
5011110;-0.33000
5013887;-0.33500
5016665;-0.34500
5019443;-0.34500
5022221;-0.34500
5024999;-0.34000
5027776;-0.34500
5030554;-0.35000
5033332;-0.35000
5036110;-0.37500
5038887;-0.36000
5041665;-0.36000
5044443;-0.35000
5047221;-0.35500
5049999;-0.36500
5052776;-0.38000
5055554;-0.37500
5058332;-0.35000
5061110;-0.34500
5063887;-0.34500
5066665;-0.36500
5069443;-0.36500
5072221;-0.36000
5074999;-0.34500
5077776;-0.34500
5080554;-0.34500
5083332;-0.35500
5086110;-0.36000
5088887;-0.35500
5091665;-0.35500
5094443;-0.35000
5097221;-0.35500
5099999;-0.37000
5102776;-0.36500
5105554;-0.36000
5108332;-0.35500
5111110;-0.34500
5113887;-0.35500
5116665;-0.35500
5119443;-0.37500
5122221;-0.36000
5124999;-0.35000
5127776;-0.34500
5130554;-0.34500
5133332;-0.35000
5136110;-0.36500
5138887;-0.34500
5141665;-0.33500
5144443;-0.33500
5147221;-0.35000
5149999;-0.34500
5152776;-0.35000
5155554;-0.35000
5158332;-0.34000
5161110;-0.34500
5163887;-0.35500
5166665;-0.35500
5169443;-0.35000
5172221;-0.35500
5174999;-0.33500
5177776;-0.33500
5180554;-0.33500
5183332;-0.35000
5186110;-0.35000
5188887;-0.34500
5191665;-0.33500
5194443;-0.32500
5197221;-0.34000
5199999;-0.34500
5202776;-0.36000
5205554;-0.35500
5208332;-0.34500
5211110;-0.35500
5213887;-0.36000
5216665;-0.38000
5219443;-0.38500
5222221;-0.37500
5224999;-0.37000
5227776;-0.38000
5230554;-0.37500
5233332;-0.39500
5236110;-0.40000
5238887;-0.38500
5241665;-0.38500
5244443;-0.39000
5247221;-0.39500
5249999;-0.41000
5252776;-0.42000
5255554;-0.40500
5258332;-0.39000
5261110;-0.38500
5263887;-0.38500
5266665;-0.38500
5269443;-0.38500
5272221;-0.36000
5274999;-0.34000
5277776;-0.32000
5280554;-0.31500
5283332;-0.30500
5286110;-0.30000
5288887;-0.28500
5291665;-0.27000
5294443;-0.26000
5297221;-0.26000
5299999;-0.26500
5302776;-0.27000
5305554;-0.24500
5308332;-0.24000
5311110;-0.23500
5313887;-0.23000
5316665;-0.24500
5319443;-0.23500
5322221;-0.21500
5324999;-0.22500
5327776;-0.22000
5330554;-0.23500
5333332;-0.23000
5336110;-0.24000
5338887;-0.23000
5341665;-0.22000
5344443;-0.21500
5347221;-0.22000
5349999;-0.22500
5352776;-0.22500
5355554;-0.23000
5358332;-0.21000
5361110;-0.22000
5363887;-0.22000
5366665;-0.22500
5369443;-0.22500
5372221;-0.22500
5374998;-0.21500
5377776;-0.21500
5380554;-0.22000
5383332;-0.22500
5386110;-0.24500
5388887;-0.23000
5391665;-0.22500
5394443;-0.23000
5397221;-0.22500
5399998;-0.24500
5402776;-0.25500
5405554;-0.24000
5408332;-0.23500
5411110;-0.23500
5413887;-0.23500
5416665;-0.24000
5419443;-0.24500
5422221;-0.23500
5424998;-0.23500
5427776;-0.23500
5430554;-0.24000
5433332;-0.25000
5436110;-0.26000
5438887;-0.25000
5441665;-0.23000
5444443;-0.23000
5447221;-0.23500
5449998;-0.25500
5452776;-0.27000
5455554;-0.25500
5458332;-0.25000
5461110;-0.25000
5463887;-0.25500
5466665;-0.26500
5469443;-0.27500
5472221;-0.27000
5474998;-0.26000
5477776;-0.26000
5480554;-0.27000
5483332;-0.26000
5486110;-0.27000
5488887;-0.27000
5491665;-0.26000
5494443;-0.26500
5497221;-0.25500
5499998;-0.26500
5502776;-0.26500
5505554;-0.26000
5508332;-0.26000
5511110;-0.25500
5513887;-0.24500
5516665;-0.26500
5519443;-0.27000
5522221;-0.26500
5524998;-0.25000
5527776;-0.25500
5530554;-0.26000
5533332;-0.26500
5536110;-0.27000
5538887;-0.27500
5541665;-0.26000
5544443;-0.25000
5547221;-0.24500
5549998;-0.26500
5552776;-0.26500
5555554;-0.26000
5558332;-0.25000
5561110;-0.26000
5563887;-0.25500
5566665;-0.25500
5569443;-0.24500
5572221;-0.25000
5574998;-0.23500
5577776;-0.21000
5580554;-0.22500
5583332;-0.23000
5586110;-0.22000
5588887;-0.20500
5591665;-0.19000
5594443;-0.18000
5597221;-0.18500
5599998;-0.18500
5602776;-0.19500
5605554;-0.18000
5608332;-0.16500
5611110;-0.15000
5613887;-0.13500
5616665;-0.14000
5619443;-0.14500
5622221;-0.14500
5624998;-0.14500
5627776;-0.15500
5630554;-0.15500
5633332;-0.15000
5636110;-0.16000
5638887;-0.15500
5641665;-0.14500
5644443;-0.12500
5647221;-0.10000
5649998;-0.10500
5652776;-0.12500
5655554;-0.16000
5658332;-0.17500
5661110;-0.19000
5663887;-0.20000
5666665;-0.23000
5669443;-0.24500
5672221;-0.25500
5674998;-0.25500
5677776;-0.27000
5680554;-0.27500
5683332;-0.28500
5686110;-0.27500
5688887;-0.27500
5691665;-0.27500
5694443;-0.27500
5697221;-0.27500
5699998;-0.28500
5702776;-0.28500
5705554;-0.28500
5708332;-0.28000
5711110;-0.28500
5713887;-0.28500
5716665;-0.30000
5719443;-0.29500
5722221;-0.28500
5724998;-0.29000
5727776;-0.28500
5730554;-0.29000
5733332;-0.29500
5736110;-0.30000
5738887;-0.29500
5741665;-0.29500
5744443;-0.29500
5747221;-0.30000
5749998;-0.31000
5752776;-0.35000
5755554;-0.37000
5758332;-0.40500
5761109;-0.42000
5763887;-0.43500
5766665;-0.47000
5769443;-0.51500
5772221;-0.53500
5774998;-0.48000
5777776;-0.36500
5780554;-0.21500
5783332;-0.07000
5786109;0.12500
5788887;0.40000
5791665;0.68000
5794443;0.88000
5797221;0.99000
5799998;0.98000
5802776;0.79000
5805554;0.44500
5808332;0.04500
5811109;-0.26500
5813887;-0.44000
5816665;-0.45500
5819443;-0.42500
5822221;-0.37000
5824998;-0.33000
5827776;-0.34000
5830554;-0.35500
5833332;-0.36000
5836109;-0.35000
5838887;-0.36000
5841665;-0.34000
5844443;-0.34500
5847221;-0.34500
5849998;-0.36500
5852776;-0.36000
5855554;-0.35000
5858332;-0.35000
5861109;-0.34000
5863887;-0.35000
5866665;-0.35000
5869443;-0.35500
5872221;-0.35000
5874998;-0.34000
5877776;-0.33500
5880554;-0.34500
5883332;-0.34500
5886109;-0.35000
5888887;-0.34500
5891665;-0.34500
5894443;-0.34000
5897221;-0.35000
5899998;-0.36500
5902776;-0.36500
5905554;-0.35500
5908332;-0.33500
5911109;-0.33500
5913887;-0.34000
5916665;-0.35500
5919443;-0.35500
5922221;-0.35000
5924998;-0.34500
5927776;-0.34000
5930554;-0.34500
5933332;-0.35500
5936109;-0.36000
5938887;-0.36000
5941665;-0.35000
5944443;-0.34000
5947221;-0.33500
5949998;-0.34500
5952776;-0.35000
5955554;-0.33500
5958332;-0.34000
5961109;-0.33500
5963887;-0.33000
5966665;-0.34000
5969443;-0.36500
5972221;-0.34500
5974998;-0.33000
5977776;-0.33500
5980554;-0.33000
5983332;-0.34500
5986109;-0.35000
5988887;-0.34500
5991665;-0.34000
5994443;-0.33500
5997221;-0.35000
5999998;-0.34500
6002776;-0.36500
6005554;-0.34000
6008332;-0.33500
6011109;-0.33500
6013887;-0.33500
6016665;-0.34500
6019443;-0.35000
6022221;-0.34500
6024998;-0.33500
6027776;-0.33500
6030554;-0.33500
6033332;-0.35500
6036109;-0.35000
6038887;-0.34000
6041665;-0.33500
6044443;-0.33500
6047221;-0.33500
6049998;-0.34500
6052776;-0.35500
6055554;-0.35000
6058332;-0.34000
6061109;-0.34500
6063887;-0.35000
6066665;-0.35000
6069443;-0.35500
6072221;-0.35500
6074998;-0.34500
6077776;-0.34000
6080554;-0.34500
6083332;-0.34000
6086109;-0.34500
6088887;-0.34000
6091665;-0.32000
6094443;-0.32000
6097221;-0.32500
6099998;-0.33000
6102776;-0.33500
6105554;-0.32000
6108332;-0.30000
6111109;-0.29500
6113887;-0.30500
6116665;-0.28000
6119443;-0.28000
6122221;-0.26500
6124998;-0.25000
6127776;-0.22500
6130554;-0.24000
6133332;-0.24500
6136109;-0.25500
6138887;-0.23000
6141665;-0.22000
6144443;-0.21000
6147221;-0.21500
6149998;-0.22500
6152776;-0.23000
6155554;-0.22000
6158332;-0.22000
6161109;-0.21500
6163887;-0.21500
6166665;-0.22000
6169443;-0.23500
6172220;-0.24000
6174998;-0.21500
6177776;-0.21500
6180554;-0.21500
6183332;-0.23000
6186109;-0.23000
6188887;-0.22500
6191665;-0.22000
6194443;-0.21500
6197220;-0.21500
6199998;-0.23000
6202776;-0.24000
6205554;-0.23500
6208332;-0.21000
6211109;-0.22500
6213887;-0.21500
6216665;-0.23000
6219443;-0.23500
6222220;-0.24000
6224998;-0.23500
6227776;-0.22500
6230554;-0.23500
6233332;-0.24000
6236109;-0.26000
6238887;-0.26500
6241665;-0.25000
6244443;-0.24500
6247220;-0.24500
6249998;-0.26500
6252776;-0.26500
6255554;-0.26000
6258332;-0.27000
6261109;-0.23500
6263887;-0.24500
6266665;-0.25500
6269443;-0.26500
6272220;-0.26000
6274998;-0.25000
6277776;-0.25000
6280554;-0.25000
6283332;-0.25500
6286109;-0.27000
6288887;-0.25000
6291665;-0.26000
6294443;-0.25000
6297220;-0.25000
6299998;-0.26500
6302776;-0.27500
6305554;-0.27500
6308332;-0.26000
6311109;-0.26000
6313887;-0.26000
6316665;-0.26500
6319443;-0.27500
6322220;-0.28500
6324998;-0.27000
6327776;-0.26500
6330554;-0.26500
6333332;-0.28000
6336109;-0.29000
6338887;-0.28000
6341665;-0.27500
6344443;-0.27000
6347220;-0.28000
6349998;-0.27000
6352776;-0.27500
6355554;-0.27500
6358332;-0.27000
6361109;-0.25500
6363887;-0.26000
6366665;-0.26500
6369443;-0.28000
6372220;-0.26500
6374998;-0.26000
6377776;-0.26500
6380554;-0.27000
6383332;-0.28000
6386109;-0.28000
6388887;-0.27500
6391665;-0.26000
6394443;-0.25500
6397220;-0.24500
6399998;-0.23500
6402776;-0.26000
6405554;-0.23500
6408332;-0.21000
6411109;-0.19500
6413887;-0.20000
6416665;-0.21000
6419443;-0.21500
6422220;-0.21000
6424998;-0.18500
6427776;-0.17500
6430554;-0.16500
6433332;-0.16500
6436109;-0.17500
6438887;-0.15000
6441665;-0.13500
6444443;-0.14000
6447220;-0.15000
6449998;-0.18000
6452776;-0.19500
6455554;-0.18500
6458332;-0.17000
6461109;-0.16000
6463887;-0.16500
6466665;-0.16000
6469443;-0.15000
6472220;-0.13000
6474998;-0.11500
6477776;-0.15000
6480554;-0.19500
6483332;-0.21500
6486109;-0.23000
6488887;-0.23500
6491665;-0.24000
6494443;-0.25000
6497220;-0.26500
6499998;-0.28500
6502776;-0.30500
6505554;-0.30000
6508332;-0.29000
6511109;-0.30000
6513887;-0.29500
6516665;-0.30500
6519443;-0.31000
6522220;-0.30500
6524998;-0.30000
6527776;-0.30000
6530554;-0.30000
6533332;-0.31000
6536109;-0.31500
6538887;-0.30500
6541665;-0.29500
6544443;-0.30000
6547220;-0.30000
6549998;-0.30500
6552776;-0.31500
6555554;-0.30500
6558331;-0.29500
6561109;-0.28500
6563887;-0.29500
6566665;-0.30500
6569443;-0.31500
6572220;-0.31000
6574998;-0.31500
6577776;-0.31000
6580554;-0.34000
6583331;-0.39000
6586109;-0.44000
6588887;-0.45500
6591665;-0.48000
6594443;-0.52000
6597220;-0.53500
6599998;-0.47500
6602776;-0.34500
6605554;-0.18500
6608331;-0.01000
6611109;0.23000
6613887;0.51000
6616665;0.75500
6619443;0.91500
6622220;0.96000
6624998;0.84500
6627776;0.52500
6630554;0.08500
6633331;-0.28000
6636109;-0.46000
6638887;-0.48500
6641665;-0.42000
6644443;-0.37000
6647220;-0.35000
6649998;-0.35000
6652776;-0.36500
6655554;-0.36000
6658331;-0.35500
6661109;-0.34500
6663887;-0.35000
6666665;-0.36000
6669443;-0.37000
6672220;-0.37000
6674998;-0.36500
6677776;-0.36000
6680554;-0.36500
6683331;-0.37000
6686109;-0.37000
6688887;-0.36500
6691665;-0.37000
6694443;-0.34500
6697220;-0.35500
6699998;-0.37000
6702776;-0.38000
6705554;-0.37000
6708331;-0.36000
6711109;-0.34500
6713887;-0.35000
6716665;-0.36000
6719443;-0.37000
6722220;-0.36500
6724998;-0.35500
6727776;-0.35000
6730554;-0.35000
6733331;-0.37000
6736109;-0.37000
6738887;-0.35000
6741665;-0.36000
6744443;-0.35000
6747220;-0.35500
6749998;-0.36500
6752776;-0.37000
6755554;-0.35000
6758331;-0.35000
6761109;-0.34000
6763887;-0.35000
6766665;-0.36500
6769443;-0.38000
6772220;-0.36000
6774998;-0.36500
6777776;-0.35500
6780554;-0.35000
6783331;-0.36000
6786109;-0.36500
6788887;-0.36500
6791665;-0.35000
6794443;-0.35000
6797220;-0.35000
6799998;-0.35500
6802776;-0.36000
6805554;-0.35500
6808331;-0.34000
6811109;-0.34000
6813887;-0.34000
6816665;-0.35000
6819443;-0.35000
6822220;-0.35000
6824998;-0.33500
6827776;-0.33500
6830554;-0.35000
6833331;-0.35000
6836109;-0.36500
6838887;-0.36000
6841665;-0.36000
6844443;-0.36000
6847220;-0.36000
6849998;-0.37000
6852776;-0.38000
6855554;-0.37000
6858331;-0.36500
6861109;-0.35000
6863887;-0.35000
6866665;-0.35500
6869443;-0.36500
6872220;-0.36500
6874998;-0.36000
6877776;-0.35000
6880554;-0.36000
6883331;-0.37000
6886109;-0.37000
6888887;-0.35500
6891665;-0.34000
6894443;-0.33500
6897220;-0.33000
6899998;-0.34000
6902776;-0.34500
6905554;-0.33000
6908331;-0.32000
6911109;-0.31500
6913887;-0.30500
6916665;-0.31500
6919443;-0.31500
6922220;-0.30000
6924998;-0.28500
6927776;-0.28000
6930554;-0.29000
6933331;-0.29000
6936109;-0.29000
6938887;-0.28500
6941665;-0.27500
6944442;-0.25000
6947220;-0.24500
6949998;-0.25000
6952776;-0.25500
6955554;-0.24500
6958331;-0.24500
6961109;-0.23000
6963887;-0.24000
6966665;-0.25500
6969442;-0.25500
6972220;-0.24500
6974998;-0.22500
6977776;-0.22500
6980554;-0.23500
6983331;-0.22500
6986109;-0.23500
6988887;-0.23000
6991665;-0.23000
6994442;-0.23000
6997220;-0.24500
6999998;-0.24500
7002776;-0.25000
7005554;-0.25000
7008331;-0.24500
7011109;-0.24500
7013887;-0.25000
7016665;-0.26500
7019442;-0.26500
7022220;-0.25500
7024998;-0.24000
7027776;-0.24000
7030554;-0.24500
7033331;-0.25500
7036109;-0.27000
7038887;-0.26000
7041665;-0.26000
7044442;-0.26500
7047220;-0.26000
7049998;-0.26000
7052776;-0.28000
7055554;-0.27500
7058331;-0.25500
7061109;-0.26000
7063887;-0.28000
7066665;-0.28500
7069442;-0.28000
7072220;-0.28000
7074998;-0.27000
7077776;-0.27500
7080554;-0.27000
7083331;-0.29000
7086109;-0.30000
7088887;-0.29500
7091665;-0.28000
7094442;-0.28500
7097220;-0.28000
7099998;-0.28500
7102776;-0.29000
7105554;-0.29500
7108331;-0.29000
7111109;-0.28500
7113887;-0.30000
7116665;-0.30000
7119442;-0.31000
7122220;-0.30000
7124998;-0.28500
7127776;-0.27500
7130554;-0.28500
7133331;-0.29000
7136109;-0.30000
7138887;-0.29500
7141665;-0.29500
7144442;-0.29000
7147220;-0.29500
7149998;-0.30500
7152776;-0.30000
7155554;-0.30500
7158331;-0.29500
7161109;-0.28500
7163887;-0.29000
7166665;-0.29500
7169442;-0.30000
7172220;-0.30000
7174998;-0.28500
7177776;-0.29000
7180554;-0.29500
7183331;-0.29500
7186109;-0.29500
7188887;-0.30000
7191665;-0.28500
7194442;-0.28000
7197220;-0.29000
7199998;-0.30500
7202776;-0.31000
7205554;-0.29500
7208331;-0.27000
7211109;-0.25500
7213887;-0.26000
7216665;-0.25500
7219442;-0.26000
7222220;-0.25500
7224998;-0.22000
7227776;-0.22000
7230554;-0.20500
7233331;-0.22500
7236109;-0.22000
7238887;-0.21000
7241665;-0.19000
7244442;-0.18000
7247220;-0.17000
7249998;-0.17000
7252776;-0.18000
7255554;-0.17500
7258331;-0.16000
7261109;-0.18500
7263887;-0.19500
7266665;-0.20000
7269442;-0.19500
7272220;-0.18000
7274998;-0.17000
7277776;-0.16500
7280554;-0.16000
7283331;-0.15000
7286109;-0.14000
7288887;-0.13000
7291665;-0.15500
7294442;-0.18500
7297220;-0.22000
7299998;-0.23000
7302776;-0.23500
7305554;-0.24000
7308331;-0.24000
7311109;-0.24500
7313887;-0.27000
7316665;-0.29000
7319442;-0.30500
7322220;-0.31000
7324998;-0.30500
7327776;-0.29000
7330554;-0.30500
7333331;-0.30500
7336109;-0.31500
7338887;-0.32000
7341665;-0.32000
7344442;-0.31000
7347220;-0.32000
7349998;-0.32500
7352776;-0.33000
7355553;-0.32500
7358331;-0.32000
7361109;-0.32000
7363887;-0.33000
7366665;-0.33500
7369442;-0.34500
7372220;-0.34000
7374998;-0.32500
7377776;-0.33000
7380553;-0.33000
7383331;-0.33000
7386109;-0.34000
7388887;-0.34500
7391665;-0.37500
7394442;-0.40000
7397220;-0.43000
7399998;-0.46500
7402776;-0.52500
7405553;-0.58000
7408331;-0.55500
7411109;-0.47000
7413887;-0.33500
7416665;-0.20000
7419442;-0.03000
7422220;0.20500
7424998;0.50000
7427776;0.74000
7430553;0.88500
7433331;0.90000
7436109;0.73000
7438887;0.39500
7441665;0.01500
7444442;-0.27500
7447220;-0.43500
7449998;-0.48500
7452776;-0.46500
7455553;-0.42500
7458331;-0.40000
7461109;-0.38500
7463887;-0.38500
7466665;-0.39500
7469442;-0.38500
7472220;-0.37500
7474998;-0.37500
7477776;-0.37000
7480553;-0.36500
7483331;-0.37500
7486109;-0.39000
7488887;-0.37500
7491665;-0.37000
7494442;-0.35000
7497220;-0.35500
7499998;-0.37000
7502776;-0.37000
7505553;-0.37000
7508331;-0.36000
7511109;-0.36000
7513887;-0.37500
7516665;-0.37500
7519442;-0.38000
7522220;-0.38000
7524998;-0.37000
7527776;-0.37500
7530553;-0.37500
7533331;-0.38000
7536109;-0.39500
7538887;-0.40500
7541665;-0.39000
7544442;-0.37500
7547220;-0.37500
7549998;-0.38000
7552776;-0.40000
7555553;-0.38000
7558331;-0.37500
7561109;-0.38000
7563887;-0.37500
7566665;-0.39500
7569442;-0.40000
7572220;-0.39500
7574998;-0.38000
7577776;-0.38000
7580553;-0.37500
7583331;-0.38500
7586109;-0.40000
7588887;-0.38000
7591665;-0.37000
7594442;-0.38500
7597220;-0.39000
7599998;-0.38000
7602776;-0.40000
7605553;-0.39500
7608331;-0.38500
7611109;-0.37500
7613887;-0.36500
7616665;-0.36000
7619442;-0.37500
7622220;-0.38000
7624998;-0.37000
7627776;-0.38000
7630553;-0.37500
7633331;-0.39000
7636109;-0.40500
7638887;-0.39000
7641665;-0.39500
7644442;-0.39000
7647220;-0.38000
7649998;-0.39500
7652776;-0.41000
7655553;-0.41000
7658331;-0.41000
7661109;-0.41500
7663887;-0.41500
7666665;-0.42500
7669442;-0.44000
7672220;-0.44000
7674998;-0.43000
7677776;-0.43000
7680553;-0.43000
7683331;-0.43000
7686109;-0.42500
7688887;-0.41000
7691665;-0.40500
7694442;-0.41000
7697220;-0.40500
7699998;-0.41000
7702776;-0.41500
7705553;-0.40500
7708331;-0.40500
7711109;-0.38500
7713887;-0.38500
7716665;-0.38000
7719442;-0.39000
7722220;-0.35500
7724998;-0.33000
7727776;-0.32000
7730553;-0.30500
7733331;-0.31000
7736109;-0.31500
7738887;-0.30500
7741664;-0.28500
7744442;-0.28000
7747220;-0.27000
7749998;-0.27000
7752776;-0.28000
7755553;-0.27500
7758331;-0.27000
7761109;-0.27500
7763887;-0.25000
7766664;-0.27000
7769442;-0.26500
7772220;-0.27000
7774998;-0.25500
7777776;-0.25500
7780553;-0.26500
7783331;-0.27000
7786109;-0.28000
7788887;-0.27000
7791664;-0.26000
7794442;-0.26000
7797220;-0.27000
7799998;-0.26500
7802776;-0.27500
7805553;-0.27500
7808331;-0.25500
7811109;-0.25000
7813887;-0.26000
7816664;-0.27000
7819442;-0.28000
7822220;-0.27500
7824998;-0.27500
7827776;-0.26000
7830553;-0.25500
7833331;-0.27000
7836109;-0.28000
7838887;-0.28500
7841664;-0.28500
7844442;-0.27500
7847220;-0.27500
7849998;-0.28500
7852776;-0.29500
7855553;-0.28500
7858331;-0.28000
7861109;-0.28000
7863887;-0.27500
7866664;-0.28000
7869442;-0.29000
7872220;-0.28000
7874998;-0.28500
7877776;-0.27000
7880553;-0.29000
7883331;-0.28000
7886109;-0.30000
7888887;-0.30000
7891664;-0.28500
7894442;-0.28500
7897220;-0.29500
7899998;-0.30500
7902776;-0.31500
7905553;-0.30500
7908331;-0.29500
7911109;-0.27500
7913887;-0.28500
7916664;-0.30500
7919442;-0.30000
7922220;-0.29500
7924998;-0.29000
7927776;-0.28000
7930553;-0.28500
7933331;-0.29000
7936109;-0.31000
7938887;-0.30000
7941664;-0.29000
7944442;-0.29500
7947220;-0.30500
7949998;-0.29500
7952776;-0.31000
7955553;-0.30000
7958331;-0.28000
7961109;-0.26500
7963887;-0.28500
7966664;-0.29500
7969442;-0.29500
7972220;-0.29000
7974998;-0.28500
7977776;-0.26500
7980553;-0.26500
7983331;-0.26500
7986109;-0.25500
7988887;-0.25500
7991664;-0.24000
7994442;-0.23500
7997220;-0.23500
7999998;-0.23500
8002776;-0.23500
8005553;-0.21500
8008331;-0.21500
8011109;-0.20500
8013887;-0.20500
8016664;-0.20500
8019442;-0.20000
8022220;-0.20000
8024998;-0.18500
8027776;-0.17000
8030553;-0.16500
8033331;-0.17500
8036109;-0.19000
8038887;-0.17500
8041664;-0.18500
8044442;-0.18000
8047220;-0.20000
8049998;-0.18500
8052776;-0.20000
8055553;-0.19000
8058331;-0.17500
8061109;-0.16500
8063887;-0.14500
8066664;-0.14500
8069442;-0.17000
8072220;-0.19500
8074998;-0.22000
8077776;-0.22500
8080553;-0.24000
8083331;-0.25500
8086109;-0.28000
8088887;-0.28500
8091664;-0.29000
8094442;-0.29000
8097220;-0.29000
8099998;-0.30000
8102776;-0.30500
8105553;-0.31500
8108331;-0.31000
8111109;-0.32000
8113887;-0.31500
8116664;-0.33000
8119442;-0.33500
8122220;-0.32500
8124998;-0.33000
8127776;-0.31000
8130553;-0.31500
8133331;-0.32000
8136109;-0.33000
8138887;-0.32500
8141664;-0.31000
8144442;-0.30500
8147220;-0.31500
8149998;-0.34000
8152775;-0.36000
8155553;-0.40000
8158331;-0.42500
8161109;-0.43000
8163887;-0.46500
8166664;-0.50000
8169442;-0.57000
8172220;-0.60500
8174998;-0.59000
8177775;-0.56000
8180553;-0.51500
8183331;-0.45500
8186109;-0.39000
8188887;-0.26000
8191664;-0.14500
8194442;0.01000
8197220;0.24500
8199998;0.51000
8202775;0.75000
8205553;0.91000
8208331;0.94500
8211109;0.82000
8213887;0.50000
8216664;0.09500
8219442;-0.25500
8222220;-0.44000
8224998;-0.47000
8227775;-0.42000
8230553;-0.37000
8233331;-0.36000
8236109;-0.37500
8238887;-0.36500
8241664;-0.35000
8244442;-0.34500
8247220;-0.34500
8249998;-0.36000
8252775;-0.37000
8255553;-0.36000
8258331;-0.35000
8261109;-0.34500
8263887;-0.35000
8266664;-0.35500
8269442;-0.36500
8272220;-0.36500
8274998;-0.35000
8277775;-0.34000
8280553;-0.34500
8283331;-0.35500
8286109;-0.35500
8288887;-0.35000
8291664;-0.33500
8294442;-0.34000
8297220;-0.33500
8299998;-0.34500
8302775;-0.36000
8305553;-0.35500
8308331;-0.34500
8311109;-0.35500
8313887;-0.34000
8316664;-0.36000
8319442;-0.37000
8322220;-0.35500
8324998;-0.35500
8327775;-0.34500
8330553;-0.34500
8333331;-0.35500
8336109;-0.36500
8338887;-0.34500
8341664;-0.34000
8344442;-0.33000
8347220;-0.33500
8349998;-0.33500
8352775;-0.35500
8355553;-0.35500
8358331;-0.33000
8361109;-0.32000
8363887;-0.33000
8366664;-0.34000
8369442;-0.35500
8372220;-0.35500
8374998;-0.33500
8377775;-0.34000
8380553;-0.33500
8383331;-0.33500
8386109;-0.35000
8388887;-0.34500
8391664;-0.34500
8394442;-0.33500
8397220;-0.35500
8399998;-0.36000
8402775;-0.37000
8405553;-0.36000
8408331;-0.34500
8411109;-0.34500
8413887;-0.35500
8416664;-0.36000
8419442;-0.38500
8422220;-0.38000
8424998;-0.37000
8427775;-0.35500
8430553;-0.35500
8433331;-0.36500
8436109;-0.39500
8438887;-0.39000
8441664;-0.36500
8444442;-0.36500
8447220;-0.36500
8449998;-0.37500
8452775;-0.38500
8455553;-0.38000
8458331;-0.37000
8461109;-0.37000
8463887;-0.36000
8466664;-0.37000
8469442;-0.38500
8472220;-0.38000
8474998;-0.36500
8477775;-0.35000
8480553;-0.33500
8483331;-0.33500
8486109;-0.32500
8488887;-0.32000
8491664;-0.29000
8494442;-0.28000
8497220;-0.26000
8499998;-0.26500
8502775;-0.27000
8505553;-0.25000
8508331;-0.23500
8511109;-0.23000
8513887;-0.22500
8516664;-0.23500
8519442;-0.24500
8522220;-0.23500
8524998;-0.23500
8527775;-0.23000
8530553;-0.24000
8533331;-0.22500
8536109;-0.24000
8538886;-0.22500
8541664;-0.22500
8544442;-0.22000
8547220;-0.23500
8549998;-0.22500
8552775;-0.23500
8555553;-0.22500
8558331;-0.21500
8561109;-0.22000
8563886;-0.22500
8566664;-0.22500
8569442;-0.24000
8572220;-0.23000
8574998;-0.22000
8577775;-0.23000
8580553;-0.23500
8583331;-0.24000
8586109;-0.25500
8588886;-0.23500
8591664;-0.23500
8594442;-0.24500
8597220;-0.24500
8599998;-0.26500
8602775;-0.26500
8605553;-0.26000
8608331;-0.25500
8611109;-0.24500
8613886;-0.25500
8616664;-0.26000
8619442;-0.27000
8622220;-0.26500
8624998;-0.25000
8627775;-0.25500
8630553;-0.26000
8633331;-0.26500
8636109;-0.27500
8638886;-0.27500
8641664;-0.27500
8644442;-0.26000
8647220;-0.28000
8649998;-0.27500
8652775;-0.28500
8655553;-0.28500
8658331;-0.26500
8661109;-0.27000
8663886;-0.26500
8666664;-0.27000
8669442;-0.28500
8672220;-0.29000
8674998;-0.27000
8677775;-0.27500
8680553;-0.27000
8683331;-0.28500
8686109;-0.29500
8688886;-0.28000
8691664;-0.28000
8694442;-0.28000
8697220;-0.28500
8699998;-0.29500
8702775;-0.29500
8705553;-0.29500
8708331;-0.28000
8711109;-0.27500
8713886;-0.27500
8716664;-0.28000
8719442;-0.28500
8722220;-0.27500
8724998;-0.27000
8727775;-0.25500
8730553;-0.26000
8733331;-0.27500
8736109;-0.27500
8738886;-0.26500
8741664;-0.24500
8744442;-0.23000
8747220;-0.23000
8749998;-0.24500
8752775;-0.25000
8755553;-0.21500
8758331;-0.21000
8761109;-0.19500
8763886;-0.20500
8766664;-0.20500
8769442;-0.19500
8772220;-0.18500
8774998;-0.17500
8777775;-0.16000
8780553;-0.15000
8783331;-0.15500
8786109;-0.16500
8788886;-0.16500
8791664;-0.16000
8794442;-0.16500
8797220;-0.16500
8799998;-0.17000
8802775;-0.17000
8805553;-0.17500
8808331;-0.15500
8811109;-0.14000
8813886;-0.11500
8816664;-0.12500
8819442;-0.17500
8822220;-0.20000
8824998;-0.21000
8827775;-0.21500
8830553;-0.22000
8833331;-0.25500
8836109;-0.27500
8838886;-0.29500
8841664;-0.28500
8844442;-0.29000
8847220;-0.29500
8849998;-0.29000
8852775;-0.30500
8855553;-0.29000
8858331;-0.28000
8861109;-0.28500
8863886;-0.29000
8866664;-0.29500
8869442;-0.30000
8872220;-0.30500
8874998;-0.29500
8877775;-0.30000
8880553;-0.31000
8883331;-0.32000
8886109;-0.33000
8888886;-0.32000
8891664;-0.30500
8894442;-0.29500
8897220;-0.31000
8899998;-0.32000
8902775;-0.33500
8905553;-0.32000
8908331;-0.31500
8911109;-0.31000
8913886;-0.32500
8916664;-0.33000
8919442;-0.35000
8922220;-0.38500
8924998;-0.41000
8927775;-0.43000
8930553;-0.47500
8933331;-0.51000
8936109;-0.55000
8938886;-0.51000
8941664;-0.37500
8944442;-0.22500
8947220;-0.03000
8949997;0.15000
8952775;0.41000
8955553;0.71000
8958331;0.94000
8961109;1.05000
8963886;1.01500
8966664;0.79000
8969442;0.39000
8972220;-0.04500
8974997;-0.35500
8977775;-0.45000
8980553;-0.44500
8983331;-0.40000
8986109;-0.37000
8988886;-0.36500
8991664;-0.35500
8994442;-0.36000
8997220;-0.36000
8999997;-0.36500
9002775;-0.38000
9005553;-0.38000
9008331;-0.36500
9011109;-0.36000
9013886;-0.36500
9016664;-0.37500
9019442;-0.38000
9022220;-0.38000
9024997;-0.37000
9027775;-0.35000
9030553;-0.37000
9033331;-0.36500
9036109;-0.37000
9038886;-0.37500
9041664;-0.36500
9044442;-0.36000
9047220;-0.36500
9049997;-0.37500
9052775;-0.38000
9055553;-0.36500
9058331;-0.35500
9061109;-0.36000
9063886;-0.35000
9066664;-0.37000
9069442;-0.37000
9072220;-0.36000
9074997;-0.36500
9077775;-0.36000
9080553;-0.37000
9083331;-0.36500
9086109;-0.38500
9088886;-0.37000
9091664;-0.35500
9094442;-0.35000
9097220;-0.36000
9099997;-0.36000
9102775;-0.37000
9105553;-0.36500
9108331;-0.36000
9111109;-0.35000
9113886;-0.35000
9116664;-0.36000
9119442;-0.37000
9122220;-0.37000
9124997;-0.36500
9127775;-0.36000
9130553;-0.35500
9133331;-0.37000
9136109;-0.38000
9138886;-0.36500
9141664;-0.35500
9144442;-0.35000
9147220;-0.36000
9149997;-0.36500
9152775;-0.37500
9155553;-0.37000
9158331;-0.36000
9161109;-0.35000
9163886;-0.35000
9166664;-0.35500
9169442;-0.37000
9172220;-0.36000
9174997;-0.35500
9177775;-0.36500
9180553;-0.35500
9183331;-0.37000
9186109;-0.38500
9188886;-0.38000
9191664;-0.37000
9194442;-0.36500
9197220;-0.37500
9199997;-0.37500
9202775;-0.39000
9205553;-0.37500
9208331;-0.37500
9211109;-0.37000
9213886;-0.36500
9216664;-0.37000
9219442;-0.38500
9222220;-0.36500
9224997;-0.36500
9227775;-0.35000
9230553;-0.35000
9233331;-0.36000
9236109;-0.35500
9238886;-0.34000
9241664;-0.31500
9244442;-0.32000
9247220;-0.31500
9249997;-0.32000
9252775;-0.30500
9255553;-0.30000
9258331;-0.29000
9261109;-0.27500
9263886;-0.27500
9266664;-0.27000
9269442;-0.27000
9272220;-0.26000
9274997;-0.25000
9277775;-0.24500
9280553;-0.24000
9283331;-0.24500
9286109;-0.25000
9288886;-0.25500
9291664;-0.24000
9294442;-0.24000
9297220;-0.24000
9299997;-0.25000
9302775;-0.25500
9305553;-0.25000
9308331;-0.23500
9311109;-0.24500
9313886;-0.23000
9316664;-0.24000
9319442;-0.26500
9322220;-0.24500
9324997;-0.24500
9327775;-0.23500
9330553;-0.23500
9333331;-0.24000
9336108;-0.25000
9338886;-0.25000
9341664;-0.24500
9344442;-0.24500
9347220;-0.24500
9349997;-0.26000
9352775;-0.27000
9355553;-0.27000
9358331;-0.26000
9361108;-0.25000
9363886;-0.25500
9366664;-0.27000
9369442;-0.27500
9372220;-0.27000
9374997;-0.26500
9377775;-0.26000
9380553;-0.27000
9383331;-0.26000
9386108;-0.27500
9388886;-0.28000
9391664;-0.27500
9394442;-0.27000
9397220;-0.27000
9399997;-0.28500
9402775;-0.29500
9405553;-0.30000
9408331;-0.28000
9411108;-0.27500
9413886;-0.28000
9416664;-0.29000
9419442;-0.30000
9422220;-0.29500
9424997;-0.28500
9427775;-0.29500
9430553;-0.29000
9433331;-0.29500
9436108;-0.30500
9438886;-0.30000
9441664;-0.29000
9444442;-0.29000
9447220;-0.29000
9449997;-0.29000
9452775;-0.30500
9455553;-0.30500
9458331;-0.29500
9461108;-0.29000
9463886;-0.28500
9466664;-0.30000
9469442;-0.29500
9472220;-0.28500
9474997;-0.28000
9477775;-0.28000
9480553;-0.28000
9483331;-0.28500
9486108;-0.29000
9488886;-0.29500
9491664;-0.28500
9494442;-0.27500
9497220;-0.26500
9499997;-0.26000
9502775;-0.26500
9505553;-0.25000
9508331;-0.23500
9511108;-0.22500
9513886;-0.20500
9516664;-0.22000
9519442;-0.22000
9522220;-0.20000
9524997;-0.18000
9527775;-0.16500
9530553;-0.16000
9533331;-0.17000
9536108;-0.17000
9538886;-0.15500
9541664;-0.14000
9544442;-0.14500
9547220;-0.16000
9549997;-0.18000
9552775;-0.18500
9555553;-0.17000
9558331;-0.16000
9561108;-0.15500
9563886;-0.14000
9566664;-0.13000
9569442;-0.14000
9572220;-0.14000
9574997;-0.17000
9577775;-0.20000
9580553;-0.21000
9583331;-0.22500
9586108;-0.24000
9588886;-0.25000
9591664;-0.25000
9594442;-0.25500
9597220;-0.27500
9599997;-0.28500
9602775;-0.29000
9605553;-0.29500
9608331;-0.28500
9611108;-0.28500
9613886;-0.28000
9616664;-0.29000
9619442;-0.29000
9622220;-0.30000
9624997;-0.29000
9627775;-0.28500
9630553;-0.30000
9633331;-0.30500
9636108;-0.32000
9638886;-0.31500
9641664;-0.30500
9644442;-0.30500
9647220;-0.31000
9649997;-0.31500
9652775;-0.33500
9655553;-0.32000
9658331;-0.32000
9661108;-0.31500
9663886;-0.31500
9666664;-0.34000
9669442;-0.38500
9672220;-0.42000
9674997;-0.42500
9677775;-0.46500
9680553;-0.50500
9683331;-0.52500
9686108;-0.45500
9688886;-0.32000
9691664;-0.14500
9694442;0.05500
9697220;0.28500
9699997;0.57000
9702775;0.80000
9705553;0.98500
9708331;1.01500
9711108;0.86500
9713886;0.55000
9716664;0.13000
9719442;-0.23000
9722220;-0.43000
9724997;-0.45000
9727775;-0.40500
9730553;-0.34000
9733331;-0.34500
9736108;-0.36000
9738886;-0.36500
9741664;-0.34000
9744442;-0.34000
9747219;-0.36000
9749997;-0.36000
9752775;-0.37500
9755553;-0.36500
9758331;-0.36500
9761108;-0.34500
9763886;-0.36000
9766664;-0.36000
9769442;-0.37500
9772219;-0.35500
9774997;-0.34500
9777775;-0.35000
9780553;-0.35000
9783331;-0.36500
9786108;-0.37500
9788886;-0.37000
9791664;-0.37000
9794442;-0.35500
9797219;-0.36000
9799997;-0.36500
9802775;-0.37000
9805553;-0.37000
9808331;-0.36000
9811108;-0.35500
9813886;-0.36000
9816664;-0.36000
9819442;-0.36500
9822219;-0.35500
9824997;-0.36000
9827775;-0.34500
9830553;-0.37000
9833331;-0.38000
9836108;-0.37500
9838886;-0.37000
9841664;-0.36000
9844442;-0.35000
9847219;-0.36000
9849997;-0.37000
9852775;-0.39000
9855553;-0.38500
9858331;-0.35500
9861108;-0.35000
9863886;-0.36000
9866664;-0.36000
9869442;-0.37500
9872219;-0.36500
9874997;-0.36000
9877775;-0.36000
9880553;-0.35500
9883331;-0.36500
9886108;-0.36500
9888886;-0.36500
9891664;-0.35000
9894442;-0.35500
9897219;-0.37000
9899997;-0.37000
9902775;-0.38000
9905553;-0.37500
9908331;-0.36500
9911108;-0.35500
9913886;-0.35500
9916664;-0.36000
9919442;-0.37500
9922219;-0.38000
9924997;-0.36000
9927775;-0.35500
9930553;-0.36000
9933331;-0.37500
9936108;-0.38000
9938886;-0.37000
9941664;-0.36000
9944442;-0.36000
9947219;-0.36500
9949997;-0.37000
9952775;-0.36500
9955553;-0.35500
9958331;-0.35500
9961108;-0.35500
9963886;-0.36000
9966664;-0.36000
9969442;-0.36500
9972219;-0.36000
9974997;-0.35500
9977775;-0.35000
9980553;-0.34000
9983331;-0.35000
9986108;-0.35500
9988886;-0.35000
9991664;-0.33000
9994442;-0.31500
9997219;-0.30500
9999997;-0.30500
10002775;-0.32000
10005553;-0.30500
10008331;-0.29500
10011108;-0.26500
10013886;-0.26500
10016664;-0.26500
10019442;-0.27000
10022219;-0.26000
10024997;-0.25500
10027775;-0.25500
10030553;-0.25000
10033331;-0.25500
10036108;-0.25500
10038886;-0.24500
10041664;-0.23500
10044442;-0.22500
10047219;-0.23500
10049997;-0.24000
10052775;-0.26500
10055553;-0.25500
10058331;-0.25000
10061108;-0.24000
10063886;-0.25000
10066664;-0.25500
10069442;-0.26500
10072219;-0.26500
10074997;-0.26500
10077775;-0.24000
10080553;-0.24500
10083331;-0.25000
10086108;-0.27000
10088886;-0.26000
10091664;-0.26000
10094442;-0.25500
10097219;-0.25500
10099997;-0.26000
10102775;-0.27000
10105553;-0.26000
10108331;-0.25500
10111108;-0.25500
10113886;-0.26000
10116664;-0.26500
10119442;-0.29000
10122219;-0.29000
10124997;-0.28000
10127775;-0.27500
10130553;-0.28000
10133330;-0.28000
10136108;-0.29000
10138886;-0.28000
10141664;-0.28000
10144442;-0.27000
10147219;-0.27500
10149997;-0.29500
10152775;-0.30500
10155553;-0.30500
10158330;-0.29000
10161108;-0.29500
10163886;-0.29500
10166664;-0.31000
10169442;-0.31000
10172219;-0.29500
10174997;-0.28500
10177775;-0.28500
10180553;-0.29500
10183330;-0.30500
10186108;-0.31500
10188886;-0.31500
10191664;-0.30500
10194442;-0.30500
10197219;-0.31000
10199997;-0.31500
10202775;-0.32000
10205553;-0.32500
10208330;-0.32000
10211108;-0.30000
10213886;-0.30000
10216664;-0.30000
10219442;-0.31500
10222219;-0.31500
10224997;-0.30000
10227775;-0.29500
10230553;-0.29500
10233330;-0.31500
10236108;-0.31000
10238886;-0.31500
10241664;-0.30000
10244442;-0.28000
10247219;-0.28500
10249997;-0.28000
10252775;-0.29000
10255553;-0.28000
10258330;-0.27000
10261108;-0.25000
10263886;-0.26000
10266664;-0.25500
10269442;-0.26500
10272219;-0.25000
10274997;-0.24000
10277775;-0.23500
10280553;-0.22500
10283330;-0.23500
10286108;-0.24500
10288886;-0.23500
10291664;-0.23000
10294442;-0.22000
10297219;-0.20500
10299997;-0.21500
10302775;-0.18500
10305553;-0.18500
10308330;-0.17000
10311108;-0.17000
10313886;-0.18000
10316664;-0.19000
10319442;-0.22000
10322219;-0.21000
10324997;-0.19000
10327775;-0.18000
10330553;-0.18500
10333330;-0.18000
10336108;-0.18000
10338886;-0.16500
10341664;-0.16000
10344442;-0.18500
10347219;-0.21000
10349997;-0.23500
10352775;-0.25500
10355553;-0.27000
10358330;-0.28500
10361108;-0.30000
10363886;-0.31500
10366664;-0.33000
10369442;-0.33000
10372219;-0.31500
10374997;-0.31500
10377775;-0.30500
10380553;-0.31000
10383330;-0.33000
10386108;-0.35000
10388886;-0.34500
10391664;-0.33000
10394442;-0.32000
10397219;-0.31500
10399997;-0.32000
10402775;-0.34000
10405553;-0.33000
10408330;-0.33500
10411108;-0.33000
10413886;-0.34000
10416664;-0.33500
10419442;-0.34000
10422219;-0.34000
10424997;-0.33000
10427775;-0.35000
10430553;-0.39500
10433330;-0.43500
10436108;-0.45500
10438886;-0.44500
10441664;-0.45000
10444442;-0.46500
10447219;-0.53500
10449997;-0.60500
10452775;-0.61500
10455553;-0.55500
10458330;-0.47000
10461108;-0.33500
10463886;-0.16500
10466664;0.04000
10469442;0.30000
10472219;0.60000
10474997;0.82000
10477775;0.90500
10480553;0.81500
10483330;0.52500
10486108;0.12000
10488886;-0.22500
10491664;-0.41000
10494442;-0.47000
10497219;-0.46000
10499997;-0.42500
10502775;-0.41000
10505553;-0.41000
10508330;-0.39000
10511108;-0.38000
10513886;-0.37000
10516664;-0.38000
10519441;-0.39500
10522219;-0.39500
10524997;-0.39500
10527775;-0.37500
10530553;-0.37000
10533330;-0.38000
10536108;-0.39000
10538886;-0.39000
10541664;-0.38000
10544441;-0.37500
10547219;-0.38500
10549997;-0.39500
10552775;-0.39500
10555553;-0.40000
10558330;-0.38500
10561108;-0.37000
10563886;-0.38000
10566664;-0.38000
10569441;-0.40000
10572219;-0.39500
10574997;-0.39000
10577775;-0.38500
10580553;-0.38500
10583330;-0.40000
10586108;-0.41000
10588886;-0.40000
10591664;-0.39000
10594441;-0.38000
10597219;-0.39500
10599997;-0.39000
10602775;-0.40000
10605553;-0.39000
10608330;-0.39000
10611108;-0.38000
10613886;-0.38000
10616664;-0.40000
10619441;-0.41000
10622219;-0.40000
10624997;-0.38000
10627775;-0.37500
10630553;-0.39000
10633330;-0.38500
10636108;-0.40500
10638886;-0.38500
10641664;-0.38000
10644441;-0.37500
10647219;-0.37000
10649997;-0.39000
10652775;-0.39500
10655553;-0.39000
10658330;-0.39500
10661108;-0.38500
10663886;-0.39000
10666664;-0.40500
10669441;-0.41000
10672219;-0.40500
10674997;-0.40000
10677775;-0.38500
10680553;-0.39500
10683330;-0.40000
10686108;-0.41000
10688886;-0.40000
10691664;-0.41000
10694441;-0.40500
10697219;-0.41000
10699997;-0.42000
10702775;-0.44000
10705553;-0.45500
10708330;-0.44500
10711108;-0.43000
10713886;-0.42000
10716664;-0.43000
10719441;-0.45500
10722219;-0.45000
10724997;-0.44500
10727775;-0.44500
10730553;-0.45000
10733330;-0.46000
10736108;-0.46500
10738886;-0.47000
10741664;-0.45500
10744441;-0.43000
10747219;-0.41500
10749997;-0.42000
10752775;-0.43000
10755553;-0.42500
10758330;-0.41000
10761108;-0.40500
10763886;-0.39500
10766664;-0.37000
10769441;-0.36000
10772219;-0.34500
10774997;-0.34000
10777775;-0.32500
10780553;-0.33000
10783330;-0.32500
10786108;-0.32500
10788886;-0.31500
10791664;-0.29500
10794441;-0.28000
10797219;-0.27000
10799997;-0.27000
10802775;-0.28500
10805553;-0.28000
10808330;-0.26000
10811108;-0.26000
10813886;-0.26000
10816664;-0.27000
10819441;-0.27500
10822219;-0.26000
10824997;-0.27000
10827775;-0.27500
10830553;-0.27500
10833330;-0.27000
10836108;-0.28000
10838886;-0.27500
10841664;-0.27000
10844441;-0.26500
10847219;-0.26500
10849997;-0.28000
10852775;-0.28000
10855553;-0.28000
10858330;-0.27000
10861108;-0.26500
10863886;-0.26000
10866664;-0.28000
10869441;-0.29000
10872219;-0.29000
10874997;-0.28500
10877775;-0.28500
10880553;-0.29000
10883330;-0.29500
10886108;-0.30000
10888886;-0.30000
10891664;-0.29000
10894441;-0.27500
10897219;-0.28500
10899997;-0.30000
10902775;-0.30000
10905553;-0.29500
10908330;-0.29500
10911108;-0.28500
10913886;-0.30500
10916664;-0.30000
10919441;-0.32500
10922219;-0.30000
10924997;-0.30500
10927775;-0.30500
10930552;-0.29500
10933330;-0.31500
10936108;-0.32500
10938886;-0.31000
10941664;-0.29500
10944441;-0.30000
10947219;-0.30500
10949997;-0.31500
10952775;-0.32000
10955552;-0.31000
10958330;-0.30000
10961108;-0.30000
10963886;-0.31000
10966664;-0.32000
10969441;-0.33000
10972219;-0.32000
10974997;-0.32000
10977775;-0.30000
10980552;-0.30500
10983330;-0.30000
10986108;-0.31000
10988886;-0.31000
10991664;-0.31000
10994441;-0.30500
10997219;-0.30000
10999997;-0.30000
11002775;-0.30500
11005552;-0.29500
11008330;-0.29000
11011108;-0.28500
11013886;-0.29000
11016664;-0.30000
11019441;-0.30000
11022219;-0.30000
11024997;-0.29000
11027775;-0.28000
11030552;-0.29000
11033330;-0.29500
11036108;-0.30000
11038886;-0.29000
11041664;-0.28000
11044441;-0.27500
11047219;-0.28000
11049997;-0.28500
11052775;-0.28500
11055552;-0.28000
11058330;-0.26500
11061108;-0.25000
11063886;-0.24500
11066664;-0.25500
11069441;-0.26000
11072219;-0.23000
11074997;-0.22500
11077775;-0.21000
11080552;-0.19500
11083330;-0.20000
11086108;-0.21500
11088886;-0.19500
11091664;-0.17500
11094441;-0.16500
11097219;-0.16500
11099997;-0.17000
11102775;-0.18500
11105552;-0.18000
11108330;-0.18000
11111108;-0.17000
11113886;-0.17000
11116664;-0.17000
11119441;-0.18500
11122219;-0.16500
11124997;-0.16000
11127775;-0.13000
11130552;-0.14500
11133330;-0.18500
11136108;-0.22500
11138886;-0.25000
11141664;-0.25000
11144441;-0.24500
11147219;-0.27000
11149997;-0.28500
11152775;-0.30000
11155552;-0.30500
11158330;-0.29500
11161108;-0.28500
11163886;-0.29000
11166664;-0.30500
11169441;-0.31500
11172219;-0.30500
11174997;-0.30000
11177775;-0.28500
11180552;-0.29000
11183330;-0.29000
11186108;-0.31000
11188886;-0.31500
11191664;-0.30500
11194441;-0.29000
11197219;-0.29500
11199997;-0.30500
11202775;-0.32000
11205552;-0.31000
11208330;-0.30500
11211108;-0.30000
11213886;-0.30500
11216664;-0.31000
11219441;-0.32500
11222219;-0.31500
11224997;-0.31500
11227775;-0.32000
11230552;-0.33500
11233330;-0.39000
11236108;-0.42000
11238886;-0.44500
11241664;-0.47000
11244441;-0.49500
11247219;-0.52000
11249997;-0.48500
11252775;-0.39500
11255552;-0.24500
11258330;-0.10000
11261108;0.08500
11263886;0.32500
11266664;0.58500
11269441;0.79500
11272219;0.93500
11274997;0.97000
11277775;0.83500
11280552;0.52500
11283330;0.13000
11286108;-0.21500
11288886;-0.41500
11291664;-0.45500
11294441;-0.42000
11297219;-0.39000
11299997;-0.36500
11302775;-0.36500
11305552;-0.35000
11308330;-0.35000
11311108;-0.33000
11313886;-0.34000
11316663;-0.34500
11319441;-0.36000
11322219;-0.35500
11324997;-0.34500
11327775;-0.34000
11330552;-0.33500
11333330;-0.35000
11336108;-0.36500
11338886;-0.36000
11341663;-0.35500
11344441;-0.35500
11347219;-0.34500
11349997;-0.35500
11352775;-0.37000
11355552;-0.35500
11358330;-0.35000
11361108;-0.34500
11363886;-0.34500
11366663;-0.35500
11369441;-0.36000
11372219;-0.35500
11374997;-0.35500
11377775;-0.34500
11380552;-0.35000
11383330;-0.36500
11386108;-0.36500
11388886;-0.36500
11391663;-0.34500
11394441;-0.34500
11397219;-0.35000
11399997;-0.35000
11402775;-0.36500
11405552;-0.35500
11408330;-0.34500
11411108;-0.33500
11413886;-0.33500
11416663;-0.34500
11419441;-0.34500
11422219;-0.35500
11424997;-0.34500
11427775;-0.33500
11430552;-0.34500
11433330;-0.35500
11436108;-0.36500
11438886;-0.36000
11441663;-0.36000
11444441;-0.35000
11447219;-0.35000
11449997;-0.35500
11452775;-0.36000
11455552;-0.36000
11458330;-0.36000
11461108;-0.34000
11463886;-0.35500
11466663;-0.35000
11469441;-0.36000
11472219;-0.35500
11474997;-0.35000
11477775;-0.35000
11480552;-0.34000
11483330;-0.35000
11486108;-0.36000
11488886;-0.36000
11491663;-0.36500
11494441;-0.34500
11497219;-0.34500
11499997;-0.35500
11502775;-0.37500
11505552;-0.37500
11508330;-0.36500
11511108;-0.36500
11513886;-0.38000
11516663;-0.39000
11519441;-0.39500
11522219;-0.39500
11524997;-0.38000
11527775;-0.37500
11530552;-0.38000
11533330;-0.39000
11536108;-0.39500
11538886;-0.39000
11541663;-0.38500
11544441;-0.38000
11547219;-0.38500
11549997;-0.39000
11552775;-0.39000
11555552;-0.38500
11558330;-0.36500
11561108;-0.36000
11563886;-0.36000
11566663;-0.36500
11569441;-0.37500
11572219;-0.35500
11574997;-0.34000
11577775;-0.34000
11580552;-0.31500
11583330;-0.31500
11586108;-0.31500
11588886;-0.29000
11591663;-0.27000
11594441;-0.25000
11597219;-0.25000
11599997;-0.26000
11602775;-0.26500
11605552;-0.26000
11608330;-0.23500
11611108;-0.23000
11613886;-0.23000
11616663;-0.23500
11619441;-0.24000
11622219;-0.22500
11624997;-0.22000
11627775;-0.20000
11630552;-0.21500
11633330;-0.21500
11636108;-0.22500
11638886;-0.21000
11641663;-0.21000
11644441;-0.21000
11647219;-0.21500
11649997;-0.21500
11652775;-0.22500
11655552;-0.22500
11658330;-0.21000
11661108;-0.21000
11663886;-0.20500
11666663;-0.22500
11669441;-0.21500
11672219;-0.22500
11674997;-0.22000
11677775;-0.21500
11680552;-0.22000
11683330;-0.22500
11686108;-0.23500
11688886;-0.24000
11691663;-0.23000
11694441;-0.23500
11697219;-0.24000
11699997;-0.23500
11702775;-0.24500
11705552;-0.23500
11708330;-0.21000
11711108;-0.21500
11713886;-0.22000
11716663;-0.22500
11719441;-0.23500
11722219;-0.23500
11724997;-0.23000
11727774;-0.21500
11730552;-0.22500
11733330;-0.23000
11736108;-0.23500
11738886;-0.23500
11741663;-0.22000
11744441;-0.22000
11747219;-0.23000
11749997;-0.23000
11752774;-0.25000
11755552;-0.23500
11758330;-0.23500
11761108;-0.22500
11763886;-0.23500
11766663;-0.24500
11769441;-0.25000
11772219;-0.25500
11774997;-0.25000
11777774;-0.23500
11780552;-0.24000
11783330;-0.25000
11786108;-0.25500
11788886;-0.25500
11791663;-0.24500
11794441;-0.24500
11797219;-0.24000
11799997;-0.24500
11802774;-0.25000
11805552;-0.25500
11808330;-0.24500
11811108;-0.24500
11813886;-0.23500
11816663;-0.25500
11819441;-0.25500
11822219;-0.24500
11824997;-0.24000
11827774;-0.22500
11830552;-0.22000
11833330;-0.21000
11836108;-0.22000
11838886;-0.20000
11841663;-0.19000
11844441;-0.16500
11847219;-0.18000
11849997;-0.17000
11852774;-0.18000
11855552;-0.17500
11858330;-0.17000
11861108;-0.13500
11863886;-0.14000
11866663;-0.13500
11869441;-0.13500
11872219;-0.14000
11874997;-0.12000
11877774;-0.10500
11880552;-0.11500
11883330;-0.11500
11886108;-0.14500
11888886;-0.14500
11891663;-0.12500
11894441;-0.12500
11897219;-0.11500
11899997;-0.13000
11902774;-0.13500
11905552;-0.12000
11908330;-0.10000
11911108;-0.08000
11913886;-0.06000
11916663;-0.06000
11919441;-0.07000
11922219;-0.09500
11924997;-0.12500
11927774;-0.14000
11930552;-0.15500
11933330;-0.18000
11936108;-0.19500
11938886;-0.20000
11941663;-0.21500
11944441;-0.22000
11947219;-0.24500
11949997;-0.25500
11952774;-0.26500
11955552;-0.26000
11958330;-0.26000
11961108;-0.25000
11963886;-0.25500
11966663;-0.25000
11969441;-0.27500
11972219;-0.27500
11974997;-0.26500
11977774;-0.25000
11980552;-0.26000
11983330;-0.27000
11986108;-0.28000
11988886;-0.27500
11991663;-0.26500
11994441;-0.26000
11997219;-0.25500
11999997;-0.27000
12002774;-0.28500
12005552;-0.28000
12008330;-0.27500
12011108;-0.27000
12013886;-0.31000
12016663;-0.36000
12019441;-0.40500
12022219;-0.42500
12024997;-0.45500
12027774;-0.48000
12030552;-0.46000
12033330;-0.36000
12036108;-0.20000
12038886;-0.02000
12041663;0.19000
12044441;0.44500
12047219;0.74000
12049997;0.98500
12052774;1.10000
12055552;1.10000
12058330;0.91000
12061108;0.53000
12063886;0.08000
12066663;-0.25500
12069441;-0.40000
12072219;-0.40000
12074997;-0.34000
12077774;-0.29500
12080552;-0.28000
12083330;-0.30000
12086108;-0.31500
12088886;-0.31000
12091663;-0.31500
12094441;-0.30000
12097219;-0.30500
12099997;-0.31000
12102774;-0.32500
12105552;-0.32500
12108330;-0.32000
12111108;-0.31500
12113885;-0.31500
12116663;-0.33000
12119441;-0.35000
12122219;-0.33500
12124997;-0.33000
12127774;-0.31500
12130552;-0.31000
12133330;-0.33000
12136108;-0.33500
12138885;-0.33000
12141663;-0.32000
12144441;-0.30500
12147219;-0.32000
12149997;-0.32500
12152774;-0.33000
12155552;-0.33000
12158330;-0.33000
12161108;-0.31500
12163885;-0.32000
12166663;-0.34000
12169441;-0.35000
12172219;-0.33000
12174997;-0.33000
12177774;-0.31500
12180552;-0.32000
12183330;-0.32500
12186108;-0.33500
12188885;-0.32000
12191663;-0.31500
12194441;-0.31000
12197219;-0.32000
12199997;-0.32000
12202774;-0.34000
12205552;-0.33000
12208330;-0.33000
12211108;-0.31500
12213885;-0.32000
12216663;-0.32000
12219441;-0.35000
12222219;-0.34000
12224997;-0.32000
12227774;-0.32000
12230552;-0.31000
12233330;-0.31500
12236108;-0.32500
12238885;-0.32000
12241663;-0.31000
12244441;-0.30500
12247219;-0.31000
12249997;-0.32000
12252774;-0.33000
12255552;-0.32500
12258330;-0.31500
12261108;-0.32500
12263885;-0.31000
12266663;-0.32000
12269441;-0.32500
12272219;-0.31500
12274997;-0.31500
12277774;-0.31500
12280552;-0.31500
12283330;-0.32500
12286108;-0.34500
12288885;-0.34000
12291663;-0.33000
12294441;-0.32000
12297219;-0.32500
12299997;-0.33500
12302774;-0.34000
12305552;-0.34000
12308330;-0.32000
12311108;-0.31500
12313885;-0.31000
12316663;-0.32500
12319441;-0.33500
12322219;-0.32000
12324997;-0.32000
12327774;-0.31500
12330552;-0.31000
12333330;-0.31500
12336108;-0.31500
12338885;-0.31000
12341663;-0.29500
12344441;-0.28500
12347219;-0.27500
12349997;-0.27500
12352774;-0.30000
12355552;-0.26500
12358330;-0.24500
12361108;-0.24000
12363885;-0.23000
12366663;-0.23000
12369441;-0.23000
12372219;-0.22500
12374997;-0.21000
12377774;-0.19500
12380552;-0.18500
12383330;-0.19000
12386108;-0.20500
12388885;-0.20000
12391663;-0.20000
12394441;-0.19000
12397219;-0.19500
12399997;-0.20000
12402774;-0.21500
12405552;-0.20500
12408330;-0.19500
12411108;-0.19500
12413885;-0.19000
12416663;-0.19500
12419441;-0.20500
12422219;-0.21000
12424997;-0.20000
12427774;-0.19000
12430552;-0.20000
12433330;-0.21000
12436108;-0.22500
12438885;-0.21000
12441663;-0.20000
12444441;-0.20500
12447219;-0.21500
12449997;-0.22500
12452774;-0.23000
12455552;-0.22000
12458330;-0.20500
12461108;-0.21000
12463885;-0.20500
12466663;-0.22000
12469441;-0.23000
12472219;-0.22000
12474997;-0.22500
12477774;-0.21000
12480552;-0.21000
12483330;-0.22000
12486108;-0.23000
12488885;-0.22500
12491663;-0.22000
12494441;-0.20500
12497219;-0.21500
12499996;-0.24000
12502774;-0.24000
12505552;-0.24000
12508330;-0.23500
12511108;-0.24000
12513885;-0.23000
12516663;-0.25000
12519441;-0.26000
12522219;-0.26000
12524996;-0.25500
12527774;-0.25500
12530552;-0.25000
12533330;-0.26000
12536108;-0.26500
12538885;-0.27500
12541663;-0.26000
12544441;-0.25500
12547219;-0.25500
12549996;-0.26000
12552774;-0.26500
12555552;-0.26500
12558330;-0.26000
12561108;-0.26000
12563885;-0.26500
12566663;-0.27500
12569441;-0.28000
12572219;-0.27000
12574996;-0.26500
12577774;-0.26000
12580552;-0.27000
12583330;-0.28000
12586108;-0.28000
12588885;-0.27500
12591663;-0.26000
12594441;-0.25500
12597219;-0.25000
12599996;-0.25500
12602774;-0.26500
12605552;-0.25500
12608330;-0.24500
12611108;-0.23000
12613885;-0.23000
12616663;-0.22500
12619441;-0.23000
12622219;-0.23000
12624996;-0.20500
12627774;-0.20500
12630552;-0.21000
12633330;-0.20500
12636108;-0.22000
12638885;-0.20000
12641663;-0.19000
12644441;-0.19500
12647219;-0.18000
12649996;-0.18500
12652774;-0.18500
12655552;-0.18000
12658330;-0.17000
12661108;-0.15500
12663885;-0.14500
12666663;-0.15000
12669441;-0.15500
12672219;-0.14500
12674996;-0.13500
12677774;-0.14000
12680552;-0.14500
12683330;-0.16000
12686108;-0.17000
12688885;-0.16000
12691663;-0.15000
12694441;-0.14000
12697219;-0.15000
12699996;-0.14000
12702774;-0.15000
12705552;-0.13000
12708330;-0.13000
12711108;-0.16000
12713885;-0.19000
12716663;-0.21000
12719441;-0.22000
12722219;-0.25000
12724996;-0.25000
12727774;-0.25000
12730552;-0.25500
12733330;-0.28000
12736108;-0.29000
12738885;-0.29000
12741663;-0.28000
12744441;-0.27500
12747219;-0.26500
12749996;-0.28500
12752774;-0.30500
12755552;-0.30000
12758330;-0.28500
12761108;-0.29000
12763885;-0.30000
12766663;-0.30500
12769441;-0.31000
12772219;-0.32500
12774996;-0.31500
12777774;-0.29500
12780552;-0.29500
12783330;-0.30500
12786108;-0.31000
12788885;-0.33000
12791663;-0.32500
12794441;-0.31500
12797219;-0.31500
12799996;-0.33000
12802774;-0.35500
12805552;-0.39000
12808330;-0.43000
12811108;-0.44000
12813885;-0.48000
12816663;-0.53000
12819441;-0.58500
12822219;-0.57500
12824996;-0.51000
12827774;-0.42000
12830552;-0.31500
12833330;-0.21500
12836108;-0.11500
12838885;0.03000
12841663;0.21500
12844441;0.47500
12847219;0.72000
12849996;0.92000
12852774;1.02000
12855552;1.07500
12858330;1.02500
12861108;0.80500
12863885;0.39500
12866663;-0.05000
12869441;-0.34000
12872219;-0.43500
12874996;-0.42500
12877774;-0.37500
12880552;-0.33500
12883330;-0.33500
12886108;-0.36000
12888885;-0.36000
12891663;-0.35000
12894441;-0.34000
12897219;-0.35500
12899996;-0.36500
12902774;-0.37500
12905552;-0.38500
12908330;-0.37500
12911107;-0.38500
12913885;-0.37000
12916663;-0.38000
12919441;-0.39000
12922219;-0.40000
12924996;-0.38000
12927774;-0.37000
12930552;-0.37500
12933330;-0.38000
12936107;-0.38500
12938885;-0.38000
12941663;-0.38000
12944441;-0.37500
12947219;-0.37000
12949996;-0.37500
12952774;-0.38500
12955552;-0.38500
12958330;-0.38500
12961107;-0.36500
12963885;-0.36500
12966663;-0.37500
12969441;-0.39000
12972219;-0.39500
12974996;-0.38000
12977774;-0.38000
12980552;-0.36500
12983330;-0.37500
12986107;-0.38000
12988885;-0.39000
12991663;-0.38000
12994441;-0.37500
12997219;-0.38000
12999996;-0.38500
13002774;-0.39000
13005552;-0.38500
13008330;-0.39000
13011107;-0.36500
13013885;-0.36500
13016663;-0.37500
13019441;-0.40500
13022219;-0.39000
13024996;-0.39000
13027774;-0.38000
13030552;-0.38000
13033330;-0.39000
13036107;-0.40000
13038885;-0.39500
13041663;-0.39500
13044441;-0.38000
13047219;-0.38000
13049996;-0.38500
13052774;-0.40000
13055552;-0.39000
13058330;-0.38000
13061107;-0.37500
13063885;-0.38000
13066663;-0.39000
13069441;-0.39500
13072219;-0.39000
13074996;-0.38500
13077774;-0.37500
13080552;-0.38000
13083330;-0.38500
13086107;-0.39500
13088885;-0.38500
13091663;-0.38500
13094441;-0.38500
13097219;-0.38500
13099996;-0.39000
13102774;-0.39500
13105552;-0.39500
13108330;-0.39000
13111107;-0.38500
13113885;-0.37000
13116663;-0.38500
13119441;-0.38500
13122219;-0.40000
13124996;-0.38000
13127774;-0.37500
13130552;-0.38000
13133330;-0.38000
13136107;-0.40000
13138885;-0.39000
13141663;-0.37500
13144441;-0.36500
13147219;-0.35000
13149996;-0.35500
13152774;-0.35500
13155552;-0.34000
13158330;-0.32000
13161107;-0.31000
13163885;-0.30000
13166663;-0.29500
13169441;-0.30500
13172219;-0.29000
13174996;-0.28000
13177774;-0.27000
13180552;-0.27500
13183330;-0.27500
13186107;-0.28000
13188885;-0.26500
13191663;-0.25500
13194441;-0.25000
13197219;-0.25500
13199996;-0.26000
13202774;-0.27000
13205552;-0.26500
13208330;-0.25500
13211107;-0.24500
13213885;-0.25000
13216663;-0.26000
13219441;-0.28000
13222219;-0.27000
13224996;-0.27000
13227774;-0.26500
13230552;-0.26000
13233330;-0.27000
13236107;-0.28000
13238885;-0.28000
13241663;-0.27500
13244441;-0.26000
13247219;-0.27000
13249996;-0.28500
13252774;-0.29000
13255552;-0.28500
13258330;-0.28500
13261107;-0.26000
13263885;-0.26500
13266663;-0.27500
13269441;-0.29500
13272219;-0.30000
13274996;-0.29000
13277774;-0.28500
13280552;-0.27500
13283330;-0.28500
13286107;-0.30500
13288885;-0.30500
13291663;-0.28500
13294441;-0.28000
13297218;-0.28500
13299996;-0.29500
13302774;-0.31000
13305552;-0.31000
13308330;-0.31000
13311107;-0.31000
13313885;-0.31000
13316663;-0.32000
13319441;-0.33500
13322218;-0.34000
13324996;-0.32500
13327774;-0.31000
13330552;-0.32000
13333330;-0.33500
13336107;-0.33500
13338885;-0.33500
13341663;-0.32000
13344441;-0.32500
13347218;-0.32500
13349996;-0.33500
13352774;-0.35000
13355552;-0.33000
13358330;-0.34000
13361107;-0.33500
13363885;-0.32500
13366663;-0.32500
13369441;-0.33500
13372218;-0.34500
13374996;-0.33000
13377774;-0.33000
13380552;-0.34000
13383330;-0.35000
13386107;-0.35500
13388885;-0.34500
13391663;-0.34000
13394441;-0.32500
13397218;-0.33000
13399996;-0.33500
13402774;-0.34500
13405552;-0.34500
13408330;-0.33500
13411107;-0.33000
13413885;-0.32000
13416663;-0.33000
13419441;-0.33000
13422218;-0.32000
13424996;-0.31500
13427774;-0.31000
13430552;-0.31000
13433330;-0.32000
13436107;-0.34000
13438885;-0.33500
13441663;-0.31500
13444441;-0.30500
13447218;-0.31000
13449996;-0.31500
13452774;-0.30500
13455552;-0.30500
13458330;-0.29500
13461107;-0.27500
13463885;-0.28000
13466663;-0.29500
13469441;-0.28500
13472218;-0.28500
13474996;-0.27000
13477774;-0.25500
13480552;-0.25500
13483330;-0.25500
13486107;-0.27500
13488885;-0.27000
13491663;-0.24500
13494441;-0.24000
13497218;-0.22500
13499996;-0.22500
13502774;-0.22500
13505552;-0.22000
13508330;-0.22000
13511107;-0.22000
13513885;-0.24000
13516663;-0.25000
13519441;-0.25500
13522218;-0.24500
13524996;-0.23000
13527774;-0.21000
13530552;-0.20000
13533330;-0.20500
13536107;-0.21500
13538885;-0.20500
13541663;-0.21500
13544441;-0.23500
13547218;-0.26500
13549996;-0.27500
13552774;-0.30000
13555552;-0.32000
13558330;-0.32500
13561107;-0.33000
13563885;-0.34000
13566663;-0.36000
13569441;-0.36000
13572218;-0.36500
13574996;-0.36000
13577774;-0.34000
13580552;-0.35500
13583330;-0.35500
13586107;-0.37000
13588885;-0.37000
13591663;-0.36000
13594441;-0.36000
13597218;-0.36000
13599996;-0.36500
13602774;-0.38000
13605552;-0.38000
13608330;-0.38500
13611107;-0.36500
13613885;-0.37500
13616663;-0.37500
13619441;-0.39000
13622218;-0.39000
13624996;-0.39000
13627774;-0.37000
13630552;-0.37500
13633330;-0.41500
13636107;-0.45500
13638885;-0.47500
13641663;-0.48500
13644441;-0.47000
13647218;-0.47500
13649996;-0.55000
13652774;-0.61500
13655552;-0.63000
13658330;-0.57000
13661107;-0.46500
13663885;-0.33500
13666663;-0.22000
13669441;-0.07000
13672218;0.16500
13674996;0.44000
13677774;0.70500
13680552;0.86000
13683330;0.89500
13686107;0.74000
13688885;0.43500
13691663;0.05000
13694441;-0.25500
13697218;-0.45000
13699996;-0.53000
13702774;-0.54500
13705552;-0.49500
13708329;-0.46000
13711107;-0.42500
13713885;-0.45000
13716663;-0.43500
13719441;-0.44500
13722218;-0.43000
13724996;-0.42000
13727774;-0.41500
13730552;-0.42000
13733329;-0.43000
13736107;-0.44500
13738885;-0.44500
13741663;-0.44000
13744441;-0.44000
13747218;-0.44500
13749996;-0.45000
13752774;-0.45500
13755552;-0.44500
13758329;-0.43500
13761107;-0.43500
13763885;-0.44500
13766663;-0.45000
13769441;-0.45000
13772218;-0.44500
13774996;-0.44000
13777774;-0.42500
13780552;-0.43500
13783329;-0.44500
13786107;-0.46000
13788885;-0.46000
13791663;-0.44500
13794441;-0.43500
13797218;-0.43500
13799996;-0.44500
13802774;-0.46500
13805552;-0.46000
13808329;-0.43500
13811107;-0.43500
13813885;-0.45000
13816663;-0.46000
13819441;-0.45500
13822218;-0.45000
13824996;-0.44000
13827774;-0.43000
13830552;-0.44000
13833329;-0.46000
13836107;-0.47000
13838885;-0.46500
13841663;-0.45000
13844441;-0.45000
13847218;-0.47000
13849996;-0.46000
13852774;-0.46000
13855552;-0.45000
13858329;-0.43500
13861107;-0.43000
13863885;-0.45000
13866663;-0.47000
13869441;-0.47500
13872218;-0.45500
13874996;-0.45000
13877774;-0.44500
13880552;-0.44500
13883329;-0.44000
13886107;-0.46000
13888885;-0.46000
13891663;-0.45000
13894441;-0.45500
13897218;-0.45500
13899996;-0.45500
13902774;-0.48000
13905552;-0.49000
13908329;-0.49500
13911107;-0.48000
13913885;-0.47000
13916663;-0.48500
13919441;-0.51500
13922218;-0.52000
13924996;-0.50500
13927774;-0.50000
13930552;-0.49000
13933329;-0.49500
13936107;-0.50500
13938885;-0.49500
13941663;-0.48500
13944441;-0.48500
13947218;-0.49000
13949996;-0.49000
13952774;-0.48000
13955552;-0.47000
13958329;-0.45000
13961107;-0.44000
13963885;-0.43000
13966663;-0.42000
13969441;-0.41500
13972218;-0.40500
13974996;-0.40000
13977774;-0.38000
13980552;-0.36500
13983329;-0.35500
13986107;-0.36500
13988885;-0.37000
13991663;-0.36000
13994441;-0.34500
13997218;-0.34000
13999996;-0.34500
14002774;-0.35000
14005552;-0.35500
14008329;-0.34500
14011107;-0.34000
14013885;-0.33500
14016663;-0.33000
14019441;-0.33500
14022218;-0.33500
14024996;-0.33500
14027774;-0.32500
14030552;-0.32000
14033329;-0.31500
14036107;-0.31500
14038885;-0.34500
14041663;-0.33000
14044441;-0.33000
14047218;-0.34000
14049996;-0.34000
14052774;-0.35500
14055552;-0.35500
14058329;-0.35000
14061107;-0.33500
14063885;-0.34500
14066663;-0.36500
14069441;-0.37500
14072218;-0.37000
14074996;-0.35500
14077774;-0.34500
14080552;-0.35000
14083329;-0.35500
14086107;-0.36000
14088885;-0.34000
14091663;-0.34000
14094440;-0.34500
14097218;-0.36000
14099996;-0.38000
14102774;-0.39500
14105552;-0.39000
14108329;-0.37000
14111107;-0.33500
14113885;-0.34000
14116663;-0.37000
14119440;-0.39000
14122218;-0.39000
14124996;-0.37000
14127774;-0.36500
14130552;-0.38000
14133329;-0.39000
14136107;-0.40000
14138885;-0.40000
14141663;-0.38500
14144440;-0.37500
14147218;-0.37500
14149996;-0.39500
14152774;-0.40500
14155552;-0.40500
14158329;-0.37500
14161107;-0.37000
14163885;-0.36500
14166663;-0.36500
14169440;-0.37500
14172218;-0.38000
14174996;-0.35500
14177774;-0.36000
14180552;-0.36500
14183329;-0.37500
14186107;-0.38500
14188885;-0.39000
14191663;-0.37500
14194440;-0.37500
14197218;-0.37000
14199996;-0.38500
14202774;-0.39000
14205552;-0.39000
14208329;-0.39000
14211107;-0.37500
14213885;-0.38000
14216663;-0.38500
14219440;-0.40000
14222218;-0.39000
14224996;-0.38500
14227774;-0.38000
14230552;-0.37000
14233329;-0.37500
14236107;-0.38000
14238885;-0.39500
14241663;-0.38000
14244440;-0.37500
14247218;-0.37000
14249996;-0.38000
14252774;-0.37500
14255552;-0.38000
14258329;-0.35500
14261107;-0.34500
14263885;-0.33500
14266663;-0.36000
14269440;-0.37500
14272218;-0.36000
14274996;-0.33500
14277774;-0.31500
14280552;-0.31000
14283329;-0.31500
14286107;-0.30000
14288885;-0.29500
14291663;-0.28000
14294440;-0.27000
14297218;-0.25000
14299996;-0.25000
14302774;-0.25500
14305552;-0.27000
14308329;-0.26000
14311107;-0.27000
14313885;-0.28000
14316663;-0.27500
14319440;-0.27500
14322218;-0.28000
14324996;-0.27000
14327774;-0.27500
14330552;-0.27000
14333329;-0.26000
14336107;-0.27000
14338885;-0.25500
14341663;-0.24500
14344440;-0.23500
14347218;-0.28000
14349996;-0.30500
14352774;-0.32500
14355552;-0.34500
14358329;-0.35000
14361107;-0.36500
14363885;-0.37500
14366663;-0.38000
14369440;-0.41000
14372218;-0.41000
14374996;-0.39500
14377774;-0.38500
14380552;-0.37500
14383329;-0.39000
14386107;-0.39500
14388885;-0.40000
14391663;-0.39500
14394440;-0.39000
14397218;-0.39500
14399996;-0.39500
14402774;-0.41500
14405552;-0.41500
14408329;-0.41500
14411107;-0.40000
14413885;-0.40500
14416663;-0.41500
14419440;-0.42000
14422218;-0.41000
14424996;-0.39500
14427774;-0.39500
14430552;-0.43000
14433329;-0.46500
14436107;-0.50500
14438885;-0.52500
14441663;-0.55000
14444440;-0.57000
14447218;-0.56500
14449996;-0.50500
14452774;-0.37500
14455552;-0.24500
14458329;-0.09000
14461107;0.08000
14463885;0.31500
14466663;0.55500
14469440;0.75000
14472218;0.90500
14474996;1.02000
14477774;1.03500
14480552;0.90000
14483329;0.60500
14486107;0.24000
14488885;-0.14000
14491663;-0.38000
14494440;-0.49500
14497218;-0.51000
14499996;-0.49000
14502774;-0.45500
14505551;-0.44500
14508329;-0.42500
14511107;-0.41000
14513885;-0.42000
14516663;-0.42000
14519440;-0.43000
14522218;-0.42000
14524996;-0.42000
14527774;-0.41500
14530551;-0.43000
14533329;-0.43000
14536107;-0.44000
14538885;-0.43500
14541663;-0.43000
14544440;-0.43000
14547218;-0.43500
14549996;-0.44000
14552774;-0.46000
14555551;-0.45000
14558329;-0.44000
14561107;-0.42500
14563885;-0.42500
14566663;-0.43000
14569440;-0.44500
14572218;-0.43500
14574996;-0.42500
14577774;-0.41500
14580551;-0.42000
14583329;-0.42500
14586107;-0.43000
14588885;-0.43500
14591663;-0.42000
14594440;-0.41000
14597218;-0.42000
14599996;-0.43000
14602774;-0.43000
14605551;-0.43500
14608329;-0.42500
14611107;-0.41500
14613885;-0.41500
14616663;-0.43500
14619440;-0.44000
14622218;-0.44000
14624996;-0.43000
14627774;-0.43500
14630551;-0.43500
14633329;-0.44000
14636107;-0.45500
14638885;-0.44500
14641663;-0.45000
14644440;-0.43000
14647218;-0.43500
14649996;-0.42500
14652774;-0.43500
14655551;-0.44500
14658329;-0.43500
14661107;-0.42000
14663885;-0.41500
14666663;-0.42500
14669440;-0.44500
14672218;-0.43500
14674996;-0.43500
14677774;-0.43000
14680551;-0.43500
14683329;-0.44500
14686107;-0.46000
14688885;-0.47000
14691663;-0.46500
14694440;-0.45500
14697218;-0.46500
14699996;-0.46500
14702774;-0.48500
14705551;-0.48500
14708329;-0.47500
14711107;-0.47500
14713885;-0.46500
14716663;-0.48000
14719440;-0.49000
14722218;-0.51000
14724996;-0.48500
14727774;-0.46000
14730551;-0.46000
14733329;-0.46500
14736107;-0.46500
14738885;-0.45000
14741663;-0.44000
14744440;-0.41500
14747218;-0.40000
14749996;-0.40000
14752774;-0.39500
14755551;-0.38500
14758329;-0.37000
14761107;-0.34000
14763885;-0.34000
14766663;-0.34500
14769440;-0.35000
14772218;-0.35000
14774996;-0.33000
14777774;-0.31000
14780551;-0.32000
14783329;-0.31500
14786107;-0.31500
14788885;-0.30500
14791663;-0.30000
14794440;-0.28500
14797218;-0.29000
14799996;-0.29000
14802774;-0.30500
14805551;-0.30500
14808329;-0.28500
14811107;-0.28000
14813885;-0.29000
14816663;-0.29500
14819440;-0.30000
14822218;-0.29500
14824996;-0.29000
14827774;-0.28000
14830551;-0.28500
14833329;-0.29500
14836107;-0.31000
14838885;-0.30000
14841663;-0.30000
14844440;-0.29000
14847218;-0.29000
14849996;-0.30000
14852774;-0.30500
14855551;-0.29500
14858329;-0.29500
14861107;-0.28000
14863885;-0.29500
14866663;-0.30000
14869440;-0.30000
14872218;-0.31000
14874996;-0.30000
14877774;-0.31500
14880551;-0.31000
14883329;-0.31500
14886107;-0.32500
14888885;-0.32000
14891662;-0.31500
14894440;-0.30500
14897218;-0.30500
14899996;-0.31000
14902774;-0.33000
14905551;-0.31500
14908329;-0.31000
14911107;-0.29500
14913885;-0.31000
14916662;-0.31500
14919440;-0.34000
14922218;-0.34000
14924996;-0.31000
14927774;-0.31000
14930551;-0.31500
14933329;-0.32500
14936107;-0.33500
14938885;-0.32500
14941662;-0.32500
14944440;-0.31000
14947218;-0.31000
14949996;-0.32000
14952774;-0.32500
14955551;-0.32500
14958329;-0.32500
14961107;-0.32000
14963885;-0.32500
14966662;-0.33500
14969440;-0.33500
14972218;-0.34000
14974996;-0.33000
14977774;-0.31500
14980551;-0.32000
14983329;-0.31500
14986107;-0.31500
14988885;-0.32500
14991662;-0.29500
14994440;-0.28000
14997218;-0.27000
14999996;-0.27000
15002774;-0.27000
15005551;-0.25500
15008329;-0.25000
15011107;-0.22500
15013885;-0.23000
15016662;-0.23500
15019440;-0.22500
15022218;-0.22000
15024996;-0.21000
15027774;-0.19500
15030551;-0.19000
15033329;-0.19500
15036107;-0.20500
15038885;-0.21000
15041662;-0.21000
15044440;-0.19500
15047218;-0.20000
15049996;-0.20500
15052774;-0.21500
15055551;-0.20000
15058329;-0.18000
15061107;-0.15000
15063885;-0.14500
15066662;-0.17500
15069440;-0.22500
15072218;-0.24500
15074996;-0.25000
15077774;-0.24000
15080551;-0.25500
15083329;-0.27000
15086107;-0.28000
15088885;-0.29000
15091662;-0.29500
15094440;-0.30000
15097218;-0.31500
15099996;-0.33500
15102774;-0.35500
15105551;-0.35500
15108329;-0.33000
15111107;-0.33000
15113885;-0.33000
15116662;-0.34500
15119440;-0.35500
15122218;-0.36000
15124996;-0.35000
15127774;-0.35000
15130551;-0.35000
15133329;-0.34500
15136107;-0.35500
15138885;-0.35500
15141662;-0.35000
15144440;-0.34000
15147218;-0.35000
15149996;-0.35000
15152774;-0.36000
15155551;-0.36500
15158329;-0.36000
15161107;-0.39000
15163885;-0.43500
15166662;-0.48000
15169440;-0.51000
15172218;-0.55000
15174996;-0.56500
15177774;-0.53500
15180551;-0.42500
15183329;-0.26000
15186107;-0.08000
15188885;0.13500
15191662;0.41000
15194440;0.70500
15197218;0.93500
15199996;1.08000
15202774;1.07500
15205551;0.87500
15208329;0.50500
15211107;0.04500
15213885;-0.31000
15216662;-0.48500
15219440;-0.50000
15222218;-0.47000
15224996;-0.41500
15227774;-0.38000
15230551;-0.37500
15233329;-0.38500
15236107;-0.40500
15238885;-0.41000
15241662;-0.40000
15244440;-0.39000
15247218;-0.40500
15249996;-0.40500
15252774;-0.41000
15255551;-0.42000
15258329;-0.41000
15261107;-0.40000
15263885;-0.41000
15266662;-0.41000
15269440;-0.41500
15272218;-0.41000
15274996;-0.40500
15277774;-0.41000
15280551;-0.40000
15283329;-0.41500
15286107;-0.42500
15288885;-0.41000
15291662;-0.41500
15294440;-0.39000
15297218;-0.40000
15299996;-0.40000
15302773;-0.42000
15305551;-0.42500
15308329;-0.41000
15311107;-0.40000
15313885;-0.41500
15316662;-0.42000
15319440;-0.42000
15322218;-0.42000
15324996;-0.42000
15327773;-0.41000
15330551;-0.41000
15333329;-0.41500
15336107;-0.43000
15338885;-0.43000
15341662;-0.42000
15344440;-0.41000
15347218;-0.42000
15349996;-0.42000
15352773;-0.42500
15355551;-0.42000
15358329;-0.42000
15361107;-0.40000
15363885;-0.40500
15366662;-0.41000
15369440;-0.41500
15372218;-0.42000
15374996;-0.41500
15377773;-0.39500
15380551;-0.40500
15383329;-0.41500
15386107;-0.41500
15388885;-0.41500
15391662;-0.41500
15394440;-0.41000
15397218;-0.41000
15399996;-0.41000
15402773;-0.41500
15405551;-0.42000
15408329;-0.41500
15411107;-0.40500
15413885;-0.41000
15416662;-0.42000
15419440;-0.41500
15422218;-0.42500
15424996;-0.42000
15427773;-0.40000
15430551;-0.40500
15433329;-0.40000
15436107;-0.42500
15438885;-0.42500
15441662;-0.41500
15444440;-0.40000
15447218;-0.39500
15449996;-0.41500
15452773;-0.41500
15455551;-0.42500
15458329;-0.41500
15461107;-0.40000
15463885;-0.40000
15466662;-0.40500
15469440;-0.41500
15472218;-0.42000
15474996;-0.40500
15477773;-0.39000
15480551;-0.38500
15483329;-0.38500
15486107;-0.38500
15488885;-0.36000
15491662;-0.35000
15494440;-0.32500
15497218;-0.32500
15499996;-0.31500
15502773;-0.32000
15505551;-0.30500
15508329;-0.29000
15511107;-0.28000
15513885;-0.28500
15516662;-0.28500
15519440;-0.28500
15522218;-0.29000
15524996;-0.28000
15527773;-0.26500
15530551;-0.27000
15533329;-0.27500
15536107;-0.28500
15538885;-0.29500
15541662;-0.28500
15544440;-0.27000
15547218;-0.27500
15549996;-0.28000
15552773;-0.28000
15555551;-0.29000
15558329;-0.28500
15561107;-0.26500
15563885;-0.28000
15566662;-0.28500
15569440;-0.28000
15572218;-0.29000
15574996;-0.28000
15577773;-0.26500
15580551;-0.27500
15583329;-0.28500
15586107;-0.29500
15588885;-0.30000
15591662;-0.29000
15594440;-0.28000
15597218;-0.28000
15599996;-0.30000
15602773;-0.30000
15605551;-0.30500
15608329;-0.29000
15611107;-0.30000
15613885;-0.30500
15616662;-0.31000
15619440;-0.33000
15622218;-0.32500
15624996;-0.32000
15627773;-0.29500
15630551;-0.31500
15633329;-0.32000
15636107;-0.32000
15638885;-0.33000
15641662;-0.31000
15644440;-0.31500
15647218;-0.31500
15649996;-0.32000
15652773;-0.33000
15655551;-0.32500
15658329;-0.31500
15661107;-0.30500
15663885;-0.31500
15666662;-0.31500
15669440;-0.33000
15672218;-0.33000
15674996;-0.33000
15677773;-0.31500
15680551;-0.32000
15683329;-0.32500
15686107;-0.33000
15688884;-0.34000
15691662;-0.33500
15694440;-0.33500
15697218;-0.33500
15699996;-0.34500
15702773;-0.34500
15705551;-0.33500
15708329;-0.32500
15711107;-0.31500
15713884;-0.33000
15716662;-0.34000
15719440;-0.34500
15722218;-0.33000
15724996;-0.32000
15727773;-0.31500
15730551;-0.31500
15733329;-0.30500
15736107;-0.31500
15738884;-0.30500
15741662;-0.28000
15744440;-0.27000
15747218;-0.26000
15749996;-0.28000
15752773;-0.27000
15755551;-0.26000
15758329;-0.24500
15761107;-0.23500
15763884;-0.24000
15766662;-0.24500
15769440;-0.24000
15772218;-0.23500
15774996;-0.20500
15777773;-0.19000
15780551;-0.18500
15783329;-0.20000
15786107;-0.21000
15788884;-0.20000
15791662;-0.21000
15794440;-0.20500
15797218;-0.21500
15799996;-0.21500
15802773;-0.20500
15805551;-0.23000
15808329;-0.21000
15811107;-0.19000
15813884;-0.19000
15816662;-0.19500
15819440;-0.17500
15822218;-0.17000
15824996;-0.17000
15827773;-0.19500
15830551;-0.24500
15833329;-0.26000
15836107;-0.27500
15838884;-0.28000
15841662;-0.30000
15844440;-0.30500
15847218;-0.32000
15849996;-0.33000
15852773;-0.35000
15855551;-0.33500
15858329;-0.32500
15861107;-0.33500
15863884;-0.34000
15866662;-0.34500
15869440;-0.35000
15872218;-0.36500
15874996;-0.36500
15877773;-0.34000
15880551;-0.34500
15883329;-0.35500
15886107;-0.36000
15888884;-0.36000
15891662;-0.36000
15894440;-0.34500
15897218;-0.34500
15899996;-0.36500
15902773;-0.36500
15905551;-0.37500
15908329;-0.36000
15911107;-0.34500
15913884;-0.35000
15916662;-0.36000
15919440;-0.39500
15922218;-0.43000
15924996;-0.46000
15927773;-0.46500
15930551;-0.51500
15933329;-0.54500
15936107;-0.55500
15938884;-0.47500
15941662;-0.34000
15944440;-0.15500
15947218;0.02500
15949996;0.25500
15952773;0.53000
15955551;0.79500
15958329;1.01000
15961107;1.11000
