time_ms;ecg_value
0;-0.49000
2778;-0.49000
5556;-0.49000
8333;-0.48000
11111;-0.50000
13889;-0.50000
16667;-0.47500
19444;-0.46500
22222;-0.45000
25000;-0.45000
27778;-0.44000
30556;-0.44000
33333;-0.42500
36111;-0.39500
38889;-0.37500
41667;-0.36500
44444;-0.37000
47222;-0.38000
50000;-0.36000
52778;-0.33000
55556;-0.33000
58333;-0.34000
61111;-0.33000
63889;-0.33000
66667;-0.32000
69444;-0.30000
72222;-0.30000
75000;-0.30500
77778;-0.32000
80556;-0.32500
83333;-0.30500
86111;-0.30000
88889;-0.30000
91667;-0.30500
94444;-0.31500
97222;-0.31500
100000;-0.31000
102778;-0.30500
105556;-0.30000
108333;-0.30500
111111;-0.30500
113889;-0.31000
116667;-0.30500
119444;-0.29500
122222;-0.30000
125000;-0.30000
127778;-0.31000
130556;-0.30500
133333;-0.30500
136111;-0.29500
138889;-0.29500
141667;-0.31000
144444;-0.32000
147222;-0.33500
150000;-0.32000
152778;-0.31500
155556;-0.30000
158333;-0.32000
161111;-0.32500
163889;-0.33500
166667;-0.32000
169444;-0.31000
172222;-0.31000
175000;-0.32500
177778;-0.32500
180556;-0.33500
183333;-0.32500
186111;-0.32500
188889;-0.31500
191667;-0.31500
194444;-0.33000
197222;-0.33500
200000;-0.32500
202778;-0.31000
205555;-0.31500
208333;-0.32000
211111;-0.33000
213889;-0.34000
216667;-0.35000
219444;-0.34000
222222;-0.32500
225000;-0.33500
227778;-0.34000
230555;-0.34500
233333;-0.33500
236111;-0.33000
238889;-0.33000
241667;-0.34000
244444;-0.34000
247222;-0.33500
250000;-0.34500
252778;-0.34000
255555;-0.33000
258333;-0.34000
261111;-0.34000
263889;-0.34000
266667;-0.34000
269444;-0.33500
272222;-0.33500
275000;-0.32500
277778;-0.33000
280555;-0.34000
283333;-0.33000
286111;-0.32000
288889;-0.31500
291667;-0.31500
294444;-0.32000
297222;-0.33500
300000;-0.32500
302778;-0.31000
305555;-0.31000
308333;-0.31500
311111;-0.33500
313889;-0.34000
316667;-0.33000
319444;-0.32000
322222;-0.32000
325000;-0.32000
327778;-0.32000
330555;-0.32000
333333;-0.32000
336111;-0.31500
338889;-0.30000
341667;-0.32000
344444;-0.32000
347222;-0.32500
350000;-0.31500
352778;-0.31000
355555;-0.31000
358333;-0.29500
361111;-0.30000
363889;-0.30500
366667;-0.27500
369444;-0.26000
372222;-0.25500
375000;-0.23500
377778;-0.24500
380555;-0.25500
383333;-0.23500
386111;-0.23000
388889;-0.22500
391667;-0.22000
394444;-0.22000
397222;-0.21500
400000;-0.20500
402778;-0.18500
405555;-0.18000
408333;-0.19000
411111;-0.21000
413889;-0.22500
416667;-0.22000
419444;-0.21000
422222;-0.20000
425000;-0.21000
427778;-0.21000
430555;-0.22500
433333;-0.23000
436111;-0.21500
438889;-0.19000
441667;-0.18000
444444;-0.20000
447222;-0.23000
450000;-0.24500
452778;-0.26000
455555;-0.26000
458333;-0.28000
461111;-0.30500
463889;-0.30500
466667;-0.31000
469444;-0.31500
472222;-0.31000
475000;-0.31000
477778;-0.33000
480555;-0.32000
483333;-0.31500
486111;-0.31000
488889;-0.31000
491667;-0.31500
494444;-0.31000
497222;-0.33500
500000;-0.34500
502778;-0.33500
505555;-0.33000
508333;-0.32500
511111;-0.34500
513889;-0.34000
516667;-0.33500
519444;-0.33000
522222;-0.32500
525000;-0.32500
527778;-0.33000
530555;-0.35500
533333;-0.36500
536111;-0.38500
538889;-0.42000
541667;-0.46500
544444;-0.48000
547222;-0.53500
550000;-0.54000
552778;-0.51000
555555;-0.41000
558333;-0.26000
561111;-0.10000
563889;0.04500
566667;0.23000
569444;0.45500
572222;0.69000
575000;0.92500
577778;1.07500
580555;1.17000
583333;1.27500
586111;1.32000
588889;1.26000
591667;0.98500
594444;0.50000
597222;-0.00500
600000;-0.33500
602778;-0.44500
605555;-0.42500
608333;-0.38000
611111;-0.35500
613889;-0.34500
616666;-0.34500
619444;-0.34500
622222;-0.34500
625000;-0.35000
627778;-0.34500
630555;-0.36500
633333;-0.35500
636111;-0.37000
638889;-0.36000
641666;-0.37500
644444;-0.36500
647222;-0.37000
650000;-0.36500
652778;-0.35000
655555;-0.34500
658333;-0.35000
661111;-0.36000
663889;-0.36500
666666;-0.37000
669444;-0.37000
672222;-0.36500
675000;-0.37500
677778;-0.37500
680555;-0.38000
683333;-0.37000
686111;-0.38000
688889;-0.36000
691666;-0.37500
694444;-0.38000
697222;-0.38500
700000;-0.38500
702778;-0.36500
705555;-0.35500
708333;-0.36000
711111;-0.37000
713889;-0.37500
716666;-0.37000
719444;-0.37500
722222;-0.37500
725000;-0.38500
727778;-0.38500
730555;-0.39000
733333;-0.39000
736111;-0.37500
738889;-0.37000
741666;-0.37500
744444;-0.37500
747222;-0.38500
750000;-0.38000
752778;-0.35500
755555;-0.36000
758333;-0.36500
761111;-0.36500
763889;-0.38000
766666;-0.37000
769444;-0.36500
772222;-0.36500
775000;-0.35000
777778;-0.37000
780555;-0.39000
783333;-0.39000
786111;-0.37500
788889;-0.37000
791666;-0.38000
794444;-0.38000
797222;-0.39000
800000;-0.39500
802778;-0.38500
805555;-0.36500
808333;-0.38500
811111;-0.39000
813889;-0.39500
816666;-0.39500
819444;-0.38000
822222;-0.39000
825000;-0.40000
827778;-0.40500
830555;-0.41000
833333;-0.40500
836111;-0.39500
838889;-0.40500
841666;-0.40500
844444;-0.40000
847222;-0.41000
850000;-0.40000
852778;-0.40000
855555;-0.39000
858333;-0.36500
861111;-0.36500
863889;-0.37500
866666;-0.36500
869444;-0.34500
872222;-0.32500
875000;-0.31500
877778;-0.31500
880555;-0.31000
883333;-0.29500
886111;-0.28000
888889;-0.27000
891666;-0.27500
894444;-0.27500
897222;-0.27500
900000;-0.28500
902778;-0.26500
905555;-0.25000
908333;-0.24500
911111;-0.27000
913889;-0.26500
916666;-0.26000
919444;-0.25000
922222;-0.25500
925000;-0.26000
927778;-0.26000
930555;-0.27500
933333;-0.26500
936111;-0.25000
938889;-0.25000
941666;-0.26000
944444;-0.25000
947222;-0.26500
950000;-0.27000
952778;-0.26000
955555;-0.25000
958333;-0.25500
961111;-0.28000
963889;-0.29000
966666;-0.27000
969444;-0.26000
972222;-0.26500
975000;-0.26500
977778;-0.28500
980555;-0.29000
983333;-0.27500
986111;-0.27000
988889;-0.26500
991666;-0.28000
994444;-0.28500
997222;-0.29000
1000000;-0.28500
1002777;-0.27500
1005555;-0.27500
1008333;-0.27000
1011111;-0.28000
1013889;-0.30500
1016666;-0.30000
1019444;-0.28500
1022222;-0.28000
1025000;-0.28000
1027777;-0.30000
1030555;-0.31000
1033333;-0.31000
1036111;-0.30000
1038889;-0.30000
1041666;-0.30000
1044444;-0.30000
1047222;-0.32500
1050000;-0.31500
1052777;-0.32000
1055555;-0.30500
1058333;-0.31000
1061111;-0.31500
1063889;-0.32500
1066666;-0.32000
1069444;-0.30500
1072222;-0.31500
1075000;-0.31500
1077777;-0.32000
1080555;-0.33500
1083333;-0.32000
1086111;-0.30500
1088889;-0.30000
1091666;-0.30500
1094444;-0.31500
1097222;-0.32500
1100000;-0.31500
1102777;-0.31500
1105555;-0.30500
1108333;-0.31500
1111111;-0.32500
1113889;-0.32000
1116666;-0.32000
1119444;-0.30000
1122222;-0.30000
1125000;-0.30000
1127777;-0.31000
1130555;-0.31500
1133333;-0.30500
1136111;-0.30500
1138889;-0.29000
1141666;-0.31500
1144444;-0.29000
1147222;-0.30000
1150000;-0.28500
1152777;-0.28500
1155555;-0.27000
1158333;-0.28000
1161111;-0.29000
1163889;-0.30500
1166666;-0.28500
1169444;-0.27000
1172222;-0.27000
1175000;-0.29000
1177777;-0.29000
1180555;-0.30000
1183333;-0.29500
1186111;-0.28000
1188889;-0.27000
1191666;-0.27000
1194444;-0.26000
1197222;-0.25000
1200000;-0.22500
1202777;-0.22000
1205555;-0.21500
1208333;-0.21000
1211111;-0.22500
1213889;-0.22500
1216666;-0.21500
1219444;-0.19500
1222222;-0.17000
1225000;-0.17500
1227777;-0.17500
1230555;-0.18000
1233333;-0.19500
1236111;-0.18000
1238889;-0.18500
1241666;-0.19500
1244444;-0.21000
1247222;-0.22000
1250000;-0.21500
1252777;-0.20000
1255555;-0.20500
1258333;-0.22000
1261111;-0.21500
1263889;-0.19000
1266666;-0.17000
1269444;-0.17000
1272222;-0.19500
1275000;-0.23500
1277777;-0.24500
1280555;-0.27000
1283333;-0.28500
1286111;-0.29500
1288889;-0.29500
1291666;-0.29500
1294444;-0.29500
1297222;-0.31000
1300000;-0.29500
1302777;-0.28500
1305555;-0.29000
1308333;-0.29000
1311111;-0.31500
1313889;-0.31000
1316666;-0.31500
1319444;-0.32000
1322222;-0.32000
1325000;-0.31500
1327777;-0.32000
1330555;-0.33000
1333333;-0.34000
1336111;-0.33000
1338889;-0.31500
1341666;-0.31500
1344444;-0.33000
1347222;-0.32000
1350000;-0.32500
1352777;-0.32000
1355555;-0.30500
1358333;-0.32500
1361111;-0.33500
1363889;-0.36500
1366666;-0.40000
1369444;-0.43000
1372222;-0.44500
1375000;-0.48500
1377777;-0.53500
1380555;-0.53500
1383333;-0.44500
1386111;-0.28500
1388888;-0.09000
1391666;0.10500
1394444;0.36000
1397222;0.65500
1400000;0.94500
1402777;1.10000
1405555;1.13000
1408333;0.94500
1411111;0.53000
1413888;0.02500
1416666;-0.32000
1419444;-0.46000
1422222;-0.42000
1425000;-0.36000
1427777;-0.32000
1430555;-0.33000
1433333;-0.33500
1436111;-0.36000
1438888;-0.34000
1441666;-0.34000
1444444;-0.34000
1447222;-0.35500
1450000;-0.35500
1452777;-0.35000
1455555;-0.35500
1458333;-0.35500
1461111;-0.37000
1463888;-0.38500
1466666;-0.38000
1469444;-0.36500
1472222;-0.36000
1475000;-0.36500
1477777;-0.37500
1480555;-0.39000
1483333;-0.38500
1486111;-0.36000
1488888;-0.36500
1491666;-0.36000
1494444;-0.37000
1497222;-0.37500
1500000;-0.36500
1502777;-0.35500
1505555;-0.35500
1508333;-0.35500
1511111;-0.36500
1513888;-0.37500
1516666;-0.37500
1519444;-0.36000
1522222;-0.35000
1525000;-0.35500
1527777;-0.37000
1530555;-0.37500
1533333;-0.37000
1536111;-0.36500
1538888;-0.36000
1541666;-0.36000
1544444;-0.36000
1547222;-0.37000
1550000;-0.35500
1552777;-0.35500
1555555;-0.35500
1558333;-0.36000
1561111;-0.37000
1563888;-0.37500
1566666;-0.37000
1569444;-0.36000
1572222;-0.35000
1575000;-0.35500
1577777;-0.36000
1580555;-0.37500
1583333;-0.36500
1586111;-0.36000
1588888;-0.36000
1591666;-0.37000
1594444;-0.38000
1597222;-0.37500
1600000;-0.36500
1602777;-0.35500
1605555;-0.35000
1608333;-0.36000
1611111;-0.36500
1613888;-0.38000
1616666;-0.37500
1619444;-0.36500
1622222;-0.37000
1625000;-0.36500
1627777;-0.37500
1630555;-0.38000
1633333;-0.38000
1636111;-0.36500
1638888;-0.36500
1641666;-0.37000
1644444;-0.39000
1647222;-0.39000
1650000;-0.39000
1652777;-0.38500
1655555;-0.38500
1658333;-0.38500
1661111;-0.38000
1663888;-0.39500
1666666;-0.39000
1669444;-0.36500
1672222;-0.37000
1675000;-0.35500
1677777;-0.36500
1680555;-0.35500
1683333;-0.34000
1686111;-0.32000
1688888;-0.31000
1691666;-0.30500
1694444;-0.30500
1697222;-0.32000
1700000;-0.29000
1702777;-0.29000
1705555;-0.27000
1708333;-0.27500
1711111;-0.27500
1713888;-0.29000
1716666;-0.27500
1719444;-0.27000
1722222;-0.26000
1725000;-0.27000
1727777;-0.27500
1730555;-0.27500
1733333;-0.26500
1736111;-0.26000
1738888;-0.24500
1741666;-0.25500
1744444;-0.26000
1747222;-0.27500
1750000;-0.26000
1752777;-0.25500
1755555;-0.25000
1758333;-0.25500
1761111;-0.27500
1763888;-0.27500
1766666;-0.27500
1769444;-0.25500
1772222;-0.24500
1775000;-0.26500
1777777;-0.26500
1780555;-0.27500
1783333;-0.28000
1786111;-0.26500
1788888;-0.26500
1791666;-0.27000
1794444;-0.28500
1797222;-0.30500
1799999;-0.30500
1802777;-0.28000
1805555;-0.27500
1808333;-0.28500
1811111;-0.29000
1813888;-0.30000
1816666;-0.29500
1819444;-0.29500
1822222;-0.28000
1824999;-0.28000
1827777;-0.29000
1830555;-0.31500
1833333;-0.31000
1836111;-0.29500
1838888;-0.28500
1841666;-0.28500
1844444;-0.29500
1847222;-0.30500
1849999;-0.30500
1852777;-0.31000
1855555;-0.31000
1858333;-0.31000
1861111;-0.31500
1863888;-0.31500
1866666;-0.32000
1869444;-0.32000
1872222;-0.30500
1874999;-0.30500
1877777;-0.32500
1880555;-0.33500
1883333;-0.32500
1886111;-0.32000
1888888;-0.31500
1891666;-0.31500
1894444;-0.32000
1897222;-0.33000
1899999;-0.33000
1902777;-0.32000
1905555;-0.31500
1908333;-0.31000
1911111;-0.32500
1913888;-0.32500
1916666;-0.32000
1919444;-0.31500
1922222;-0.31000
1924999;-0.30000
1927777;-0.30500
1930555;-0.32500
1933333;-0.32500
1936111;-0.32000
1938888;-0.30000
1941666;-0.30000
1944444;-0.32000
1947222;-0.32000
1949999;-0.32000
1952777;-0.32000
1955555;-0.31000
1958333;-0.31500
1961111;-0.32500
1963888;-0.32500
1966666;-0.31000
1969444;-0.30000
1972222;-0.29500
1974999;-0.30000
1977777;-0.31000
1980555;-0.33500
1983333;-0.31500
1986111;-0.31000
1988888;-0.29000
1991666;-0.27500
1994444;-0.26000
1997222;-0.25500
1999999;-0.24000
2002777;-0.25000
2005555;-0.23500
2008333;-0.23500
2011111;-0.24000
2013888;-0.24500
2016666;-0.22500
2019444;-0.20500
2022222;-0.21000
2024999;-0.20500
2027777;-0.20000
2030555;-0.21000
2033333;-0.22000
2036111;-0.21000
2038888;-0.20000
2041666;-0.21000
2044444;-0.22000
2047222;-0.23500
2049999;-0.24000
2052777;-0.23000
2055555;-0.22500
2058333;-0.22500
2061111;-0.23500
2063888;-0.25000
2066666;-0.26000
2069444;-0.24500
2072222;-0.20500
2074999;-0.19000
2077777;-0.21000
2080555;-0.25500
2083333;-0.28000
2086111;-0.28000
2088888;-0.29000
2091666;-0.31500
2094444;-0.34000
2097222;-0.34500
2099999;-0.36000
2102777;-0.36000
2105555;-0.35000
2108333;-0.35000
2111111;-0.35500
2113888;-0.37000
2116666;-0.36500
2119444;-0.35000
2122222;-0.34500
2124999;-0.35000
2127777;-0.35500
2130555;-0.36500
2133333;-0.37500
2136111;-0.36500
2138888;-0.35500
2141666;-0.35000
2144444;-0.36000
2147222;-0.36500
2149999;-0.37000
2152777;-0.35500
2155555;-0.35500
2158333;-0.37000
2161111;-0.42000
2163888;-0.46000
2166666;-0.50000
2169444;-0.53000
2172222;-0.55000
2174999;-0.59000
2177777;-0.61000
2180555;-0.56500
2183333;-0.45000
2186110;-0.32500
2188888;-0.22500
2191666;-0.12500
2194444;0.03500
2197222;0.26500
2199999;0.56500
2202777;0.81000
2205555;0.95500
2208333;0.93000
2211110;0.68000
2213888;0.25000
2216666;-0.17500
2219444;-0.43500
2222222;-0.49500
2224999;-0.48500
2227777;-0.43500
2230555;-0.42000
2233333;-0.41000
2236110;-0.41000
2238888;-0.39500
2241666;-0.40000
2244444;-0.41000
2247222;-0.43000
2249999;-0.42500
2252777;-0.42500
2255555;-0.41500
2258333;-0.40500
2261110;-0.42000
2263888;-0.43000
2266666;-0.43000
2269444;-0.42000
2272222;-0.42000
2274999;-0.42000
2277777;-0.42500
2280555;-0.43000
2283333;-0.43000
2286110;-0.42000
2288888;-0.40500
2291666;-0.40000
2294444;-0.40500
2297222;-0.42000
2299999;-0.41500
2302777;-0.40000
2305555;-0.39500
2308333;-0.40000
2311110;-0.40500
2313888;-0.42500
2316666;-0.42000
2319444;-0.41000
2322222;-0.40500
2324999;-0.41500
2327777;-0.41500
2330555;-0.43500
2333333;-0.44000
2336110;-0.41500
2338888;-0.41500
2341666;-0.43000
2344444;-0.43500
2347222;-0.45500
2349999;-0.45000
2352777;-0.43000
2355555;-0.43500
2358333;-0.43000
2361110;-0.43500
2363888;-0.44000
2366666;-0.44500
2369444;-0.43500
2372222;-0.40500
2374999;-0.41500
2377777;-0.43000
2380555;-0.45000
2383333;-0.44500
2386110;-0.43500
2388888;-0.43500
2391666;-0.44000
2394444;-0.44500
2397222;-0.44500
2399999;-0.43500
2402777;-0.43000
2405555;-0.43000
2408333;-0.43500
2411110;-0.45000
2413888;-0.46000
2416666;-0.45500
2419444;-0.46500
2422222;-0.46000
2424999;-0.46000
2427777;-0.46500
2430555;-0.47000
2433333;-0.47500
2436110;-0.46000
2438888;-0.44500
2441666;-0.47000
2444444;-0.47000
2447222;-0.50000
2449999;-0.50000
2452777;-0.48500
2455555;-0.48500
2458333;-0.48500
2461110;-0.48500
2463888;-0.50500
2466666;-0.50000
2469444;-0.49000
2472222;-0.48000
2474999;-0.48500
2477777;-0.47500
2480555;-0.47000
2483333;-0.45000
2486110;-0.44000
2488888;-0.42000
2491666;-0.41000
2494444;-0.40500
2497222;-0.42000
2499999;-0.40500
2502777;-0.39000
2505555;-0.37500
2508333;-0.36000
2511110;-0.36000
2513888;-0.38000
2516666;-0.38000
2519444;-0.36000
2522222;-0.35000
2524999;-0.34500
2527777;-0.35000
2530555;-0.36500
2533333;-0.36000
2536110;-0.34500
2538888;-0.33500
2541666;-0.34000
2544444;-0.34500
2547222;-0.36500
2549999;-0.36000
2552777;-0.35500
2555555;-0.35000
2558333;-0.33500
2561110;-0.34500
2563888;-0.36000
2566666;-0.35500
2569444;-0.36000
2572222;-0.37000
2574999;-0.37500
2577777;-0.38000
2580555;-0.38000
2583333;-0.36500
2586110;-0.35000
2588888;-0.35000
2591666;-0.36000
2594444;-0.37500
2597221;-0.39000
2599999;-0.38000
2602777;-0.38000
2605555;-0.37000
2608333;-0.37000
2611110;-0.38500
2613888;-0.39500
2616666;-0.37500
2619444;-0.36000
2622221;-0.37000
2624999;-0.38500
2627777;-0.38000
2630555;-0.39500
2633333;-0.39000
2636110;-0.39000
2638888;-0.38500
2641666;-0.39500
2644444;-0.40000
2647221;-0.40000
2649999;-0.39500
2652777;-0.38500
2655555;-0.39000
2658333;-0.40000
2661110;-0.43000
2663888;-0.43500
2666666;-0.42500
2669444;-0.40500
2672221;-0.38500
2674999;-0.39500
2677777;-0.41000
2680555;-0.41500
2683333;-0.41000
2686110;-0.41000
2688888;-0.40500
2691666;-0.41000
2694444;-0.41000
2697221;-0.40500
2699999;-0.40000
2702777;-0.39500
2705555;-0.39000
2708333;-0.39500
2711110;-0.39000
2713888;-0.41500
2716666;-0.41000
2719444;-0.41000
2722221;-0.40500
2724999;-0.38500
2727777;-0.39500
2730555;-0.41500
2733333;-0.41000
2736110;-0.40000
2738888;-0.39500
2741666;-0.40000
2744444;-0.42000
2747221;-0.42000
2749999;-0.42000
2752777;-0.41500
2755555;-0.40500
2758333;-0.40000
2761110;-0.39500
2763888;-0.40500
2766666;-0.40500
2769444;-0.37000
2772221;-0.35000
2774999;-0.35000
2777777;-0.34000
2780555;-0.35000
2783333;-0.33500
2786110;-0.32000
2788888;-0.31000
2791666;-0.32000
2794444;-0.32500
2797221;-0.32000
2799999;-0.31500
2802777;-0.30000
2805555;-0.30000
2808333;-0.30000
2811110;-0.31000
2813888;-0.32000
2816666;-0.33500
2819444;-0.34000
2822221;-0.33500
2824999;-0.33500
2827777;-0.36500
2830555;-0.36000
2833333;-0.34000
2836110;-0.32000
2838888;-0.30500
2841666;-0.30500
2844444;-0.34000
2847221;-0.37000
2849999;-0.39500
2852777;-0.39500
2855555;-0.41000
2858333;-0.42500
2861110;-0.44500
2863888;-0.45000
2866666;-0.46000
2869444;-0.43000
2872221;-0.44000
2874999;-0.45000
2877777;-0.44500
2880555;-0.44500
2883333;-0.44000
2886110;-0.44500
2888888;-0.44000
2891666;-0.44000
2894444;-0.44500
2897221;-0.46000
2899999;-0.45500
2902777;-0.44000
2905555;-0.43500
2908333;-0.45000
2911110;-0.46000
2913888;-0.47000
2916666;-0.45500
2919444;-0.46500
2922221;-0.44000
2924999;-0.44500
2927777;-0.45500
2930555;-0.48000
2933333;-0.51500
2936110;-0.55000
2938888;-0.55500
2941666;-0.58500
2944444;-0.62500
2947221;-0.64000
2949999;-0.55000
2952777;-0.41000
2955555;-0.23000
2958333;-0.05000
2961110;0.18500
2963888;0.45500
2966666;0.72000
2969444;0.88500
2972221;0.90000
2974999;0.67000
2977777;0.25500
2980555;-0.19500
2983332;-0.49000
2986110;-0.60000
2988888;-0.57000
2991666;-0.53000
2994444;-0.49500
2997221;-0.48500
2999999;-0.47500
3002777;-0.47500
3005555;-0.46500
3008332;-0.46500
3011110;-0.47500
3013888;-0.49000
3016666;-0.48500
3019444;-0.49000
3022221;-0.47500
3024999;-0.48500
3027777;-0.49000
3030555;-0.49000
3033332;-0.48000
3036110;-0.46000
3038888;-0.45500
3041666;-0.46500
3044444;-0.47500
3047221;-0.48500
3049999;-0.49000
3052777;-0.48500
3055555;-0.47500
3058332;-0.47500
3061110;-0.48000
3063888;-0.49000
3066666;-0.48500
3069444;-0.47000
3072221;-0.46500
3074999;-0.48000
3077777;-0.48000
3080555;-0.49500
3083332;-0.49000
3086110;-0.47500
3088888;-0.48000
3091666;-0.48000
3094444;-0.48000
3097221;-0.50000
3099999;-0.48500
3102777;-0.48000
3105555;-0.48000
3108332;-0.47500
3111110;-0.48500
3113888;-0.50000
3116666;-0.49000
3119444;-0.48500
3122221;-0.46500
3124999;-0.47000
3127777;-0.48500
3130555;-0.49000
3133332;-0.48500
3136110;-0.48000
3138888;-0.46500
3141666;-0.47000
3144444;-0.47500
3147221;-0.48000
3149999;-0.46500
3152777;-0.45500
3155555;-0.46000
3158332;-0.45000
3161110;-0.45500
3163888;-0.47000
3166666;-0.47000
3169444;-0.46000
3172221;-0.46000
3174999;-0.46000
3177777;-0.46500
3180555;-0.48500
3183332;-0.47500
3186110;-0.46500
3188888;-0.48000
3191666;-0.48500
3194444;-0.47500
3197221;-0.48500
3199999;-0.49000
3202777;-0.48500
3205555;-0.48000
3208332;-0.48500
3211110;-0.49500
3213888;-0.51500
3216666;-0.51000
3219444;-0.50000
3222221;-0.49000
3224999;-0.49000
3227777;-0.50000
3230555;-0.50000
3233332;-0.50500
3236110;-0.50000
3238888;-0.50000
3241666;-0.49500
3244444;-0.50500
3247221;-0.51500
3249999;-0.50500
3252777;-0.50000
3255555;-0.48500
3258332;-0.48000
3261110;-0.47500
3263888;-0.47000
3266666;-0.45500
3269444;-0.43000
3272221;-0.41500
3274999;-0.40500
3277777;-0.39000
3280555;-0.40000
3283332;-0.37500
3286110;-0.36000
3288888;-0.34000
3291666;-0.33500
3294444;-0.34000
3297221;-0.34000
3299999;-0.34000
3302777;-0.32000
3305555;-0.31000
3308332;-0.30500
3311110;-0.30000
3313888;-0.31500
3316666;-0.30500
3319444;-0.30000
3322221;-0.29500
3324999;-0.30000
3327777;-0.30500
3330555;-0.32000
3333332;-0.32000
3336110;-0.31000
3338888;-0.30500
3341666;-0.30500
3344444;-0.30500
3347221;-0.32500
3349999;-0.31500
3352777;-0.29500
3355555;-0.29000
3358332;-0.29000
3361110;-0.30000
3363888;-0.30500
3366666;-0.30500
3369444;-0.29500
3372221;-0.28000
3374999;-0.29500
3377777;-0.31000
3380555;-0.32000
3383332;-0.32000
3386110;-0.30000
3388888;-0.29000
3391666;-0.30000
3394443;-0.30500
3397221;-0.31500
3399999;-0.31000
3402777;-0.30500
3405555;-0.30500
3408332;-0.29500
3411110;-0.31000
3413888;-0.32000
3416666;-0.31500
3419443;-0.32000
3422221;-0.30500
3424999;-0.31500
3427777;-0.32500
3430555;-0.33000
3433332;-0.32500
3436110;-0.32000
3438888;-0.31000
3441666;-0.31500
3444443;-0.30500
3447221;-0.32500
3449999;-0.31500
3452777;-0.30500
3455555;-0.29500
3458332;-0.29500
3461110;-0.30500
3463888;-0.31500
3466666;-0.31500
3469443;-0.31000
3472221;-0.29000
3474999;-0.29500
3477777;-0.30500
3480555;-0.32000
3483332;-0.32500
3486110;-0.32500
3488888;-0.31500
3491666;-0.31500
3494443;-0.31500
3497221;-0.33500
3499999;-0.32000
3502777;-0.32000
3505555;-0.31500
3508332;-0.32000
3511110;-0.31500
3513888;-0.32500
3516666;-0.31500
3519443;-0.31000
3522221;-0.30000
3524999;-0.30500
3527777;-0.31500
3530555;-0.33000
3533332;-0.30500
3536110;-0.30000
3538888;-0.29000
3541666;-0.28500
3544443;-0.29500
3547221;-0.31000
3549999;-0.30500
3552777;-0.29500
3555555;-0.28000
3558332;-0.29000
3561110;-0.29500
3563888;-0.30500
3566666;-0.31500
3569443;-0.29000
3572221;-0.27500
3574999;-0.28500
3577777;-0.29500
3580555;-0.29000
3583332;-0.28000
3586110;-0.26500
3588888;-0.25000
3591666;-0.25000
3594443;-0.24500
3597221;-0.26000
3599999;-0.24000
3602777;-0.22500
3605555;-0.21500
3608332;-0.21500
3611110;-0.21500
3613888;-0.22500
3616666;-0.20500
3619443;-0.18500
3622221;-0.17500
3624999;-0.17500
3627777;-0.17500
3630555;-0.19500
3633332;-0.19500
3636110;-0.19000
3638888;-0.19500
3641666;-0.20500
3644443;-0.22000
3647221;-0.22500
3649999;-0.21500
3652777;-0.22000
3655555;-0.21500
3658332;-0.20500
3661110;-0.19000
3663888;-0.18000
3666666;-0.20000
3669443;-0.21500
3672221;-0.23000
3674999;-0.25500
3677777;-0.27000
3680555;-0.29000
3683332;-0.29500
3686110;-0.30000
3688888;-0.29500
3691666;-0.31000
3694443;-0.32000
3697221;-0.32000
3699999;-0.31000
3702777;-0.30500
3705555;-0.29500
3708332;-0.31000
3711110;-0.31500
3713888;-0.32000
3716666;-0.32000
3719443;-0.31500
3722221;-0.31000
3724999;-0.31000
3727777;-0.31500
3730555;-0.34500
3733332;-0.33500
3736110;-0.32500
3738888;-0.31500
3741666;-0.32500
3744443;-0.32500
3747221;-0.33000
3749999;-0.33500
3752777;-0.32000
3755555;-0.31500
3758332;-0.34500
3761110;-0.38000
3763888;-0.42000
3766666;-0.45500
3769443;-0.46500
3772221;-0.47500
3774999;-0.50500
3777777;-0.52000
3780554;-0.44500
3783332;-0.28500
3786110;-0.11000
3788888;0.09000
3791666;0.31000
3794443;0.56500
3797221;0.83000
3799999;1.05000
3802777;1.18500
3805554;1.20000
3808332;1.02000
3811110;0.66000
3813888;0.19500
3816666;-0.20500
3819443;-0.38500
3822221;-0.42000
3824999;-0.38500
3827777;-0.32500
3830554;-0.32000
3833332;-0.31500
3836110;-0.31000
3838888;-0.30500
3841666;-0.30500
3844443;-0.32500
3847221;-0.34000
3849999;-0.34000
3852777;-0.33500
3855554;-0.34000
3858332;-0.34000
3861110;-0.34500
3863888;-0.34500
3866666;-0.34000
3869443;-0.34000
3872221;-0.33000
3874999;-0.33000
3877777;-0.33500
3880554;-0.36000
3883332;-0.35000
3886110;-0.34500
3888888;-0.34500
3891666;-0.35500
3894443;-0.36000
3897221;-0.37000
3899999;-0.36000
3902777;-0.35500
3905554;-0.35000
3908332;-0.35500
3911110;-0.36500
3913888;-0.36500
3916666;-0.36500
3919443;-0.35500
3922221;-0.34000
3924999;-0.35000
3927777;-0.35500
3930554;-0.37500
3933332;-0.37000
3936110;-0.36000
3938888;-0.35500
3941666;-0.36000
3944443;-0.36500
3947221;-0.38500
3949999;-0.37000
3952777;-0.36500
3955554;-0.36500
3958332;-0.35500
3961110;-0.35500
3963888;-0.37500
3966666;-0.36500
3969443;-0.36500
3972221;-0.35000
3974999;-0.35500
3977777;-0.36000
3980554;-0.36500
3983332;-0.36000
3986110;-0.36500
3988888;-0.34500
3991666;-0.35000
3994443;-0.35500
3997221;-0.36500
3999999;-0.36000
4002777;-0.35000
4005554;-0.34000
4008332;-0.34500
4011110;-0.36500
4013888;-0.38000
4016666;-0.36000
4019443;-0.36500
4022221;-0.35500
4024999;-0.35000
4027777;-0.36000
4030554;-0.36500
4033332;-0.37000
4036110;-0.37500
4038888;-0.35000
4041666;-0.35000
4044443;-0.37000
4047221;-0.37500
4049999;-0.38000
4052777;-0.36500
4055554;-0.35500
4058332;-0.35500
4061110;-0.36500
4063888;-0.38500
4066666;-0.37000
4069443;-0.36500
4072221;-0.35000
4074999;-0.36500
4077777;-0.37500
4080554;-0.37000
4083332;-0.37500
4086110;-0.37000
4088888;-0.36500
4091666;-0.36000
4094443;-0.36500
4097221;-0.38000
4099999;-0.37000
4102777;-0.36000
4105554;-0.36000
4108332;-0.34500
4111110;-0.34500
4113888;-0.33000
4116666;-0.33000
4119443;-0.30000
4122221;-0.28500
4124999;-0.27000
4127777;-0.26500
4130554;-0.27000
4133332;-0.26000
4136110;-0.24500
4138888;-0.23500
4141666;-0.22500
4144443;-0.24500
4147221;-0.24500
4149999;-0.24500
4152777;-0.24000
4155554;-0.23000
4158332;-0.23500
4161110;-0.23000
4163888;-0.23000
4166666;-0.24000
4169443;-0.23500
4172221;-0.23000
4174999;-0.23500
4177777;-0.23500
4180554;-0.25000
4183332;-0.24000
4186110;-0.23500
4188888;-0.22500
4191665;-0.23500
4194443;-0.24000
4197221;-0.25500
4199999;-0.23500
4202777;-0.23000
4205554;-0.23000
4208332;-0.21500
4211110;-0.23500
4213888;-0.23500
4216665;-0.24000
4219443;-0.22500
4222221;-0.21500
4224999;-0.21500
4227777;-0.24000
4230554;-0.24000
4233332;-0.24000
4236110;-0.24000
4238888;-0.22500
4241665;-0.24000
4244443;-0.25500
4247221;-0.27500
4249999;-0.25500
4252777;-0.26500
4255554;-0.24500
4258332;-0.25500
4261110;-0.26000
4263888;-0.27500
4266665;-0.27500
4269443;-0.26500
4272221;-0.26000
4274999;-0.26500
4277777;-0.27000
4280554;-0.28000
4283332;-0.27500
4286110;-0.26500
4288888;-0.25500
4291665;-0.25500
4294443;-0.26500
4297221;-0.28000
4299999;-0.28000
4302777;-0.28000
4305554;-0.27000
4308332;-0.27500
4311110;-0.28000
4313888;-0.28500
4316665;-0.29500
4319443;-0.29000
4322221;-0.26500
4324999;-0.26500
4327777;-0.28000
4330554;-0.28000
4333332;-0.28500
4336110;-0.27000
4338888;-0.27000
4341665;-0.26500
4344443;-0.28000
4347221;-0.29000
4349999;-0.27500
4352777;-0.27500
4355554;-0.27500
4358332;-0.26500
4361110;-0.26500
4363888;-0.28000
4366665;-0.26500
4369443;-0.27000
4372221;-0.25500
4374999;-0.25000
4377777;-0.26000
4380554;-0.27000
4383332;-0.27500
4386110;-0.27000
4388888;-0.26500
4391665;-0.25500
4394443;-0.26500
4397221;-0.26500
4399999;-0.27500
4402777;-0.26000
4405554;-0.25000
4408332;-0.25500
4411110;-0.25500
4413888;-0.26500
4416665;-0.26000
4419443;-0.25500
4422221;-0.23500
4424999;-0.24000
4427777;-0.23000
4430554;-0.23000
4433332;-0.20500
4436110;-0.19500
4438888;-0.18000
4441665;-0.17500
4444443;-0.18000
4447221;-0.18000
4449999;-0.16500
4452777;-0.14000
4455554;-0.14000
4458332;-0.14000
4461110;-0.13000
4463888;-0.14500
4466665;-0.14500
4469443;-0.13500
4472221;-0.14500
4474999;-0.14500
4477777;-0.16500
4480554;-0.17500
4483332;-0.18500
4486110;-0.16500
4488888;-0.14500
4491665;-0.14500
4494443;-0.16500
4497221;-0.19000
4499999;-0.18000
4502777;-0.17000
4505554;-0.15500
4508332;-0.14000
4511110;-0.12500
4513888;-0.14500
4516665;-0.17500
4519443;-0.18500
4522221;-0.20500
4524999;-0.21000
4527777;-0.22500
4530554;-0.25000
4533332;-0.26500
4536110;-0.26000
4538888;-0.25500
4541665;-0.26500
4544443;-0.27500
4547221;-0.28000
4549999;-0.28500
4552777;-0.27500
4555554;-0.27500
4558332;-0.28500
4561110;-0.29500
4563888;-0.29500
4566665;-0.28500
4569443;-0.27500
4572221;-0.28500
4574999;-0.28000
4577776;-0.29500
4580554;-0.30000
4583332;-0.29000
4586110;-0.28500
4588888;-0.27500
4591665;-0.27500
4594443;-0.28000
4597221;-0.28500
4599999;-0.30500
4602776;-0.32000
4605554;-0.34500
4608332;-0.39000
4611110;-0.43500
4613888;-0.44000
4616665;-0.47500
4619443;-0.48500
4622221;-0.48500
4624999;-0.42000
4627776;-0.27500
4630554;-0.13000
4633332;0.04500
4636110;0.26500
4638888;0.55500
4641665;0.87000
4644443;1.08000
4647221;1.19500
4649999;1.22000
4652776;1.09000
4655554;0.78000
4658332;0.37000
4661110;-0.02500
4663888;-0.28500
4666665;-0.41000
4669443;-0.44000
4672221;-0.42500
4674999;-0.41000
4677776;-0.37000
4680554;-0.34000
4683332;-0.30500
4686110;-0.29000
4688888;-0.29500
4691665;-0.31000
4694443;-0.32000
4697221;-0.33500
4699999;-0.33000
4702776;-0.33000
4705554;-0.32500
4708332;-0.32500
4711110;-0.32500
4713888;-0.34500
4716665;-0.34000
4719443;-0.32500
4722221;-0.32500
4724999;-0.32000
4727776;-0.33000
4730554;-0.33000
4733332;-0.33000
4736110;-0.31500
4738888;-0.31000
4741665;-0.32000
4744443;-0.31500
4747221;-0.32000
4749999;-0.33000
4752776;-0.31500
4755554;-0.31000
4758332;-0.30500
4761110;-0.31500
4763888;-0.33000
4766665;-0.33000
4769443;-0.33500
4772221;-0.32000
4774999;-0.32000
4777776;-0.32000
4780554;-0.32500
4783332;-0.32000
4786110;-0.33000
4788888;-0.31000
4791665;-0.31500
4794443;-0.33000
4797221;-0.33000
4799999;-0.32000
4802776;-0.30500
4805554;-0.30500
4808332;-0.30500
4811110;-0.31500
4813888;-0.32500
4816665;-0.32000
4819443;-0.30500
4822221;-0.31500
4824999;-0.30000
4827776;-0.30500
4830554;-0.32000
4833332;-0.31000
4836110;-0.31000
4838888;-0.29500
4841665;-0.29500
4844443;-0.31500
4847221;-0.33000
4849999;-0.32500
4852776;-0.32000
4855554;-0.31500
4858332;-0.30000
4861110;-0.31500
4863888;-0.33000
4866665;-0.32000
4869443;-0.32500
4872221;-0.31500
4874999;-0.32000
4877776;-0.32000
4880554;-0.33000
4883332;-0.33500
4886110;-0.32500
4888888;-0.31000
4891665;-0.31500
4894443;-0.31500
4897221;-0.33500
4899999;-0.33000
4902776;-0.33000
4905554;-0.31500
4908332;-0.32500
4911110;-0.32500
4913888;-0.34000
4916665;-0.33500
4919443;-0.32500
4922221;-0.32000
4924999;-0.33500
4927776;-0.33000
4930554;-0.33000
4933332;-0.33000
4936110;-0.32000
4938888;-0.32000
4941665;-0.32000
4944443;-0.32500
4947221;-0.33000
4949999;-0.33000
4952776;-0.32000
4955554;-0.30500
4958332;-0.28500
4961110;-0.29000
4963887;-0.29000
4966665;-0.27500
4969443;-0.25000
4972221;-0.23500
4974999;-0.23500
4977776;-0.24000
4980554;-0.23000
4983332;-0.22000
4986110;-0.22000
4988887;-0.19000
4991665;-0.19000
4994443;-0.20500
4997221;-0.21000
4999999;-0.20500
5002776;-0.19500
5005554;-0.18500
5008332;-0.19000
5011110;-0.20000
5013887;-0.20000
5016665;-0.20500
5019443;-0.19000
5022221;-0.18000
5024999;-0.18500
5027776;-0.19500
5030554;-0.22000
5033332;-0.21500
5036110;-0.19000
5038887;-0.19000
5041665;-0.19500
5044443;-0.20000
5047221;-0.21500
5049999;-0.22500
5052776;-0.21000
5055554;-0.20000
5058332;-0.21000
5061110;-0.22000
5063887;-0.23000
5066665;-0.22500
5069443;-0.21500
5072221;-0.21500
5074999;-0.21500
5077776;-0.22000
5080554;-0.22500
5083332;-0.23000
5086110;-0.21500
5088887;-0.20500
5091665;-0.21000
5094443;-0.22000
5097221;-0.23500
5099999;-0.23500
5102776;-0.22500
5105554;-0.21500
5108332;-0.22000
5111110;-0.23000
5113887;-0.24000
5116665;-0.24500
5119443;-0.23500
5122221;-0.23500
5124999;-0.23500
5127776;-0.23500
5130554;-0.25500
5133332;-0.25500
5136110;-0.24500
5138887;-0.23000
5141665;-0.24000
5144443;-0.25000
5147221;-0.25500
5149999;-0.24500
5152776;-0.23000
5155554;-0.23000
5158332;-0.23000
5161110;-0.24000
5163887;-0.24500
5166665;-0.25000
5169443;-0.23500
5172221;-0.23000
5174999;-0.22500
5177776;-0.23500
5180554;-0.22500
5183332;-0.24000
5186110;-0.22500
5188887;-0.21500
5191665;-0.22000
5194443;-0.22000
5197221;-0.24000
5199999;-0.23500
5202776;-0.22000
5205554;-0.22000
5208332;-0.24000
5211110;-0.24000
5213887;-0.25500
5216665;-0.26000
5219443;-0.24500
5222221;-0.23500
5224999;-0.23500
5227776;-0.25500
5230554;-0.26000
5233332;-0.26500
5236110;-0.25500
5238887;-0.23500
5241665;-0.22500
5244443;-0.23000
5247221;-0.23500
5249999;-0.23000
5252776;-0.21500
5255554;-0.22500
5258332;-0.23500
5261110;-0.23500
5263887;-0.24000
5266665;-0.23500
5269443;-0.22000
5272221;-0.19500
5274999;-0.19500
5277776;-0.19500
5280554;-0.19000
5283332;-0.19000
5286110;-0.18500
5288887;-0.17500
5291665;-0.17500
5294443;-0.17000
5297221;-0.18000
5299999;-0.16000
5302776;-0.14000
5305554;-0.12500
5308332;-0.11500
5311110;-0.12500
5313887;-0.13500
5316665;-0.13000
5319443;-0.13000
5322221;-0.13500
5324999;-0.13500
5327776;-0.15500
5330554;-0.15500
5333332;-0.14500
5336110;-0.15000
5338887;-0.15500
5341665;-0.16000
5344443;-0.14000
5347221;-0.14000
5349999;-0.12500
5352776;-0.13500
5355554;-0.16000
5358332;-0.17000
5361110;-0.19500
5363887;-0.21500
5366665;-0.23000
5369443;-0.24000
5372221;-0.24500
5374998;-0.25000
5377776;-0.26500
5380554;-0.28000
5383332;-0.27000
5386110;-0.27500
5388887;-0.27500
5391665;-0.27000
5394443;-0.28500
5397221;-0.27500
5399998;-0.28500
5402776;-0.28000
5405554;-0.27000
5408332;-0.27500
5411110;-0.29000
5413887;-0.29500
5416665;-0.30000
5419443;-0.29500
5422221;-0.28000
5424998;-0.29000
5427776;-0.29500
5430554;-0.30500
5433332;-0.31000
5436110;-0.29000
5438887;-0.30000
5441665;-0.31500
5444443;-0.37000
5447221;-0.41000
5449998;-0.42500
5452776;-0.44000
5455554;-0.48500
5458332;-0.50000
5461110;-0.45000
5463887;-0.32000
5466665;-0.15500
5469443;0.01500
5472221;0.25500
5474998;0.55000
5477776;0.81000
5480554;0.98000
5483332;1.02500
5486110;0.89500
5488887;0.57000
5491665;0.12500
5494443;-0.23000
5497221;-0.41500
5499998;-0.46000
5502776;-0.45000
5505554;-0.40500
5508332;-0.36500
5511110;-0.35000
5513887;-0.33500
5516665;-0.36000
5519443;-0.35000
5522221;-0.34500
5524998;-0.33500
5527776;-0.34000
5530554;-0.34000
5533332;-0.34000
5536110;-0.33500
5538887;-0.33500
5541665;-0.34000
5544443;-0.35500
5547221;-0.35000
5549998;-0.35000
5552776;-0.33500
5555554;-0.33000
5558332;-0.33000
5561110;-0.33500
5563887;-0.34500
5566665;-0.34500
5569443;-0.34500
5572221;-0.35000
5574998;-0.33500
5577776;-0.34500
5580554;-0.35500
5583332;-0.37500
5586110;-0.37500
5588887;-0.34500
5591665;-0.34500
5594443;-0.35000
5597221;-0.35500
5599998;-0.35500
5602776;-0.35500
5605554;-0.35000
5608332;-0.34000
5611110;-0.35500
5613887;-0.36500
5616665;-0.36000
5619443;-0.35000
5622221;-0.34000
5624998;-0.34500
5627776;-0.34000
5630554;-0.36000
5633332;-0.35500
5636110;-0.34500
5638887;-0.33000
5641665;-0.34000
5644443;-0.34500
5647221;-0.37000
5649998;-0.37000
5652776;-0.37000
5655554;-0.35500
5658332;-0.36000
5661110;-0.36000
5663887;-0.36500
5666665;-0.35500
5669443;-0.35500
5672221;-0.36000
5674998;-0.36500
5677776;-0.36500
5680554;-0.37500
5683332;-0.37500
5686110;-0.35500
5688887;-0.34500
5691665;-0.34500
5694443;-0.34500
5697221;-0.36000
5699998;-0.36500
5702776;-0.36000
5705554;-0.34500
5708332;-0.35000
5711110;-0.36000
5713887;-0.36500
5716665;-0.36500
5719443;-0.37500
5722221;-0.37000
5724998;-0.36500
5727776;-0.38000
5730554;-0.39000
5733332;-0.39000
5736110;-0.39000
5738887;-0.38000
5741665;-0.39500
5744443;-0.39500
5747221;-0.40000
5749998;-0.41000
5752776;-0.40500
5755554;-0.39500
5758332;-0.39500
5761109;-0.40500
5763887;-0.41500
5766665;-0.40500
5769443;-0.40000
5772221;-0.37500
5774998;-0.39000
5777776;-0.40500
5780554;-0.41000
5783332;-0.40000
5786109;-0.38500
5788887;-0.36500
5791665;-0.37500
5794443;-0.37000
5797221;-0.36000
5799998;-0.34000
5802776;-0.33000
5805554;-0.33000
5808332;-0.31500
5811109;-0.31000
5813887;-0.30500
5816665;-0.29500
5819443;-0.30000
5822221;-0.27000
5824998;-0.28000
5827776;-0.29000
5830554;-0.28000
5833332;-0.29000
5836109;-0.27500
5838887;-0.26000
5841665;-0.26500
5844443;-0.27500
5847221;-0.27500
5849998;-0.28500
5852776;-0.28000
5855554;-0.27500
5858332;-0.27500
5861109;-0.27500
5863887;-0.29000
5866665;-0.28500
5869443;-0.27000
5872221;-0.27500
5874998;-0.27500
5877776;-0.29000
5880554;-0.30000
5883332;-0.30500
5886109;-0.29000
5888887;-0.29500
5891665;-0.29000
5894443;-0.30000
5897221;-0.30000
5899998;-0.29500
5902776;-0.29000
5905554;-0.29000
5908332;-0.28500
5911109;-0.30500
5913887;-0.32000
5916665;-0.32000
5919443;-0.32000
5922221;-0.29000
5924998;-0.31000
5927776;-0.30500
5930554;-0.31000
5933332;-0.33000
5936109;-0.31000
5938887;-0.30500
5941665;-0.31000
5944443;-0.32000
5947221;-0.32500
5949998;-0.34000
5952776;-0.34000
5955554;-0.32000
5958332;-0.32500
5961109;-0.34500
5963887;-0.35500
5966665;-0.34500
5969443;-0.34000
5972221;-0.33500
5974998;-0.33000
5977776;-0.32500
5980554;-0.33500
5983332;-0.33500
5986109;-0.34000
5988887;-0.33500
5991665;-0.35500
5994443;-0.36000
5997221;-0.34500
5999998;-0.34500
6002776;-0.33500
6005554;-0.33500
6008332;-0.34500
6011109;-0.35500
6013887;-0.36500
6016665;-0.37000
6019443;-0.36500
6022221;-0.36000
6024998;-0.35500
6027776;-0.36000
6030554;-0.36000
6033332;-0.37500
6036109;-0.36000
6038887;-0.34000
6041665;-0.34000
6044443;-0.35000
6047221;-0.35000
6049998;-0.34500
6052776;-0.33500
6055554;-0.31500
6058332;-0.34000
6061109;-0.35000
6063887;-0.36000
6066665;-0.35500
6069443;-0.33000
6072221;-0.32500
6074998;-0.33000
6077776;-0.35500
6080554;-0.37000
6083332;-0.37000
6086109;-0.36000
6088887;-0.33000
6091665;-0.33000
6094443;-0.34000
6097221;-0.34000
6099998;-0.31500
6102776;-0.29500
6105554;-0.28500
6108332;-0.30500
6111109;-0.31000
6113887;-0.31000
6116665;-0.31000
6119443;-0.28500
6122221;-0.25000
6124998;-0.24000
6127776;-0.24500
6130554;-0.24000
6133332;-0.24500
6136109;-0.25000
6138887;-0.24500
6141665;-0.25500
6144443;-0.27000
6147221;-0.28000
6149998;-0.29000
6152776;-0.27000
6155554;-0.26500
6158332;-0.28000
6161109;-0.30500
6163887;-0.31500
6166665;-0.30000
6169443;-0.28000
6172220;-0.25500
6174998;-0.27500
6177776;-0.31000
6180554;-0.34500
6183332;-0.35500
6186109;-0.38000
6188887;-0.37000
6191665;-0.37000
6194443;-0.38000
6197220;-0.38500
6199998;-0.39000
6202776;-0.38000
6205554;-0.37000
6208332;-0.38000
6211109;-0.38000
6213887;-0.39500
6216665;-0.39000
6219443;-0.39000
6222220;-0.38500
6224998;-0.38000
6227776;-0.38000
6230554;-0.39500
6233332;-0.40000
6236109;-0.40000
6238887;-0.41000
6241665;-0.41000
6244443;-0.42000
6247220;-0.42000
6249998;-0.41500
6252776;-0.40500
6255554;-0.40500
6258332;-0.41500
6261109;-0.43000
6263887;-0.43500
6266665;-0.46000
6269443;-0.48000
6272220;-0.50500
6274998;-0.53500
6277776;-0.57000
6280554;-0.61500
6283332;-0.58000
6286109;-0.48500
6288887;-0.32500
6291665;-0.15500
6294443;0.02500
6297220;0.24500
6299998;0.50500
6302776;0.76000
6305554;0.93500
6308332;1.00000
6311109;0.91000
6313887;0.63500
6316665;0.20000
6319443;-0.19000
6322220;-0.41500
6324998;-0.52000
6327776;-0.56000
6330554;-0.55500
6333332;-0.53500
6336109;-0.49500
6338887;-0.45000
6341665;-0.43500
6344443;-0.44500
6347220;-0.47000
6349998;-0.48000
6352776;-0.45000
6355554;-0.43000
6358332;-0.44500
6361109;-0.45500
6363887;-0.46500
6366665;-0.46000
6369443;-0.44000
6372220;-0.44500
6374998;-0.45500
6377776;-0.46000
6380554;-0.46000
6383332;-0.46000
6386109;-0.45500
6388887;-0.44500
6391665;-0.45500
6394443;-0.46500
6397220;-0.46500
6399998;-0.47000
6402776;-0.45500
6405554;-0.44500
6408332;-0.46000
6411109;-0.46000
6413887;-0.46000
6416665;-0.47000
6419443;-0.46000
6422220;-0.44500
6424998;-0.44500
6427776;-0.45000
6430554;-0.45500
6433332;-0.46000
6436109;-0.45500
6438887;-0.44500
6441665;-0.45500
6444443;-0.46500
6447220;-0.46000
6449998;-0.46500
6452776;-0.45500
6455554;-0.44500
6458332;-0.45500
6461109;-0.45500
6463887;-0.45500
6466665;-0.46000
6469443;-0.45500
6472220;-0.45000
6474998;-0.45500
6477776;-0.46500
6480554;-0.45500
6483332;-0.47000
6486109;-0.46000
6488887;-0.44500
6491665;-0.45000
6494443;-0.45500
6497220;-0.46000
6499998;-0.45500
6502776;-0.44500
6505554;-0.43000
6508332;-0.44000
6511109;-0.45000
6513887;-0.46000
6516665;-0.46500
6519443;-0.45000
6522220;-0.43000
6524998;-0.44000
6527776;-0.46000
6530554;-0.46000
6533332;-0.46000
6536109;-0.45500
6538887;-0.44000
6541665;-0.45000
6544443;-0.47000
6547220;-0.47000
6549998;-0.48500
6552776;-0.47500
6555554;-0.47500
6558331;-0.48500
6561109;-0.48500
6563887;-0.50000
6566665;-0.52000
6569443;-0.51500
6572220;-0.50000
6574998;-0.51000
6577776;-0.51000
6580554;-0.52000
6583331;-0.52000
6586109;-0.52000
6588887;-0.50500
6591665;-0.51000
6594443;-0.51500
6597220;-0.53500
6599998;-0.52000
6602776;-0.51000
6605554;-0.49500
6608331;-0.47500
6611109;-0.47000
6613887;-0.47000
6616665;-0.45500
6619443;-0.43000
6622220;-0.42500
6624998;-0.41000
6627776;-0.40500
6630554;-0.40000
6633331;-0.39500
6636109;-0.38500
6638887;-0.37000
6641665;-0.35000
6644443;-0.36000
6647220;-0.35000
6649998;-0.34500
6652776;-0.33000
6655554;-0.33000
6658331;-0.32000
6661109;-0.32000
6663887;-0.33000
6666665;-0.33500
6669443;-0.33000
6672220;-0.31000
6674998;-0.31500
6677776;-0.32500
6680554;-0.32000
6683331;-0.33000
6686109;-0.31000
6688887;-0.30500
6691665;-0.30000
6694443;-0.31000
6697220;-0.32000
6699998;-0.32000
6702776;-0.30500
6705554;-0.30000
6708331;-0.30500
6711109;-0.31000
6713887;-0.32000
6716665;-0.33000
6719443;-0.32000
6722220;-0.31500
6724998;-0.33000
6727776;-0.33000
6730554;-0.33000
6733331;-0.33500
6736109;-0.33500
6738887;-0.32000
6741665;-0.33000
6744443;-0.33500
6747220;-0.34500
6749998;-0.34500
6752776;-0.33500
6755554;-0.32500
6758331;-0.31500
6761109;-0.33500
6763887;-0.32000
6766665;-0.33500
6769443;-0.33500
6772220;-0.32000
6774998;-0.33000
6777776;-0.32500
6780554;-0.33500
6783331;-0.34000
6786109;-0.34000
6788887;-0.33500
6791665;-0.34500
6794443;-0.34000
6797220;-0.35000
6799998;-0.35000
6802776;-0.34000
6805554;-0.34000
6808331;-0.33500
6811109;-0.35000
6813887;-0.33500
6816665;-0.34500
6819443;-0.34500
6822220;-0.32500
6824998;-0.33000
6827776;-0.33000
6830554;-0.33500
6833331;-0.34500
6836109;-0.33500
6838887;-0.32000
6841665;-0.31500
6844443;-0.31000
6847220;-0.31500
6849998;-0.32500
6852776;-0.32000
6855554;-0.32000
6858331;-0.31000
6861109;-0.31500
6863887;-0.33000
6866665;-0.33000
6869443;-0.33000
6872220;-0.31500
6874998;-0.32000
6877776;-0.32500
6880554;-0.34000
6883331;-0.33500
6886109;-0.33500
6888887;-0.32500
6891665;-0.32500
6894443;-0.32500
6897220;-0.33500
6899998;-0.33500
6902776;-0.33500
6905554;-0.31500
6908331;-0.31500
6911109;-0.31000
6913887;-0.32500
6916665;-0.32500
6919443;-0.30500
6922220;-0.30000
6924998;-0.30000
6927776;-0.28500
6930554;-0.29000
6933331;-0.28000
6936109;-0.26000
6938887;-0.24500
6941665;-0.25500
6944442;-0.26000
6947220;-0.26500
6949998;-0.25500
6952776;-0.22500
6955554;-0.21000
6958331;-0.21000
6961109;-0.20500
6963887;-0.22000
6966665;-0.22000
6969442;-0.21500
6972220;-0.21500
6974998;-0.22000
6977776;-0.22500
6980554;-0.23500
6983331;-0.24500
6986109;-0.23500
6988887;-0.22500
6991665;-0.21000
6994442;-0.22500
6997220;-0.24500
6999998;-0.23500
7002776;-0.20500
7005554;-0.17500
7008331;-0.19500
7011109;-0.22500
7013887;-0.27500
7016665;-0.29500
7019442;-0.29000
7022220;-0.29500
7024998;-0.31500
7027776;-0.32500
7030554;-0.34000
7033331;-0.35000
7036109;-0.33500
7038887;-0.32500
7041665;-0.32500
7044442;-0.33500
7047220;-0.35000
7049998;-0.35000
7052776;-0.34000
7055554;-0.33500
7058331;-0.33500
7061109;-0.34000
7063887;-0.35000
7066665;-0.36500
7069442;-0.34500
7072220;-0.34000
7074998;-0.35500
7077776;-0.35000
7080554;-0.35000
7083331;-0.36500
7086109;-0.35500
7088887;-0.36500
7091665;-0.40000
7094442;-0.45000
7097220;-0.48000
7099998;-0.51500
7102776;-0.50500
7105554;-0.54000
7108331;-0.58000
7111109;-0.61000
7113887;-0.57500
7116665;-0.50500
7119442;-0.38000
7122220;-0.22500
7124998;-0.05500
7127776;0.13500
7130554;0.39000
7133331;0.69000
7136109;0.96000
7138887;1.11500
7141665;1.13000
7144442;0.95500
7147220;0.52500
7149998;0.00500
7152776;-0.36000
7155554;-0.48500
7158331;-0.45000
7161109;-0.38500
7163887;-0.36500
7166665;-0.35500
7169442;-0.36000
7172220;-0.37000
7174998;-0.38000
7177776;-0.36500
7180554;-0.39000
7183331;-0.40000
7186109;-0.38500
7188887;-0.38500
7191665;-0.39000
7194442;-0.39000
7197220;-0.39000
7199998;-0.40000
7202776;-0.38500
7205554;-0.37000
7208331;-0.37500
7211109;-0.38500
7213887;-0.38500
7216665;-0.39000
7219442;-0.38500
7222220;-0.37500
7224998;-0.38000
7227776;-0.39500
7230554;-0.40000
7233331;-0.40500
7236109;-0.40500
7238887;-0.39000
7241665;-0.39500
7244442;-0.39500
7247220;-0.39500
7249998;-0.41000
7252776;-0.40000
7255554;-0.39000
7258331;-0.39000
7261109;-0.39500
7263887;-0.40500
7266665;-0.40500
7269442;-0.39000
7272220;-0.36500
7274998;-0.38000
7277776;-0.39000
7280554;-0.40000
7283331;-0.40000
7286109;-0.38500
7288887;-0.38500
7291665;-0.37500
7294442;-0.39000
7297220;-0.39500
7299998;-0.41000
7302776;-0.39500
7305554;-0.39000
7308331;-0.38500
7311109;-0.39500
7313887;-0.40000
7316665;-0.40500
7319442;-0.39500
7322220;-0.39000
7324998;-0.38000
7327776;-0.39000
7330554;-0.39000
7333331;-0.39500
7336109;-0.40000
7338887;-0.38000
7341665;-0.40000
7344442;-0.39500
7347220;-0.40500
7349998;-0.39500
7352776;-0.40000
7355553;-0.37500
7358331;-0.38000
7361109;-0.39000
7363887;-0.40000
7366665;-0.41000
7369442;-0.39500
7372220;-0.39500
7374998;-0.39500
7377776;-0.41000
7380553;-0.41000
7383331;-0.42000
7386109;-0.42000
7388887;-0.41500
7391665;-0.42000
7394442;-0.41500
7397220;-0.42000
7399998;-0.42500
7402776;-0.40500
7405553;-0.39500
7408331;-0.39500
7411109;-0.41000
7413887;-0.40000
7416665;-0.39500
7419442;-0.37000
7422220;-0.36500
7424998;-0.36000
7427776;-0.35500
7430553;-0.34000
7433331;-0.33500
7436109;-0.31500
7438887;-0.29000
7441665;-0.28500
7444442;-0.28500
7447220;-0.28000
7449998;-0.28000
7452776;-0.27000
7455553;-0.25500
7458331;-0.25000
7461109;-0.26000
7463887;-0.27500
7466665;-0.28000
7469442;-0.27000
7472220;-0.25500
7474998;-0.26000
7477776;-0.27500
7480553;-0.27500
7483331;-0.27000
7486109;-0.26500
7488887;-0.26000
7491665;-0.26500
7494442;-0.27000
7497220;-0.27000
7499998;-0.28500
7502776;-0.27000
7505553;-0.26500
7508331;-0.26500
7511109;-0.27000
7513887;-0.28000
7516665;-0.28000
7519442;-0.28500
7522220;-0.26500
7524998;-0.27000
7527776;-0.27000
7530553;-0.27500
7533331;-0.28000
7536109;-0.27000
7538887;-0.28000
7541665;-0.26500
7544442;-0.29000
7547220;-0.28500
7549998;-0.28500
7552776;-0.28000
7555553;-0.27500
7558331;-0.28000
7561109;-0.28500
7563887;-0.30000
7566665;-0.30500
7569442;-0.29000
7572220;-0.28500
7574998;-0.29000
7577776;-0.30500
7580553;-0.30500
7583331;-0.31000
7586109;-0.30500
7588887;-0.29500
7591665;-0.30000
7594442;-0.31000
7597220;-0.31500
7599998;-0.31000
7602776;-0.30500
7605553;-0.29500
7608331;-0.30500
7611109;-0.30000
7613887;-0.31500
7616665;-0.32500
7619442;-0.32500
7622220;-0.32000
7624998;-0.31500
7627776;-0.32000
7630553;-0.31500
7633331;-0.33500
7636109;-0.31500
7638887;-0.30000
7641665;-0.31500
7644442;-0.33000
7647220;-0.31500
7649998;-0.32500
7652776;-0.31500
7655553;-0.30000
7658331;-0.30500
7661109;-0.31000
7663887;-0.32000
7666665;-0.33000
7669442;-0.32000
7672220;-0.31000
7674998;-0.30000
7677776;-0.31000
7680553;-0.31500
7683331;-0.30000
7686109;-0.30000
7688887;-0.30000
7691665;-0.28500
7694442;-0.29500
7697220;-0.31500
7699998;-0.32000
7702776;-0.31500
7705553;-0.29500
7708331;-0.30000
7711109;-0.30000
7713887;-0.30500
7716665;-0.29000
7719442;-0.28000
7722220;-0.25500
7724998;-0.23500
7727776;-0.24500
7730553;-0.24000
7733331;-0.23500
7736109;-0.21500
7738887;-0.20500
7741664;-0.21000
7744442;-0.20000
7747220;-0.19500
7749998;-0.19500
7752776;-0.17500
7755553;-0.16500
7758331;-0.16000
7761109;-0.19000
7763887;-0.19500
7766664;-0.21500
7769442;-0.21500
7772220;-0.20000
7774998;-0.19500
7777776;-0.20500
7780553;-0.21000
7783331;-0.23500
7786109;-0.23000
7788887;-0.21500
7791664;-0.21500
7794442;-0.21000
7797220;-0.18500
7799998;-0.18500
7802776;-0.19000
7805553;-0.21500
7808331;-0.25000
7811109;-0.25500
7813887;-0.27500
7816664;-0.29500
7819442;-0.30500
7822220;-0.30000
7824998;-0.30000
7827776;-0.31500
7830553;-0.31500
7833331;-0.31000
7836109;-0.30500
7838887;-0.29000
7841664;-0.30500
7844442;-0.30500
7847220;-0.31000
7849998;-0.32000
7852776;-0.31500
7855553;-0.31000
7858331;-0.32000
7861109;-0.32000
7863887;-0.33500
7866664;-0.33500
7869442;-0.33500
7872220;-0.32500
7874998;-0.33000
7877776;-0.32500
7880553;-0.34500
7883331;-0.38000
7886109;-0.40000
7888887;-0.44000
7891664;-0.47500
7894442;-0.50000
7897220;-0.54500
7899998;-0.58500
7902776;-0.54500
7905553;-0.45000
7908331;-0.34000
7911109;-0.21000
7913887;-0.05000
7916664;0.12000
7919442;0.37000
7922220;0.66500
7924998;0.92000
7927776;1.09500
7930553;1.15000
7933331;1.04500
7936109;0.72500
7938887;0.25500
7941664;-0.18000
7944442;-0.42000
7947220;-0.44000
7949998;-0.38500
7952776;-0.32500
7955553;-0.30000
7958331;-0.32000
7961109;-0.33500
7963887;-0.34500
7966664;-0.34500
7969442;-0.34000
7972220;-0.33500
7974998;-0.35000
7977776;-0.35500
7980553;-0.35500
7983331;-0.36000
7986109;-0.35000
7988887;-0.34500
7991664;-0.33500
7994442;-0.33500
7997220;-0.36000
7999998;-0.36500
8002776;-0.35000
8005553;-0.34500
8008331;-0.35000
8011109;-0.35500
8013887;-0.36000
8016664;-0.36500
8019442;-0.36000
8022220;-0.34500
8024998;-0.34000
8027776;-0.35500
8030553;-0.36500
8033331;-0.35500
8036109;-0.35000
8038887;-0.34500
8041664;-0.35500
8044442;-0.36000
8047220;-0.36500
8049998;-0.36500
8052776;-0.36000
8055553;-0.34000
8058331;-0.35000
8061109;-0.35500
8063887;-0.36000
8066664;-0.36000
8069442;-0.34500
8072220;-0.34000
8074998;-0.34500
8077776;-0.34500
8080553;-0.35500
8083331;-0.36500
8086109;-0.35000
8088887;-0.34500
8091664;-0.34500
8094442;-0.35000
8097220;-0.36000
8099998;-0.37000
8102776;-0.35000
8105553;-0.34000
8108331;-0.35000
8111109;-0.35000
8113887;-0.36000
8116664;-0.36500
8119442;-0.35000
8122220;-0.34000
8124998;-0.34500
8127776;-0.35500
8130553;-0.36500
8133331;-0.36000
8136109;-0.36500
8138887;-0.35000
8141664;-0.35500
8144442;-0.35500
8147220;-0.35500
8149998;-0.37000
8152775;-0.35000
8155553;-0.35500
8158331;-0.36500
8161109;-0.35500
8163887;-0.37500
8166664;-0.38000
8169442;-0.38000
8172220;-0.37500
8174998;-0.37500
8177775;-0.39000
8180553;-0.38500
8183331;-0.39000
8186109;-0.37500
8188887;-0.37000
8191664;-0.37000
8194442;-0.37500
8197220;-0.38000
8199998;-0.38000
8202775;-0.36000
8205553;-0.34500
8208331;-0.33500
8211109;-0.33000
8213887;-0.32500
8216664;-0.33000
8219442;-0.30500
8222220;-0.28000
8224998;-0.28000
8227775;-0.27500
8230553;-0.27000
8233331;-0.26500
8236109;-0.24500
8238887;-0.22500
8241664;-0.22000
8244442;-0.24500
8247220;-0.24500
8249998;-0.25000
8252775;-0.23500
8255553;-0.22500
8258331;-0.23500
8261109;-0.23000
8263887;-0.23500
8266664;-0.23000
8269442;-0.23000
8272220;-0.22000
8274998;-0.23000
8277775;-0.23000
8280553;-0.24500
8283331;-0.24000
8286109;-0.23500
8288887;-0.22000
8291664;-0.23000
8294442;-0.24000
8297220;-0.24000
8299998;-0.24500
8302775;-0.24000
8305553;-0.23000
8308331;-0.23500
8311109;-0.23500
8313887;-0.23500
8316664;-0.24500
8319442;-0.24000
8322220;-0.23000
8324998;-0.23000
8327775;-0.23500
8330553;-0.25500
8333331;-0.25500
8336109;-0.25000
8338887;-0.24500
8341664;-0.26000
8344442;-0.26500
8347220;-0.26500
8349998;-0.26500
8352775;-0.26000
8355553;-0.26000
8358331;-0.26000
8361109;-0.26000
8363887;-0.27500
8366664;-0.26500
8369442;-0.27000
8372220;-0.25000
8374998;-0.26000
8377775;-0.26500
8380553;-0.27500
8383331;-0.28500
8386109;-0.27500
8388887;-0.26500
8391664;-0.26000
8394442;-0.28000
8397220;-0.28000
8399998;-0.28500
8402775;-0.29000
8405553;-0.27500
8408331;-0.27500
8411109;-0.28500
8413887;-0.30000
8416664;-0.29500
8419442;-0.29000
8422220;-0.27500
8424998;-0.28000
8427775;-0.28000
8430553;-0.29500
8433331;-0.29500
8436109;-0.27500
8438887;-0.26500
8441664;-0.26500
8444442;-0.27000
8447220;-0.28500
8449998;-0.27500
8452775;-0.26500
8455553;-0.27000
8458331;-0.27000
8461109;-0.28500
8463887;-0.28500
8466664;-0.29000
8469442;-0.27000
8472220;-0.26500
8474998;-0.26000
8477775;-0.26000
8480553;-0.26500
8483331;-0.28000
8486109;-0.25500
8488887;-0.26000
8491664;-0.25500
8494442;-0.26500
8497220;-0.27000
8499998;-0.27000
8502775;-0.26000
8505553;-0.26000
8508331;-0.24500
8511109;-0.25500
8513887;-0.27500
8516664;-0.27500
8519442;-0.26500
8522220;-0.24000
8524998;-0.23000
8527775;-0.23000
8530553;-0.21000
8533331;-0.20000
8536109;-0.18500
8538886;-0.18500
8541664;-0.18500
8544442;-0.18500
8547220;-0.18500
8549998;-0.19000
8552775;-0.16000
8555553;-0.15500
8558331;-0.16500
8561109;-0.15500
8563886;-0.16000
8566664;-0.17500
8569442;-0.17000
8572220;-0.17000
8574998;-0.18000
8577775;-0.17000
8580553;-0.19000
8583331;-0.18000
8586109;-0.18000
8588886;-0.17500
8591664;-0.16500
8594442;-0.15000
8597220;-0.14500
8599998;-0.15500
8602775;-0.18000
8605553;-0.20000
8608331;-0.22000
8611109;-0.22500
8613886;-0.24500
8616664;-0.27500
8619442;-0.27000
8622220;-0.26500
8624998;-0.27500
8627775;-0.29000
8630553;-0.29500
8633331;-0.29500
8636109;-0.29000
8638886;-0.27500
8641664;-0.27500
8644442;-0.28000
8647220;-0.30000
8649998;-0.30000
8652775;-0.29500
8655553;-0.28000
8658331;-0.29000
8661109;-0.29500
8663886;-0.29500
8666664;-0.30000
8669442;-0.29000
8672220;-0.29000
8674998;-0.28000
8677775;-0.28000
8680553;-0.29500
8683331;-0.29000
8686109;-0.30000
8688886;-0.29500
8691664;-0.31000
8694442;-0.35500
8697220;-0.41500
8699998;-0.45000
8702775;-0.48000
8705553;-0.51000
8708331;-0.49500
8711109;-0.39000
8713886;-0.24500
8716664;-0.05000
8719442;0.16500
8722220;0.45000
8724998;0.75500
8727775;0.96000
8730553;1.03500
8733331;0.94500
8736109;0.62000
8738886;0.17500
8741664;-0.20000
8744442;-0.41500
8747220;-0.43500
8749998;-0.39000
8752775;-0.32500
8755553;-0.30500
8758331;-0.31500
8761109;-0.34000
8763886;-0.34000
8766664;-0.33500
8769442;-0.34000
8772220;-0.32500
8774998;-0.34000
8777775;-0.34500
8780553;-0.35500
8783331;-0.36000
8786109;-0.34500
8788886;-0.34000
8791664;-0.34000
8794442;-0.34500
8797220;-0.35500
8799998;-0.35500
8802775;-0.33500
8805553;-0.33500
8808331;-0.34000
8811109;-0.34500
8813886;-0.35000
8816664;-0.35000
8819442;-0.33500
8822220;-0.33500
8824998;-0.34500
8827775;-0.33500
8830553;-0.34500
8833331;-0.35000
8836109;-0.34500
8838886;-0.34000
8841664;-0.34000
8844442;-0.35000
8847220;-0.34500
8849998;-0.34500
8852775;-0.34000
8855553;-0.34500
8858331;-0.34000
8861109;-0.35000
8863886;-0.35500
8866664;-0.36000
8869442;-0.35500
8872220;-0.34000
8874998;-0.34500
8877775;-0.34500
8880553;-0.35000
8883331;-0.35500
8886109;-0.34500
8888886;-0.35000
8891664;-0.35500
8894442;-0.36500
8897220;-0.36000
8899998;-0.35500
8902775;-0.34500
8905553;-0.34500
8908331;-0.34000
8911109;-0.35000
8913886;-0.36500
8916664;-0.36500
8919442;-0.36000
8922220;-0.36000
8924998;-0.37000
8927775;-0.37500
8930553;-0.38500
8933331;-0.38000
8936109;-0.36500
8938886;-0.36000
8941664;-0.35500
8944442;-0.37000
8947220;-0.37500
8949997;-0.39000
8952775;-0.38500
8955553;-0.37500
8958331;-0.37000
8961109;-0.36500
8963886;-0.39000
8966664;-0.40000
8969442;-0.40000
8972220;-0.39000
8974997;-0.37500
8977775;-0.39000
8980553;-0.40000
8983331;-0.40500
8986109;-0.38500
8988886;-0.39000
8991664;-0.39500
8994442;-0.40000
8997220;-0.40000
8999997;-0.40000
9002775;-0.38000
9005553;-0.36500
9008331;-0.35000
9011109;-0.36000
9013886;-0.34500
9016664;-0.35000
9019442;-0.33000
9022220;-0.32000
9024997;-0.31000
9027775;-0.32500
9030553;-0.32000
9033331;-0.31000
9036109;-0.29500
9038886;-0.29000
9041664;-0.29500
9044442;-0.29500
9047220;-0.29500
9049997;-0.29000
9052775;-0.27500
9055553;-0.26000
9058331;-0.26500
9061109;-0.27500
9063886;-0.28000
9066664;-0.29000
9069442;-0.28000
9072220;-0.25500
9074997;-0.26000
9077775;-0.27000
9080553;-0.28000
9083331;-0.29000
9086109;-0.28000
9088886;-0.29000
9091664;-0.28500
9094442;-0.30000
9097220;-0.29500
9099997;-0.29500
9102775;-0.28500
9105553;-0.29000
9108331;-0.29500
9111109;-0.30500
9113886;-0.31500
9116664;-0.32000
9119442;-0.29000
9122220;-0.30000
9124997;-0.29000
9127775;-0.30000
9130553;-0.30000
9133331;-0.31000
9136109;-0.30500
9138886;-0.29000
9141664;-0.30500
9144442;-0.30500
9147220;-0.31500
9149997;-0.32500
9152775;-0.32500
9155553;-0.32500
9158331;-0.32500
9161109;-0.34000
9163886;-0.35000
9166664;-0.34000
9169442;-0.32000
9172220;-0.32000
9174997;-0.33500
9177775;-0.34500
9180553;-0.35000
9183331;-0.36000
9186109;-0.34500
9188886;-0.33500
9191664;-0.34000
9194442;-0.33500
9197220;-0.34500
9199997;-0.34500
9202775;-0.33000
9205553;-0.33500
9208331;-0.32500
9211109;-0.34000
9213886;-0.36000
9216664;-0.35000
9219442;-0.35000
9222220;-0.33500
9224997;-0.32000
9227775;-0.32000
9230553;-0.34000
9233331;-0.34000
9236109;-0.32500
9238886;-0.33000
9241664;-0.33000
9244442;-0.34500
9247220;-0.36000
9249997;-0.35500
9252775;-0.34000
9255553;-0.33000
9258331;-0.33500
9261109;-0.34500
9263886;-0.35000
9266664;-0.35000
9269442;-0.34000
9272220;-0.31500
9274997;-0.33500
9277775;-0.34500
9280553;-0.34500
9283331;-0.35000
9286109;-0.34500
9288886;-0.32000
9291664;-0.33000
9294442;-0.32000
9297220;-0.31500
9299997;-0.29500
9302775;-0.28000
9305553;-0.27500
9308331;-0.28500
9311109;-0.28500
9313886;-0.27000
9316664;-0.26500
9319442;-0.24500
9322220;-0.22500
9324997;-0.22500
9327775;-0.24500
9330553;-0.23500
9333331;-0.24000
9336108;-0.24500
9338886;-0.24000
9341664;-0.24000
9344442;-0.25500
9347220;-0.27000
9349997;-0.25000
9352775;-0.24500
9355553;-0.26000
9358331;-0.27500
9361108;-0.29500
9363886;-0.29500
9366664;-0.27000
9369442;-0.23000
9372220;-0.22500
9374997;-0.22500
9377775;-0.25000
9380553;-0.28000
9383331;-0.28000
9386108;-0.29500
9388886;-0.31000
9391664;-0.34500
9394442;-0.36500
9397220;-0.38500
9399997;-0.39500
9402775;-0.37000
9405553;-0.36000
9408331;-0.36000
9411108;-0.39500
9413886;-0.39500
9416664;-0.42000
9419442;-0.40500
9422220;-0.38500
9424997;-0.37000
9427775;-0.37500
9430553;-0.38500
9433331;-0.38000
9436108;-0.39500
9438886;-0.39000
9441664;-0.39500
9444442;-0.40000
9447220;-0.41000
9449997;-0.40500
9452775;-0.39500
9455553;-0.38000
9458331;-0.38500
9461108;-0.40000
9463886;-0.44000
9466664;-0.48500
9469442;-0.50500
9472220;-0.51500
9474997;-0.56000
9477775;-0.60000
9480553;-0.60000
9483331;-0.51000
9486108;-0.35000
9488886;-0.18000
9491664;0.00500
9494442;0.22000
9497220;0.50000
9499997;0.75500
9502775;0.93000
9505553;0.94000
9508331;0.71500
9511108;0.30500
9513886;-0.14500
9516664;-0.43500
9519442;-0.56000
9522220;-0.54000
9524997;-0.49000
9527775;-0.45500
9530553;-0.44000
9533331;-0.44000
9536108;-0.42000
9538886;-0.41000
9541664;-0.40500
9544442;-0.41000
9547220;-0.40500
9549997;-0.41000
9552775;-0.41000
9555553;-0.43000
9558331;-0.42500
9561108;-0.42500
9563886;-0.43500
9566664;-0.44000
9569442;-0.44500
9572220;-0.43500
9574997;-0.43500
9577775;-0.42500
9580553;-0.43500
9583331;-0.45500
9586108;-0.44500
9588886;-0.44500
9591664;-0.45000
9594442;-0.45000
9597220;-0.44500
9599997;-0.44000
9602775;-0.43000
9605553;-0.42000
9608331;-0.42000
9611108;-0.43500
9613886;-0.44500
9616664;-0.44500
9619442;-0.44000
9622220;-0.44500
9624997;-0.45000
9627775;-0.45000
9630553;-0.45000
9633331;-0.44500
9636108;-0.42500
9638886;-0.43500
9641664;-0.45000
9644442;-0.45500
9647220;-0.46000
9649997;-0.45500
9652775;-0.46000
9655553;-0.45000
9658331;-0.44000
9661108;-0.44000
9663886;-0.44500
9666664;-0.46500
9669442;-0.46000
9672220;-0.46000
9674997;-0.45500
9677775;-0.45000
9680553;-0.47000
9683331;-0.46500
9686108;-0.46500
9688886;-0.44000
9691664;-0.44000
9694442;-0.43000
9697220;-0.44000
9699997;-0.44500
9702775;-0.44500
9705553;-0.44500
9708331;-0.43500
9711108;-0.44500
9713886;-0.46500
9716664;-0.48000
9719442;-0.47500
9722220;-0.46500
9724997;-0.46500
9727775;-0.46000
9730553;-0.48000
9733331;-0.48000
9736108;-0.46500
9738886;-0.47500
9741664;-0.48000
9744442;-0.50000
9747219;-0.52500
9749997;-0.53500
9752775;-0.51500
9755553;-0.50000
9758331;-0.50500
9761108;-0.52000
9763886;-0.52000
9766664;-0.53500
9769442;-0.53500
9772219;-0.52000
9774997;-0.51500
9777775;-0.51500
9780553;-0.50500
9783331;-0.50000
9786108;-0.47500
9788886;-0.45500
9791664;-0.45000
9794442;-0.44500
9797219;-0.44500
9799997;-0.44500
9802775;-0.43000
9805553;-0.40500
9808331;-0.40000
9811108;-0.38500
9813886;-0.38000
9816664;-0.38000
9819442;-0.36000
9822219;-0.35000
9824997;-0.34000
9827775;-0.34000
9830553;-0.35000
9833331;-0.35000
9836108;-0.34500
9838886;-0.33000
9841664;-0.33500
9844442;-0.33000
9847219;-0.34000
9849997;-0.34000
9852775;-0.33000
9855553;-0.31500
9858331;-0.32000
9861108;-0.32500
9863886;-0.34500
9866664;-0.34500
9869442;-0.31000
9872219;-0.30500
9874997;-0.31500
9877775;-0.32500
9880553;-0.33000
9883331;-0.34500
9886108;-0.32500
9888886;-0.33000
9891664;-0.32000
9894442;-0.33500
9897219;-0.35000
9899997;-0.34500
9902775;-0.34000
9905553;-0.33000
9908331;-0.33000
9911108;-0.33500
9913886;-0.34500
9916664;-0.34500
9919442;-0.34500
9922219;-0.33500
9924997;-0.33000
9927775;-0.33500
9930553;-0.33500
9933331;-0.34500
9936108;-0.33500
9938886;-0.32500
9941664;-0.32000
9944442;-0.34500
9947219;-0.34500
9949997;-0.34500
9952775;-0.34000
9955553;-0.34000
9958331;-0.34000
9961108;-0.34000
9963886;-0.35000
9966664;-0.37000
9969442;-0.36000
9972219;-0.36000
9974997;-0.34500
9977775;-0.35500
9980553;-0.35500
9983331;-0.35500
9986108;-0.35000
9988886;-0.34000
9991664;-0.34000
9994442;-0.34500
9997219;-0.35000
9999997;-0.35500
10002775;-0.33500
10005553;-0.32500
10008331;-0.34000
10011108;-0.34500
10013886;-0.35000
10016664;-0.33000
10019442;-0.33000
10022219;-0.32000
10024997;-0.31500
10027775;-0.33000
10030553;-0.34500
10033331;-0.34000
10036108;-0.32000
10038886;-0.33000
10041664;-0.32000
10044442;-0.33500
10047219;-0.34500
10049997;-0.34500
10052775;-0.33000
10055553;-0.31500
10058331;-0.32500
10061108;-0.33000
10063886;-0.34500
10066664;-0.35000
10069442;-0.34000
10072219;-0.33000
10074997;-0.31500
10077775;-0.33000
10080553;-0.33000
10083331;-0.32000
10086108;-0.30500
10088886;-0.29000
10091664;-0.26000
10094442;-0.27000
10097219;-0.27500
10099997;-0.26500
10102775;-0.25000
10105553;-0.24000
10108331;-0.24000
10111108;-0.24500
10113886;-0.23000
10116664;-0.22500
10119442;-0.20500
10122219;-0.19000
10124997;-0.19500
10127775;-0.21000
10130553;-0.22000
10133330;-0.22000
10136108;-0.21500
10138886;-0.21000
10141664;-0.21500
10144442;-0.21500
10147219;-0.22500
10149997;-0.23500
10152775;-0.23500
10155553;-0.22000
10158330;-0.20500
10161108;-0.19000
10163886;-0.19000
10166664;-0.22500
10169442;-0.25000
10172219;-0.26500
10174997;-0.27500
10177775;-0.29500
10180553;-0.31500
10183330;-0.32500
10186108;-0.32000
10188886;-0.32000
10191664;-0.32500
10194442;-0.32000
10197219;-0.34000
10199997;-0.34000
10202775;-0.33500
10205553;-0.32500
10208330;-0.32500
10211108;-0.33000
10213886;-0.34000
10216664;-0.35500
10219442;-0.34000
10222219;-0.33000
10224997;-0.33000
10227775;-0.33500
10230553;-0.34500
10233330;-0.35000
10236108;-0.34000
10238886;-0.33000
10241664;-0.33000
10244442;-0.33000
10247219;-0.34000
10249997;-0.33000
10252775;-0.33000
10255553;-0.33000
10258330;-0.33000
10261108;-0.34500
10263886;-0.37500
10266664;-0.42500
10269442;-0.45000
10272219;-0.46000
10274997;-0.49000
10277775;-0.52500
10280553;-0.53000
10283330;-0.45000
10286108;-0.29500
10288886;-0.12500
10291664;0.06500
10294442;0.27500
10297219;0.54500
10299997;0.81500
10302775;1.01500
10305553;1.10500
10308330;1.03500
10311108;0.75500
10313886;0.33000
10316664;-0.11000
10319442;-0.39500
10322219;-0.46000
10324997;-0.43000
10327775;-0.38000
10330553;-0.35500
10333330;-0.35500
10336108;-0.35500
10338886;-0.35000
10341664;-0.34000
10344442;-0.34500
10347219;-0.35500
10349997;-0.35500
10352775;-0.35500
10355553;-0.36500
10358330;-0.37500
10361108;-0.37000
10363886;-0.38500
10366664;-0.38000
10369442;-0.38000
10372219;-0.37000
10374997;-0.37500
10377775;-0.37500
10380553;-0.37500
10383330;-0.38000
10386108;-0.37000
10388886;-0.35500
10391664;-0.35500
10394442;-0.37000
10397219;-0.38000
10399997;-0.37000
10402775;-0.36500
10405553;-0.36500
10408330;-0.37000
10411108;-0.37000
10413886;-0.38000
10416664;-0.38000
10419442;-0.36500
10422219;-0.36000
10424997;-0.36000
10427775;-0.37000
10430553;-0.38500
10433330;-0.37500
10436108;-0.36500
10438886;-0.37000
10441664;-0.37500
10444442;-0.37500
10447219;-0.38000
10449997;-0.38500
10452775;-0.37000
10455553;-0.37000
10458330;-0.37000
10461108;-0.38000
10463886;-0.37000
10466664;-0.37500
10469442;-0.37000
10472219;-0.36000
10474997;-0.36000
10477775;-0.36500
10480553;-0.37500
10483330;-0.36500
10486108;-0.36500
10488886;-0.36000
10491664;-0.35500
10494442;-0.36500
10497219;-0.37500
10499997;-0.38500
10502775;-0.38000
10505553;-0.37500
10508330;-0.37000
10511108;-0.38500
10513886;-0.39000
10516664;-0.39500
10519441;-0.38500
10522219;-0.37500
10524997;-0.37500
10527775;-0.38000
10530553;-0.38000
10533330;-0.39000
10536108;-0.36500
10538886;-0.36500
10541664;-0.36000
10544441;-0.37000
10547219;-0.37500
10549997;-0.38500
10552775;-0.38500
10555553;-0.37500
10558330;-0.37500
10561108;-0.40000
10563886;-0.40500
10566664;-0.41500
10569441;-0.41000
10572219;-0.40000
10574997;-0.40000
10577775;-0.40000
10580553;-0.40000
10583330;-0.41500
10586108;-0.41000
10588886;-0.40500
10591664;-0.40000
10594441;-0.40500
10597219;-0.41500
10599997;-0.41000
10602775;-0.41000
10605553;-0.39500
10608330;-0.39000
10611108;-0.38000
10613886;-0.39500
10616664;-0.39000
10619441;-0.35500
10622219;-0.34500
10624997;-0.33000
10627775;-0.32500
10630553;-0.30500
10633330;-0.31000
10636108;-0.30000
10638886;-0.27500
10641664;-0.26000
10644441;-0.26500
10647219;-0.27500
10649997;-0.28000
10652775;-0.26000
10655553;-0.25500
10658330;-0.24500
10661108;-0.26000
10663886;-0.25500
10666664;-0.26500
10669441;-0.26000
10672219;-0.25000
10674997;-0.25500
10677775;-0.26500
10680553;-0.26500
10683330;-0.28000
10686108;-0.26000
10688886;-0.24000
10691664;-0.24500
10694441;-0.25500
10697219;-0.26000
10699997;-0.26000
10702775;-0.25500
10705553;-0.25500
10708330;-0.25000
10711108;-0.25500
10713886;-0.27000
10716664;-0.26500
10719441;-0.26500
10722219;-0.26000
10724997;-0.25500
10727775;-0.26000
10730553;-0.26500
10733330;-0.27500
10736108;-0.27000
10738886;-0.27500
10741664;-0.26000
10744441;-0.27500
10747219;-0.28000
10749997;-0.28000
10752775;-0.29000
10755553;-0.27500
10758330;-0.28000
10761108;-0.30000
10763886;-0.29500
10766664;-0.30500
10769441;-0.29000
10772219;-0.27500
10774997;-0.28000
10777775;-0.28000
10780553;-0.30000
10783330;-0.29000
10786108;-0.29000
10788886;-0.28000
10791664;-0.28500
10794441;-0.29500
10797219;-0.30500
10799997;-0.31500
10802775;-0.31500
10805553;-0.31000
10808330;-0.30000
10811108;-0.31000
10813886;-0.32000
10816664;-0.32000
10819441;-0.30500
10822219;-0.30500
10824997;-0.29500
10827775;-0.31000
10830553;-0.32000
10833330;-0.31500
10836108;-0.30000
10838886;-0.29000
10841664;-0.29500
10844441;-0.31500
10847219;-0.31000
10849997;-0.31500
10852775;-0.31000
10855553;-0.30000
10858330;-0.30500
10861108;-0.31500
10863886;-0.32000
10866664;-0.31500
10869441;-0.31000
10872219;-0.30000
10874997;-0.31000
10877775;-0.30500
10880553;-0.31500
10883330;-0.32000
10886108;-0.30000
10888886;-0.29500
10891664;-0.29000
10894441;-0.29500
10897219;-0.31500
10899997;-0.31500
10902775;-0.30000
10905553;-0.30000
10908330;-0.30500
10911108;-0.30500
10913886;-0.30000
10916664;-0.30500
10919441;-0.29500
10922219;-0.28500
10924997;-0.28500
10927775;-0.29000
10930552;-0.30500
10933330;-0.30500
10936108;-0.29000
10938886;-0.27500
10941664;-0.25500
10944441;-0.25500
10947219;-0.24000
10949997;-0.23500
10952775;-0.21000
10955552;-0.21500
10958330;-0.20500
10961108;-0.20000
10963886;-0.21000
10966664;-0.20500
10969441;-0.19500
10972219;-0.19000
10974997;-0.18000
10977775;-0.18000
10980552;-0.19000
10983330;-0.19500
10986108;-0.19500
10988886;-0.20000
10991664;-0.20000
10994441;-0.20000
10997219;-0.21000
10999997;-0.20500
11002775;-0.19000
11005552;-0.19000
11008330;-0.20500
11011108;-0.22500
11013886;-0.22500
11016664;-0.22000
11019441;-0.18500
11022219;-0.16000
11024997;-0.16500
11027775;-0.19000
11030552;-0.21500
11033330;-0.24500
11036108;-0.25000
11038886;-0.25500
11041664;-0.26000
11044441;-0.27500
11047219;-0.29000
11049997;-0.31000
11052775;-0.31000
11055552;-0.30500
11058330;-0.31500
11061108;-0.32000
11063886;-0.32000
11066664;-0.33000
11069441;-0.32000
11072219;-0.31500
11074997;-0.30500
11077775;-0.32500
11080552;-0.33000
11083330;-0.33000
11086108;-0.31500
11088886;-0.31000
11091664;-0.32000
11094441;-0.33000
11097219;-0.32500
11099997;-0.34000
11102775;-0.33000
11105552;-0.32000
11108330;-0.31500
11111108;-0.31500
11113886;-0.33000
11116664;-0.34500
11119441;-0.35500
11122219;-0.37500
11124997;-0.41500
11127775;-0.45500
11130552;-0.48000
11133330;-0.49000
11136108;-0.52000
11138886;-0.54000
11141664;-0.52500
11144441;-0.45500
11147219;-0.33500
11149997;-0.17500
11152775;-0.01000
11155552;0.18000
11158330;0.42500
11161108;0.69500
11163886;0.92500
11166664;1.08000
11169441;1.17500
11172219;1.11000
11174997;0.85000
11177775;0.43000
11180552;-0.02000
11183330;-0.32000
11186108;-0.43500
11188886;-0.40500
11191664;-0.35000
11194441;-0.32000
11197219;-0.34000
11199997;-0.34500
11202775;-0.33000
11205552;-0.33500
11208330;-0.33500
11211108;-0.35500
11213886;-0.36500
11216664;-0.35500
11219441;-0.35500
11222219;-0.35000
11224997;-0.34500
11227775;-0.35000
11230552;-0.36000
11233330;-0.36500
11236108;-0.36500
11238886;-0.35000
11241664;-0.35500
11244441;-0.36500
11247219;-0.37500
11249997;-0.37000
11252775;-0.36500
11255552;-0.35500
11258330;-0.35500
11261108;-0.35500
11263886;-0.36500
11266664;-0.37000
11269441;-0.35000
11272219;-0.35500
11274997;-0.35000
11277775;-0.36000
11280552;-0.36500
11283330;-0.37000
11286108;-0.35500
11288886;-0.34500
11291664;-0.35000
11294441;-0.35500
11297219;-0.37000
11299997;-0.36500
11302775;-0.37000
11305552;-0.37000
11308330;-0.36000
11311108;-0.35500
11313886;-0.36500
11316663;-0.37000
11319441;-0.36000
11322219;-0.34500
11324997;-0.35500
11327775;-0.35000
11330552;-0.35000
11333330;-0.35500
11336108;-0.35500
11338886;-0.34500
11341663;-0.34000
11344441;-0.35000
11347219;-0.36000
11349997;-0.36500
11352775;-0.34500
11355552;-0.35000
11358330;-0.34500
11361108;-0.35500
11363886;-0.36000
11366663;-0.36000
11369441;-0.35000
11372219;-0.35500
11374997;-0.35000
11377775;-0.35000
11380552;-0.36500
11383330;-0.36500
11386108;-0.37000
11388886;-0.35500
11391663;-0.35000
11394441;-0.35000
11397219;-0.36500
11399997;-0.37000
11402775;-0.35000
11405552;-0.35000
11408330;-0.35000
11411108;-0.35500
11413886;-0.36000
11416663;-0.37000
11419441;-0.37000
11422219;-0.36000
11424997;-0.35000
11427775;-0.35000
11430552;-0.37000
11433330;-0.37500
11436108;-0.35500
11438886;-0.35500
11441663;-0.36000
11444441;-0.36000
11447219;-0.36500
11449997;-0.37500
11452775;-0.36000
11455552;-0.36000
11458330;-0.36000
11461108;-0.36000
11463886;-0.36000
11466663;-0.36500
11469441;-0.36500
11472219;-0.35000
11474997;-0.35000
11477775;-0.33000
11480552;-0.33500
11483330;-0.32000
11486108;-0.32000
11488886;-0.28000
11491663;-0.27500
11494441;-0.27500
11497219;-0.28000
11499997;-0.26500
11502775;-0.26000
11505552;-0.24000
11508330;-0.24000
11511108;-0.23500
11513886;-0.24000
11516663;-0.24000
11519441;-0.24500
11522219;-0.22000
11524997;-0.22000
11527775;-0.22500
11530552;-0.22000
11533330;-0.23500
11536108;-0.24000
11538886;-0.22000
11541663;-0.21500
11544441;-0.22500
11547219;-0.24000
11549997;-0.24000
11552775;-0.23500
11555552;-0.22500
11558330;-0.22000
11561108;-0.23000
11563886;-0.23000
11566663;-0.24000
11569441;-0.22000
11572219;-0.21000
11574997;-0.21000
11577775;-0.22000
11580552;-0.23000
11583330;-0.24000
11586108;-0.23500
11588886;-0.23000
11591663;-0.23000
11594441;-0.24500
11597219;-0.25000
11599997;-0.24500
11602775;-0.24000
11605552;-0.24000
11608330;-0.23500
11611108;-0.25000
11613886;-0.26000
11616663;-0.26000
11619441;-0.26500
11622219;-0.26500
11624997;-0.25500
11627775;-0.26000
11630552;-0.27000
11633330;-0.27500
11636108;-0.26500
11638886;-0.26000
11641663;-0.25500
11644441;-0.27000
11647219;-0.27500
11649997;-0.28000
11652775;-0.27000
11655552;-0.27500
11658330;-0.26500
11661108;-0.27500
11663886;-0.27500
11666663;-0.27500
11669441;-0.28000
11672219;-0.27000
11674997;-0.27000
11677775;-0.28000
11680552;-0.28000
11683330;-0.29000
11686108;-0.29000
11688886;-0.27500
11691663;-0.28000
11694441;-0.29000
11697219;-0.29500
11699997;-0.29500
11702775;-0.28000
11705552;-0.27000
11708330;-0.26500
11711108;-0.28000
11713886;-0.28500
11716663;-0.28000
11719441;-0.27000
11722219;-0.26500
11724997;-0.25500
11727774;-0.27000
11730552;-0.28000
11733330;-0.28000
11736108;-0.28000
11738886;-0.25500
11741663;-0.26000
11744441;-0.26500
11747219;-0.26000
11749997;-0.27000
11752774;-0.26500
11755552;-0.26500
11758330;-0.27000
11761108;-0.27000
11763886;-0.29000
11766663;-0.28500
11769441;-0.28500
11772219;-0.26500
11774997;-0.27500
11777774;-0.27000
11780552;-0.28000
11783330;-0.29000
11786108;-0.26000
11788886;-0.24500
11791663;-0.24000
11794441;-0.23000
11797219;-0.23000
11799997;-0.21500
11802774;-0.20000
11805552;-0.18000
11808330;-0.18000
11811108;-0.19000
11813886;-0.18500
11816663;-0.19000
11819441;-0.17500
11822219;-0.17000
11824997;-0.16000
11827774;-0.16500
11830552;-0.15500
11833330;-0.14500
11836108;-0.14000
11838886;-0.15000
11841663;-0.15500
11844441;-0.16000
11847219;-0.17500
11849997;-0.17500
11852774;-0.16500
11855552;-0.15500
11858330;-0.15500
11861108;-0.17500
11863886;-0.18000
11866663;-0.16500
11869441;-0.13500
11872219;-0.12000
11874997;-0.11000
11877774;-0.14500
11880552;-0.17000
11883330;-0.20500
11886108;-0.19500
11888886;-0.20000
11891663;-0.21500
11894441;-0.23500
11897219;-0.26500
11899997;-0.28000
11902774;-0.27500
11905552;-0.27000
11908330;-0.27500
11911108;-0.28000
11913886;-0.28500
11916663;-0.30500
11919441;-0.28500
11922219;-0.27000
11924997;-0.28000
11927774;-0.28000
11930552;-0.30000
11933330;-0.29000
11936108;-0.29000
11938886;-0.28500
11941663;-0.28000
11944441;-0.28500
11947219;-0.29500
11949997;-0.29500
11952774;-0.29500
11955552;-0.29000
11958330;-0.29000
11961108;-0.30000
11963886;-0.30500
11966663;-0.31000
11969441;-0.31500
11972219;-0.33500
11974997;-0.37500
11977774;-0.41500
11980552;-0.43500
11983330;-0.45500
11986108;-0.46000
11988886;-0.50000
11991663;-0.51500
11994441;-0.51500
11997219;-0.46000
11999997;-0.33000
12002774;-0.17500
12005552;-0.01000
12008330;0.17500
12011108;0.41500
12013886;0.66000
12016663;0.90500
12019441;1.06000
12022219;1.12500
12024997;1.00500
12027774;0.68000
12030552;0.22500
12033330;-0.18500
12036108;-0.39000
12038886;-0.41500
12041663;-0.36000
12044441;-0.31500
12047219;-0.30500
12049997;-0.31000
12052774;-0.30500
12055552;-0.31500
12058330;-0.31000
12061108;-0.31500
12063886;-0.32500
12066663;-0.33000
12069441;-0.32500
12072219;-0.32000
12074997;-0.32500
12077774;-0.33000
12080552;-0.32500
12083330;-0.32500
12086108;-0.32000
12088886;-0.32000
12091663;-0.32000
12094441;-0.32000
12097219;-0.33000
12099997;-0.32000
12102774;-0.31500
12105552;-0.31000
12108330;-0.32000
12111108;-0.32000
12113885;-0.33500
12116663;-0.35000
12119441;-0.33500
12122219;-0.32500
12124997;-0.31500
12127774;-0.32500
12130552;-0.33000
12133330;-0.35000
12136108;-0.33500
12138885;-0.32500
12141663;-0.32500
12144441;-0.32500
12147219;-0.32500
12149997;-0.33000
12152774;-0.33500
12155552;-0.32000
12158330;-0.31000
12161108;-0.31500
12163885;-0.32000
12166663;-0.32000
12169441;-0.30500
12172219;-0.30000
12174997;-0.30000
12177774;-0.29500
12180552;-0.31000
12183330;-0.32000
12186108;-0.31000
12188885;-0.30500
12191663;-0.31000
12194441;-0.32000
12197219;-0.33500
12199997;-0.34000
12202774;-0.33000
12205552;-0.33000
12208330;-0.33000
12211108;-0.33500
12213885;-0.33500
12216663;-0.34500
12219441;-0.33500
12222219;-0.31500
12224997;-0.31500
12227774;-0.32000
12230552;-0.33500
12233330;-0.33500
12236108;-0.32000
12238885;-0.33000
12241663;-0.33500
12244441;-0.33500
12247219;-0.33000
12249997;-0.33500
12252774;-0.32000
12255552;-0.32000
12258330;-0.33000
12261108;-0.35000
12263885;-0.36500
12266663;-0.38000
12269441;-0.35500
12272219;-0.35000
12274997;-0.34500
12277774;-0.36000
12280552;-0.37000
12283330;-0.37500
12286108;-0.37500
12288885;-0.36000
12291663;-0.35000
12294441;-0.35500
12297219;-0.36000
12299997;-0.36000
12302774;-0.35000
12305552;-0.33000
12308330;-0.34000
12311108;-0.34000
12313885;-0.33000
12316663;-0.33000
12319441;-0.31000
12322219;-0.31000
12324997;-0.29500
12327774;-0.29000
12330552;-0.28000
12333330;-0.28000
12336108;-0.27000
12338885;-0.25500
12341663;-0.24500
12344441;-0.24500
12347219;-0.26500
12349997;-0.26000
12352774;-0.25500
12355552;-0.25000
12358330;-0.24500
12361108;-0.25000
12363885;-0.24500
12366663;-0.26000
12369441;-0.25000
12372219;-0.25000
12374997;-0.25000
12377774;-0.25000
12380552;-0.25000
12383330;-0.26000
12386108;-0.25000
12388885;-0.24500
12391663;-0.24500
12394441;-0.24000
12397219;-0.25500
12399997;-0.26000
12402774;-0.25500
12405552;-0.24500
12408330;-0.26000
12411108;-0.25500
12413885;-0.25500
12416663;-0.25500
12419441;-0.25000
12422219;-0.24000
12424997;-0.25500
12427774;-0.28000
12430552;-0.28500
12433330;-0.30000
12436108;-0.28000
12438885;-0.26500
12441663;-0.27500
12444441;-0.28000
12447219;-0.29500
12449997;-0.30000
12452774;-0.31000
12455552;-0.29000
12458330;-0.29500
12461108;-0.29500
12463885;-0.30000
12466663;-0.30000
12469441;-0.29000
12472219;-0.28500
12474997;-0.28500
12477774;-0.31000
12480552;-0.31000
12483330;-0.32500
12486108;-0.30000
12488885;-0.30500
12491663;-0.28500
12494441;-0.31000
12497219;-0.32000
12499996;-0.34000
12502774;-0.34000
12505552;-0.33000
12508330;-0.32000
12511108;-0.32000
12513885;-0.32500
12516663;-0.34000
12519441;-0.33000
12522219;-0.32500
12524996;-0.31000
12527774;-0.30500
12530552;-0.31000
12533330;-0.33000
12536108;-0.32000
12538885;-0.32000
12541663;-0.31000
12544441;-0.31500
12547219;-0.32500
12549996;-0.33000
12552774;-0.32500
12555552;-0.33000
12558330;-0.32000
12561108;-0.32000
12563885;-0.33000
12566663;-0.33500
12569441;-0.33000
12572219;-0.33000
12574996;-0.32000
12577774;-0.30500
12580552;-0.32500
12583330;-0.32500
12586108;-0.33000
12588885;-0.31500
12591663;-0.31500
12594441;-0.32500
12597219;-0.33500
12599996;-0.34000
12602774;-0.33000
12605552;-0.31000
12608330;-0.29000
12611108;-0.28000
12613885;-0.26000
12616663;-0.27000
12619441;-0.26500
12622219;-0.25500
12624996;-0.25000
12627774;-0.25500
12630552;-0.25000
12633330;-0.24500
12636108;-0.22000
12638885;-0.23000
12641663;-0.21000
12644441;-0.21500
12647219;-0.22500
12649996;-0.23000
12652774;-0.22500
12655552;-0.22000
12658330;-0.23500
12661108;-0.24000
12663885;-0.25000
12666663;-0.26000
12669441;-0.24500
12672219;-0.25000
12674996;-0.26000
12677774;-0.26000
12680552;-0.24500
12683330;-0.22000
12686108;-0.21000
12688885;-0.23500
12691663;-0.25500
12694441;-0.28000
12697219;-0.30500
12699996;-0.32500
12702774;-0.34000
12705552;-0.33000
12708330;-0.33500
12711108;-0.34500
12713885;-0.35000
12716663;-0.36000
12719441;-0.35500
12722219;-0.34000
12724996;-0.34000
12727774;-0.34500
12730552;-0.35500
12733330;-0.37000
12736108;-0.36000
12738885;-0.35500
12741663;-0.36000
12744441;-0.35000
12747219;-0.36500
12749996;-0.37000
12752774;-0.36000
12755552;-0.36000
12758330;-0.35000
12761108;-0.36000
12763885;-0.36000
12766663;-0.36500
12769441;-0.38500
12772219;-0.40000
12774996;-0.43500
12777774;-0.46000
12780552;-0.49500
12783330;-0.55500
12786108;-0.59000
12788885;-0.62000
12791663;-0.61500
12794441;-0.57000
12797219;-0.52000
12799996;-0.45000
12802774;-0.36500
12805552;-0.29000
12808330;-0.23500
12811108;-0.15000
12813885;-0.03500
12816663;0.17000
12819441;0.41000
12822219;0.66500
12824996;0.84500
12827774;0.94000
12830552;0.87500
12833330;0.59000
12836108;0.17500
12838885;-0.18500
12841663;-0.40500
12844441;-0.49500
12847219;-0.49000
12849996;-0.46000
12852774;-0.41500
12855552;-0.41000
12858330;-0.42000
12861108;-0.42500
12863885;-0.43000
12866663;-0.42500
12869441;-0.42500
12872219;-0.41000
12874996;-0.40000
12877774;-0.40000
12880552;-0.41000
12883330;-0.40500
12886108;-0.40000
12888885;-0.40000
12891663;-0.40500
12894441;-0.41500
12897219;-0.41500
12899996;-0.42000
12902774;-0.41500
12905552;-0.42000
12908330;-0.40500
12911107;-0.40500
12913885;-0.41500
12916663;-0.42500
12919441;-0.41500
12922219;-0.39500
12924996;-0.39500
12927774;-0.41000
12930552;-0.42000
12933330;-0.42000
12936107;-0.42000
12938885;-0.41500
12941663;-0.41500
12944441;-0.42000
12947219;-0.42000
12949996;-0.42500
12952774;-0.41500
12955552;-0.39500
12958330;-0.41000
12961107;-0.41500
12963885;-0.42500
12966663;-0.44000
12969441;-0.43500
12972219;-0.43000
12974996;-0.40500
12977774;-0.40500
12980552;-0.40000
12983330;-0.41500
12986107;-0.40000
12988885;-0.38500
12991663;-0.41000
12994441;-0.41000
12997219;-0.43000
12999996;-0.43000
13002774;-0.42000
13005552;-0.42500
13008330;-0.41500
13011107;-0.42000
13013885;-0.42500
13016663;-0.42500
13019441;-0.42000
13022219;-0.40500
13024996;-0.41500
13027774;-0.41500
13030552;-0.43500
13033330;-0.43000
13036107;-0.44000
13038885;-0.43000
13041663;-0.43000
13044441;-0.43500
13047219;-0.44000
13049996;-0.46000
13052774;-0.46000
13055552;-0.45500
13058330;-0.45500
13061107;-0.46000
13063885;-0.47000
13066663;-0.48500
13069441;-0.47500
13072219;-0.47500
13074996;-0.47500
13077774;-0.51000
13080552;-0.50500
13083330;-0.50500
13086107;-0.48500
13088885;-0.48000
13091663;-0.48000
13094441;-0.47500
13097219;-0.49000
13099996;-0.49000
13102774;-0.48500
13105552;-0.46000
13108330;-0.44500
13111107;-0.43500
13113885;-0.43500
13116663;-0.42500
13119441;-0.40500
13122219;-0.39500
13124996;-0.38500
13127774;-0.36500
13130552;-0.36500
13133330;-0.36500
13136107;-0.35500
13138885;-0.35000
13141663;-0.34000
13144441;-0.34500
13147219;-0.34500
13149996;-0.35500
13152774;-0.33000
13155552;-0.33000
13158330;-0.32500
13161107;-0.33000
13163885;-0.33500
13166663;-0.32500
13169441;-0.31500
13172219;-0.29000
13174996;-0.29500
13177774;-0.30000
13180552;-0.31000
13183330;-0.31000
13186107;-0.31000
13188885;-0.30000
13191663;-0.30500
13194441;-0.30500
13197219;-0.31000
13199996;-0.33000
13202774;-0.33000
13205552;-0.32000
13208330;-0.31500
13211107;-0.30500
13213885;-0.30500
13216663;-0.31500
13219441;-0.31000
13222219;-0.31500
13224996;-0.31500
13227774;-0.32500
13230552;-0.34000
13233330;-0.34500
13236107;-0.33500
13238885;-0.32000
13241663;-0.32000
13244441;-0.32000
13247219;-0.35500
13249996;-0.35500
13252774;-0.35500
13255552;-0.33000
13258330;-0.34000
13261107;-0.34000
13263885;-0.34500
13266663;-0.34500
13269441;-0.35000
13272219;-0.33500
13274996;-0.32500
13277774;-0.32500
13280552;-0.35000
13283330;-0.34500
13286107;-0.34500
13288885;-0.32500
13291663;-0.34000
13294441;-0.35500
13297218;-0.35000
13299996;-0.35500
13302774;-0.36000
13305552;-0.34500
13308330;-0.35000
13311107;-0.35000
13313885;-0.36000
13316663;-0.35500
13319441;-0.34000
13322218;-0.33500
13324996;-0.34000
13327774;-0.34000
13330552;-0.33500
13333330;-0.34500
13336107;-0.33500
13338885;-0.33500
13341663;-0.33000
13344441;-0.32000
13347218;-0.33000
13349996;-0.33500
13352774;-0.32500
13355552;-0.32500
13358330;-0.32000
13361107;-0.32000
13363885;-0.34500
13366663;-0.34000
13369441;-0.34500
13372218;-0.33000
13374996;-0.33000
13377774;-0.33000
13380552;-0.34000
13383330;-0.34500
13386107;-0.33000
13388885;-0.32500
13391663;-0.31500
13394441;-0.32500
13397218;-0.31500
13399996;-0.32000
13402774;-0.30000
13405552;-0.27000
13408330;-0.27000
13411107;-0.25500
13413885;-0.26000
13416663;-0.27500
13419441;-0.25500
13422218;-0.25000
13424996;-0.23500
13427774;-0.23500
13430552;-0.23000
13433330;-0.23000
13436107;-0.21500
13438885;-0.21500
13441663;-0.20500
13444441;-0.22500
13447218;-0.23000
13449996;-0.24500
13452774;-0.24000
13455552;-0.23000
13458330;-0.22500
13461107;-0.23000
13463885;-0.23500
13466663;-0.25500
13469441;-0.24500
13472218;-0.24000
13474996;-0.20500
13477774;-0.21500
13480552;-0.24000
13483330;-0.27000
13486107;-0.28000
13488885;-0.28500
13491663;-0.29500
13494441;-0.31000
13497218;-0.33000
13499996;-0.32500
13502774;-0.32500
13505552;-0.32500
13508330;-0.31500
13511107;-0.31500
13513885;-0.32500
13516663;-0.33500
13519441;-0.32500
13522218;-0.32500
13524996;-0.32000
13527774;-0.33000
13530552;-0.34000
13533330;-0.34000
13536107;-0.33000
13538885;-0.32500
13541663;-0.31500
13544441;-0.32000
13547218;-0.33000
13549996;-0.34500
13552774;-0.33000
13555552;-0.32000
13558330;-0.32500
13561107;-0.32500
13563885;-0.32000
13566663;-0.32500
13569441;-0.32500
13572218;-0.31500
13574996;-0.34500
13577774;-0.39500
13580552;-0.43500
13583330;-0.46000
13586107;-0.48500
13588885;-0.51000
13591663;-0.48000
13594441;-0.38500
13597218;-0.22500
13599996;-0.06500
13602774;0.14000
13605552;0.40000
13608330;0.70000
13611107;0.91500
13613885;1.04000
13616663;1.00000
13619441;0.77500
13622218;0.37000
13624996;-0.05500
13627774;-0.34500
13630552;-0.45000
13633330;-0.44500
13636107;-0.40000
13638885;-0.35500
13641663;-0.32500
13644441;-0.33500
13647218;-0.33500
13649996;-0.33500
13652774;-0.33000
13655552;-0.32000
13658330;-0.32500
13661107;-0.31500
13663885;-0.33000
13666663;-0.34000
13669441;-0.34000
13672218;-0.33500
13674996;-0.32000
13677774;-0.32500
13680552;-0.34500
13683330;-0.35500
13686107;-0.33000
13688885;-0.34000
13691663;-0.33500
13694441;-0.35000
13697218;-0.34500
13699996;-0.35500
13702774;-0.35000
13705552;-0.33500
13708329;-0.32000
13711107;-0.31000
13713885;-0.33500
13716663;-0.33500
13719441;-0.32500
13722218;-0.32500
13724996;-0.31500
13727774;-0.33000
13730552;-0.33500
13733329;-0.34500
13736107;-0.34000
13738885;-0.32000
13741663;-0.32500
13744441;-0.32500
13747218;-0.33500
13749996;-0.34500
13752774;-0.33500
13755552;-0.33000
13758329;-0.31500
13761107;-0.33000
13763885;-0.34000
13766663;-0.36000
13769441;-0.34500
13772218;-0.33500
13774996;-0.33500
13777774;-0.33000
13780552;-0.33500
13783329;-0.34500
13786107;-0.33500
13788885;-0.32500
13791663;-0.31500
13794441;-0.32000
13797218;-0.32500
13799996;-0.33500
13802774;-0.31500
13805552;-0.31500
13808329;-0.31000
13811107;-0.31500
13813885;-0.31500
13816663;-0.33000
13819441;-0.32500
13822218;-0.32000
13824996;-0.33000
13827774;-0.32500
13830552;-0.34000
13833329;-0.35000
13836107;-0.33000
13838885;-0.34000
13841663;-0.32500
13844441;-0.33000
13847218;-0.36000
13849996;-0.36500
13852774;-0.37000
13855552;-0.36000
13858329;-0.36500
13861107;-0.36500
13863885;-0.37500
13866663;-0.38500
13869441;-0.37500
13872218;-0.37000
13874996;-0.37000
13877774;-0.37000
13880552;-0.38000
13883329;-0.38000
13886107;-0.37500
13888885;-0.34500
13891663;-0.33500
13894441;-0.33500
13897218;-0.34000
13899996;-0.32500
13902774;-0.31000
13905552;-0.29000
13908329;-0.28500
13911107;-0.27000
13913885;-0.28500
13916663;-0.27000
13919441;-0.26000
13922218;-0.24500
13924996;-0.23000
13927774;-0.23000
13930552;-0.23000
13933329;-0.23500
13936107;-0.22500
13938885;-0.20500
13941663;-0.21000
13944441;-0.19500
13947218;-0.20500
13949996;-0.20000
13952774;-0.19500
13955552;-0.19500
13958329;-0.18500
13961107;-0.19000
13963885;-0.18500
13966663;-0.19500
13969441;-0.19000
13972218;-0.18500
13974996;-0.18500
13977774;-0.19500
13980552;-0.20000
13983329;-0.21000
13986107;-0.20000
13988885;-0.20000
13991663;-0.19500
13994441;-0.20500
13997218;-0.20000
13999996;-0.21000
14002774;-0.20000
14005552;-0.20000
14008329;-0.19500
14011107;-0.21000
14013885;-0.21000
14016663;-0.21500
14019441;-0.21000
14022218;-0.19000
14024996;-0.19000
14027774;-0.19500
14030552;-0.21500
14033329;-0.21500
14036107;-0.21000
14038885;-0.20000
14041663;-0.20500
14044441;-0.20500
14047218;-0.21500
14049996;-0.22500
14052774;-0.22500
14055552;-0.21000
14058329;-0.21000
14061107;-0.21500
14063885;-0.23000
14066663;-0.23500
14069441;-0.24000
14072218;-0.23000
14074996;-0.23500
14077774;-0.23500
14080552;-0.23000
14083329;-0.24000
14086107;-0.24500
14088885;-0.23500
14091663;-0.24000
14094440;-0.24500
14097218;-0.24500
14099996;-0.24500
14102774;-0.24000
14105552;-0.23000
14108329;-0.23000
14111107;-0.22500
14113885;-0.24000
14116663;-0.24500
14119440;-0.23500
14122218;-0.23000
14124996;-0.21500
14127774;-0.22500
14130552;-0.23500
14133329;-0.25000
14136107;-0.24500
14138885;-0.23000
14141663;-0.22000
14144440;-0.22000
14147218;-0.23000
14149996;-0.23500
14152774;-0.22500
14155552;-0.22000
14158329;-0.20500
14161107;-0.21000
14163885;-0.22500
14166663;-0.22500
14169440;-0.22000
14172218;-0.21500
14174996;-0.22000
14177774;-0.22500
14180552;-0.24000
14183329;-0.24500
14186107;-0.23500
14188885;-0.21500
14191663;-0.20500
14194440;-0.21000
14197218;-0.20500
14199996;-0.20500
14202774;-0.19500
14205552;-0.16500
14208329;-0.16000
14211107;-0.16000
14213885;-0.17500
14216663;-0.17000
14219440;-0.14500
14222218;-0.14000
14224996;-0.13500
14227774;-0.14000
14230552;-0.12500
14233329;-0.13500
14236107;-0.11500
14238885;-0.11000
14241663;-0.10500
14244440;-0.12000
14247218;-0.13000
14249996;-0.14500
14252774;-0.15000
14255552;-0.13000
14258329;-0.13000
14261107;-0.14500
14263885;-0.16000
14266663;-0.16500
14269440;-0.14500
14272218;-0.11500
14274996;-0.11000
14277774;-0.14500
14280552;-0.18000
14283329;-0.20500
14286107;-0.20500
14288885;-0.20500
14291663;-0.22000
14294440;-0.22500
14297218;-0.23500
14299996;-0.25500
14302774;-0.25000
14305552;-0.22500
14308329;-0.23000
14311107;-0.24500
14313885;-0.26000
14316663;-0.26000
14319440;-0.27000
14322218;-0.26500
14324996;-0.25500
14327774;-0.27500
14330552;-0.28000
14333329;-0.28500
14336107;-0.28500
14338885;-0.27000
14341663;-0.26000
14344440;-0.26000
14347218;-0.27500
14349996;-0.29000
14352774;-0.30000
14355552;-0.31000
14358329;-0.36000
14361107;-0.40500
14363885;-0.43500
14366663;-0.47000
14369440;-0.51500
14372218;-0.53000
14374996;-0.49000
14377774;-0.42000
14380552;-0.32500
14383329;-0.23000
14386107;-0.11000
14388885;0.02500
14391663;0.18000
14394440;0.41500
14397218;0.69500
14399996;0.96500
14402774;1.17000
14405552;1.24500
14408329;1.12500
14411107;0.75500
14413885;0.23500
14416663;-0.20500
14419440;-0.40000
14422218;-0.38000
14424996;-0.29500
14427774;-0.24500
14430552;-0.26000
14433329;-0.28500
14436107;-0.27500
14438885;-0.27000
14441663;-0.27000
14444440;-0.29000
14447218;-0.29500
14449996;-0.30000
14452774;-0.30000
14455552;-0.29500
14458329;-0.30000
14461107;-0.29500
14463885;-0.33500
14466663;-0.32500
14469440;-0.31000
14472218;-0.31000
14474996;-0.30000
14477774;-0.30000
14480552;-0.32000
14483329;-0.32500
14486107;-0.31500
14488885;-0.30000
14491663;-0.30500
14494440;-0.29000
14497218;-0.30500
14499996;-0.31500
14502774;-0.31000
14505551;-0.29500
14508329;-0.29500
14511107;-0.31000
14513885;-0.30500
14516663;-0.31000
14519440;-0.30500
14522218;-0.29000
14524996;-0.29000
14527774;-0.30000
14530551;-0.30500
14533329;-0.32000
14536107;-0.31000
14538885;-0.29500
14541663;-0.29500
14544440;-0.31000
14547218;-0.31000
14549996;-0.32000
14552774;-0.31500
14555551;-0.32000
14558329;-0.31000
14561107;-0.31000
14563885;-0.31000
14566663;-0.32500
14569440;-0.32000
14572218;-0.31500
14574996;-0.30500
14577774;-0.29500
14580551;-0.30500
14583329;-0.33000
14586107;-0.31000
14588885;-0.30000
14591663;-0.30000
14594440;-0.29500
14597218;-0.30500
14599996;-0.33000
14602774;-0.31500
14605551;-0.31000
14608329;-0.30000
14611107;-0.31500
14613885;-0.32000
14616663;-0.32500
14619440;-0.32500
14622218;-0.31000
14624996;-0.31000
14627774;-0.31000
14630551;-0.32000
14633329;-0.33000
14636107;-0.32000
14638885;-0.31500
14641663;-0.32000
14644440;-0.31000
14647218;-0.32500
14649996;-0.33500
14652774;-0.33500
14655551;-0.31000
14658329;-0.30500
14661107;-0.30000
14663885;-0.31500
14666663;-0.33000
14669440;-0.31500
14672218;-0.32000
14674996;-0.31000
14677774;-0.31000
14680551;-0.31000
14683329;-0.31000
14686107;-0.30500
14688885;-0.29000
14691663;-0.27500
14694440;-0.27000
14697218;-0.27000
14699996;-0.27000
14702774;-0.25500
14705551;-0.24000
14708329;-0.23000
14711107;-0.22000
14713885;-0.22000
14716663;-0.22500
14719440;-0.22000
14722218;-0.20000
14724996;-0.18500
14727774;-0.19500
14730551;-0.20000
14733329;-0.20000
14736107;-0.19000
14738885;-0.18000
14741663;-0.17500
14744440;-0.18000
14747218;-0.19000
14749996;-0.19500
14752774;-0.18500
14755551;-0.18500
14758329;-0.18000
14761107;-0.18000
14763885;-0.19000
14766663;-0.19500
14769440;-0.20000
14772218;-0.19000
14774996;-0.18500
14777774;-0.20000
14780551;-0.20500
14783329;-0.22000
14786107;-0.21000
14788885;-0.20500
14791663;-0.20000
14794440;-0.21500
14797218;-0.22500
14799996;-0.23000
14802774;-0.22500
14805551;-0.21000
14808329;-0.21000
14811107;-0.21000
14813885;-0.22000
14816663;-0.22500
14819440;-0.22000
14822218;-0.22000
14824996;-0.21000
14827774;-0.21500
14830551;-0.22500
14833329;-0.23500
14836107;-0.23500
14838885;-0.22500
14841663;-0.22000
14844440;-0.23500
14847218;-0.23500
14849996;-0.25000
14852774;-0.24000
14855551;-0.24000
14858329;-0.25000
14861107;-0.24500
14863885;-0.25500
14866663;-0.27500
14869440;-0.27000
14872218;-0.26000
14874996;-0.25500
14877774;-0.25500
14880551;-0.28000
14883329;-0.27500
14886107;-0.27000
14888885;-0.26000
14891662;-0.25000
14894440;-0.25000
14897218;-0.26000
14899996;-0.27500
14902774;-0.26000
14905551;-0.25500
14908329;-0.24500
14911107;-0.24500
14913885;-0.25500
14916662;-0.27500
14919440;-0.27000
14922218;-0.26500
14924996;-0.26000
14927774;-0.26500
14930551;-0.26000
14933329;-0.27500
14936107;-0.25000
14938885;-0.24500
14941662;-0.25000
14944440;-0.26000
14947218;-0.25500
14949996;-0.25500
14952774;-0.25000
14955551;-0.25000
14958329;-0.23500
14961107;-0.24000
14963885;-0.23500
14966662;-0.25000
14969440;-0.23500
14972218;-0.23000
14974996;-0.23500
14977774;-0.23000
14980551;-0.25000
14983329;-0.25500
14986107;-0.24000
14988885;-0.22500
14991662;-0.20500
14994440;-0.21500
14997218;-0.19000
14999996;-0.18500
15002774;-0.16500
15005551;-0.16500
15008329;-0.16000
15011107;-0.16000
15013885;-0.16500
15016662;-0.17000
15019440;-0.15500
15022218;-0.13000
15024996;-0.13000
15027774;-0.13500
15030551;-0.14000
15033329;-0.14500
15036107;-0.14000
15038885;-0.14000
15041662;-0.13500
15044440;-0.13500
15047218;-0.15500
15049996;-0.15500
15052774;-0.16500
15055551;-0.16500
15058329;-0.15000
15061107;-0.12000
15063885;-0.11000
15066662;-0.13500
15069440;-0.15500
15072218;-0.18000
15074996;-0.19500
15077774;-0.21000
15080551;-0.23500
15083329;-0.24500
15086107;-0.24000
15088885;-0.25000
15091662;-0.24500
15094440;-0.26000
15097218;-0.25500
15099996;-0.27500
15102774;-0.26500
15105551;-0.26500
15108329;-0.26000
15111107;-0.26000
15113885;-0.28500
15116662;-0.28000
15119440;-0.28000
15122218;-0.28000
15124996;-0.26500
15127774;-0.27000
15130551;-0.28500
15133329;-0.29000
15136107;-0.29000
15138885;-0.29500
15141662;-0.28000
15144440;-0.29000
15147218;-0.29500
15149996;-0.31000
15152774;-0.30000
15155551;-0.29000
15158329;-0.29000
15161107;-0.30000
15163885;-0.33000
15166662;-0.38000
15169440;-0.40500
15172218;-0.42500
15174996;-0.43500
15177774;-0.48500
15180551;-0.50500
15183329;-0.46500
15186107;-0.32500
15188885;-0.15000
15191662;0.02000
15194440;0.24500
15197218;0.49000
15199996;0.77000
15202774;1.02000
15205551;1.15000
