time_ms;ecg_value
0;-0.52500
2778;-0.53000
5556;-0.54500
8333;-0.54000
11111;-0.53500
13889;-0.52500
16667;-0.51000
19444;-0.52000
22222;-0.51500
25000;-0.51500
27778;-0.49000
30556;-0.48500
33333;-0.48000
36111;-0.47500
38889;-0.47500
41667;-0.46500
44444;-0.44000
47222;-0.41500
50000;-0.40500
52778;-0.40000
55556;-0.41000
58333;-0.40000
61111;-0.39500
63889;-0.37500
66667;-0.38500
69444;-0.39500
72222;-0.39000
75000;-0.39500
77778;-0.38500
80556;-0.37000
83333;-0.38500
86111;-0.39000
88889;-0.40500
91667;-0.38000
94444;-0.37000
97222;-0.36500
100000;-0.36000
102778;-0.37000
105556;-0.37500
108333;-0.38000
111111;-0.38000
113889;-0.37000
116667;-0.37500
119444;-0.38000
122222;-0.39000
125000;-0.40000
127778;-0.38500
130556;-0.38500
133333;-0.38000
136111;-0.39000
138889;-0.40000
141667;-0.40000
144444;-0.39000
147222;-0.38500
150000;-0.38000
152778;-0.38500
155556;-0.40000
158333;-0.41000
161111;-0.40000
163889;-0.38000
166667;-0.38000
169444;-0.40000
172222;-0.40000
175000;-0.40000
177778;-0.40000
180556;-0.39000
183333;-0.39500
186111;-0.41500
188889;-0.41000
191667;-0.41500
194444;-0.40500
197222;-0.39500
200000;-0.39500
202778;-0.40500
205555;-0.41500
208333;-0.41000
211111;-0.40000
213889;-0.40000
216667;-0.39500
219444;-0.40500
222222;-0.41500
225000;-0.41500
227778;-0.41500
230555;-0.40500
233333;-0.40500
236111;-0.42000
238889;-0.41000
241667;-0.42000
244444;-0.40000
247222;-0.39500
250000;-0.39500
252778;-0.41000
255555;-0.41000
258333;-0.40500
261111;-0.40000
263889;-0.39000
266667;-0.40500
269444;-0.40000
272222;-0.41500
275000;-0.40500
277778;-0.39500
280555;-0.38500
283333;-0.38500
286111;-0.39000
288889;-0.40500
291667;-0.40000
294444;-0.39500
297222;-0.38500
300000;-0.40000
302778;-0.41000
305555;-0.39500
308333;-0.40000
311111;-0.40000
313889;-0.36000
316667;-0.37500
319444;-0.36500
322222;-0.36500
325000;-0.35000
327778;-0.33500
330555;-0.32000
333333;-0.31500
336111;-0.32000
338889;-0.32000
341667;-0.31000
344444;-0.30000
347222;-0.28500
350000;-0.27000
352778;-0.27500
355555;-0.28500
358333;-0.28000
361111;-0.27000
363889;-0.26000
366667;-0.28000
369444;-0.28500
372222;-0.28500
375000;-0.27500
377778;-0.27000
380555;-0.27500
383333;-0.25500
386111;-0.26000
388889;-0.23500
391667;-0.24500
394444;-0.28000
397222;-0.28000
400000;-0.31000
402778;-0.31000
405555;-0.33000
408333;-0.33000
411111;-0.34000
413889;-0.33500
416667;-0.34500
419444;-0.36000
422222;-0.38000
425000;-0.38500
427778;-0.39500
430555;-0.38500
433333;-0.38000
436111;-0.38500
438889;-0.40000
441667;-0.40000
444444;-0.40000
447222;-0.39000
450000;-0.40500
452778;-0.41000
455555;-0.41500
458333;-0.41500
461111;-0.41000
463889;-0.39500
466667;-0.39000
469444;-0.40000
472222;-0.42000
475000;-0.41500
477778;-0.40000
480555;-0.40500
483333;-0.39500
486111;-0.40000
488889;-0.41000
491667;-0.43000
494444;-0.43000
497222;-0.47500
500000;-0.50000
502778;-0.53000
505555;-0.54500
508333;-0.61000
511111;-0.60500
513889;-0.56000
516667;-0.45500
519444;-0.34000
522222;-0.22000
525000;-0.03000
527778;0.22000
530555;0.48500
533333;0.71000
536111;0.83500
538889;0.81500
541667;0.61500
544444;0.27500
547222;-0.09500
550000;-0.38500
552778;-0.52000
555555;-0.55500
558333;-0.53500
561111;-0.48500
563889;-0.44500
566667;-0.42500
569444;-0.44500
572222;-0.45500
575000;-0.45500
577778;-0.44500
580555;-0.44000
583333;-0.43500
586111;-0.44000
588889;-0.44500
591667;-0.46000
594444;-0.44000
597222;-0.43000
600000;-0.43000
602778;-0.44000
605555;-0.44500
608333;-0.43500
611111;-0.43500
613889;-0.42000
616666;-0.42500
619444;-0.42500
622222;-0.43000
625000;-0.44000
627778;-0.42500
630555;-0.43000
633333;-0.43000
636111;-0.42500
638889;-0.43500
641666;-0.44000
644444;-0.43000
647222;-0.43000
650000;-0.42500
652778;-0.44000
655555;-0.45000
658333;-0.46000
661111;-0.44500
663889;-0.42500
666666;-0.44000
669444;-0.44500
672222;-0.44500
675000;-0.45000
677778;-0.44500
680555;-0.44000
683333;-0.43500
686111;-0.43000
688889;-0.44500
691666;-0.44000
694444;-0.43000
697222;-0.42500
700000;-0.42000
702778;-0.43000
705555;-0.43000
708333;-0.44000
711111;-0.43000
713889;-0.41500
716666;-0.42500
719444;-0.42000
722222;-0.42500
725000;-0.42500
727778;-0.42500
730555;-0.41000
733333;-0.41000
736111;-0.42000
738889;-0.42000
741666;-0.44000
744444;-0.42000
747222;-0.42000
750000;-0.41000
752778;-0.41500
755555;-0.44000
758333;-0.44000
761111;-0.43000
763889;-0.42500
766666;-0.42000
769444;-0.42500
772222;-0.42500
775000;-0.43500
777778;-0.42500
780555;-0.41500
783333;-0.42000
786111;-0.42500
788889;-0.43500
791666;-0.43500
794444;-0.44500
797222;-0.44000
800000;-0.44500
802778;-0.44000
805555;-0.45000
808333;-0.46000
811111;-0.44500
813889;-0.44000
816666;-0.44000
819444;-0.45000
822222;-0.44500
825000;-0.44500
827778;-0.44500
830555;-0.42500
833333;-0.41000
836111;-0.43000
838889;-0.41500
841666;-0.41500
844444;-0.38000
847222;-0.36500
850000;-0.36000
852778;-0.35000
855555;-0.34500
858333;-0.34000
861111;-0.33500
863889;-0.32000
866666;-0.30500
869444;-0.30000
872222;-0.32500
875000;-0.31500
877778;-0.30000
880555;-0.30000
883333;-0.29500
886111;-0.29500
888889;-0.31000
891666;-0.29500
894444;-0.29500
897222;-0.28500
900000;-0.28500
902778;-0.30500
905555;-0.31000
908333;-0.31000
911111;-0.30000
913889;-0.30000
916666;-0.29000
919444;-0.30000
922222;-0.31500
925000;-0.31500
927778;-0.30500
930555;-0.29500
933333;-0.28500
936111;-0.31500
938889;-0.31500
941666;-0.31000
944444;-0.31000
947222;-0.29500
950000;-0.29500
952778;-0.30500
955555;-0.32000
958333;-0.31000
961111;-0.30500
963889;-0.30000
966666;-0.30000
969444;-0.31000
972222;-0.31500
975000;-0.31500
977778;-0.31000
980555;-0.31500
983333;-0.31500
986111;-0.33000
988889;-0.32000
991666;-0.33500
994444;-0.32500
997222;-0.32000
1000000;-0.32000
1002777;-0.32000
1005555;-0.33000
1008333;-0.33000
1011111;-0.31500
1013889;-0.31500
1016666;-0.31500
1019444;-0.31500
1022222;-0.31500
1025000;-0.33500
1027777;-0.32000
1030555;-0.31500
1033333;-0.32000
1036111;-0.32500
1038889;-0.32500
1041666;-0.32500
1044444;-0.32000
1047222;-0.31500
1050000;-0.31000
1052777;-0.31500
1055555;-0.32500
1058333;-0.33000
1061111;-0.31500
1063889;-0.30500
1066666;-0.30000
1069444;-0.31000
1072222;-0.32500
1075000;-0.31500
1077777;-0.31000
1080555;-0.31500
1083333;-0.32000
1086111;-0.30500
1088889;-0.31500
1091666;-0.30500
1094444;-0.29000
1097222;-0.27000
1100000;-0.26500
1102777;-0.27000
1105555;-0.27000
1108333;-0.26000
1111111;-0.24500
1113889;-0.23500
1116666;-0.22500
1119444;-0.23000
1122222;-0.23000
1125000;-0.22000
1127777;-0.20500
1130555;-0.18500
1133333;-0.18000
1136111;-0.19000
1138889;-0.20000
1141666;-0.19500
1144444;-0.20500
1147222;-0.20000
1150000;-0.20000
1152777;-0.19500
1155555;-0.20000
1158333;-0.20000
1161111;-0.18000
1163889;-0.16000
1166666;-0.14500
1169444;-0.15000
1172222;-0.19000
1175000;-0.22500
1177777;-0.24000
1180555;-0.23000
1183333;-0.24500
1186111;-0.27000
1188889;-0.29000
1191666;-0.31000
1194444;-0.31500
1197222;-0.31500
1200000;-0.29500
1202777;-0.31500
1205555;-0.32500
1208333;-0.33000
1211111;-0.31000
1213889;-0.30500
1216666;-0.30500
1219444;-0.32000
1222222;-0.31500
1225000;-0.32000
1227777;-0.31500
1230555;-0.31000
1233333;-0.31500
1236111;-0.32000
1238889;-0.32500
1241666;-0.33500
1244444;-0.32500
1247222;-0.33000
1250000;-0.32500
1252777;-0.33000
1255555;-0.33000
1258333;-0.33500
1261111;-0.32500
1263889;-0.33000
1266666;-0.32500
1269444;-0.36000
1272222;-0.39500
1275000;-0.45000
1277777;-0.44000
1280555;-0.46500
1283333;-0.50500
1286111;-0.53000
1288889;-0.49000
1291666;-0.38000
1294444;-0.23500
1297222;-0.07500
1300000;0.11500
1302777;0.39000
1305555;0.63500
1308333;0.80000
1311111;0.88500
1313889;0.78500
1316666;0.49500
1319444;0.10000
1322222;-0.26500
1325000;-0.46500
1327777;-0.48500
1330555;-0.43500
1333333;-0.38500
1336111;-0.36000
1338889;-0.37000
1341666;-0.38500
1344444;-0.37500
1347222;-0.36000
1350000;-0.36500
1352777;-0.36500
1355555;-0.38000
1358333;-0.38000
1361111;-0.36500
1363889;-0.36000
1366666;-0.36000
1369444;-0.36500
1372222;-0.37500
1375000;-0.36500
1377777;-0.36000
1380555;-0.35000
1383333;-0.35000
1386111;-0.35000
1388888;-0.36000
1391666;-0.37000
1394444;-0.36000
1397222;-0.36000
1400000;-0.35500
1402777;-0.36500
1405555;-0.39000
1408333;-0.39000
1411111;-0.38000
1413888;-0.37500
1416666;-0.36500
1419444;-0.35500
1422222;-0.37500
1425000;-0.37500
1427777;-0.36000
1430555;-0.36000
1433333;-0.35500
1436111;-0.37000
1438888;-0.36000
1441666;-0.35500
1444444;-0.35500
1447222;-0.34500
1450000;-0.36000
1452777;-0.35000
1455555;-0.35500
1458333;-0.36500
1461111;-0.35000
1463888;-0.35000
1466666;-0.35000
1469444;-0.35000
1472222;-0.35000
1475000;-0.36000
1477777;-0.35500
1480555;-0.35000
1483333;-0.36000
1486111;-0.35500
1488888;-0.36000
1491666;-0.37000
1494444;-0.36000
1497222;-0.34000
1500000;-0.34500
1502777;-0.36000
1505555;-0.36000
1508333;-0.37000
1511111;-0.35000
1513888;-0.34000
1516666;-0.34000
1519444;-0.34000
1522222;-0.35000
1525000;-0.35000
1527777;-0.34500
1530555;-0.33500
1533333;-0.33500
1536111;-0.35000
1538888;-0.34500
1541666;-0.34500
1544444;-0.33500
1547222;-0.33500
1550000;-0.34000
1552777;-0.34000
1555555;-0.35000
1558333;-0.36000
1561111;-0.35500
1563888;-0.34000
1566666;-0.35000
1569444;-0.35000
1572222;-0.36000
1575000;-0.36500
1577777;-0.35000
1580555;-0.33000
1583333;-0.34000
1586111;-0.34000
1588888;-0.33500
1591666;-0.33500
1594444;-0.32000
1597222;-0.31000
1600000;-0.30500
1602777;-0.30500
1605555;-0.30500
1608333;-0.29500
1611111;-0.27500
1613888;-0.26500
1616666;-0.27000
1619444;-0.28000
1622222;-0.27500
1625000;-0.26500
1627777;-0.26000
1630555;-0.25000
1633333;-0.24500
1636111;-0.25500
1638888;-0.27500
1641666;-0.28000
1644444;-0.26000
1647222;-0.24500
1650000;-0.25000
1652777;-0.25500
1655555;-0.27000
1658333;-0.27000
1661111;-0.25000
1663888;-0.24500
1666666;-0.24500
1669444;-0.24500
1672222;-0.25000
1675000;-0.25500
1677777;-0.25500
1680555;-0.25000
1683333;-0.23500
1686111;-0.24000
1688888;-0.26000
1691666;-0.26000
1694444;-0.26500
1697222;-0.23500
1700000;-0.24000
1702777;-0.25000
1705555;-0.26500
1708333;-0.26500
1711111;-0.25500
1713888;-0.25500
1716666;-0.25500
1719444;-0.25500
1722222;-0.27500
1725000;-0.27000
1727777;-0.26500
1730555;-0.25500
1733333;-0.26500
1736111;-0.27000
1738888;-0.27000
1741666;-0.27500
1744444;-0.27000
1747222;-0.26500
1750000;-0.26500
1752777;-0.27000
1755555;-0.28000
1758333;-0.28000
1761111;-0.27500
1763888;-0.27000
1766666;-0.27000
1769444;-0.28000
1772222;-0.28000
1775000;-0.29500
1777777;-0.28000
1780555;-0.27500
1783333;-0.27500
1786111;-0.28500
1788888;-0.29000
1791666;-0.28000
1794444;-0.27000
1797222;-0.26000
1799999;-0.26500
1802777;-0.27000
1805555;-0.28500
1808333;-0.28500
1811111;-0.27000
1813888;-0.27000
1816666;-0.25500
1819444;-0.27000
1822222;-0.28000
1824999;-0.28500
1827777;-0.26500
1830555;-0.25000
1833333;-0.26000
1836111;-0.26500
1838888;-0.27500
1841666;-0.28500
1844444;-0.27500
1847222;-0.26000
1849999;-0.27000
1852777;-0.26000
1855555;-0.27500
1858333;-0.27500
1861111;-0.25500
1863888;-0.24000
1866666;-0.22500
1869444;-0.22500
1872222;-0.22000
1874999;-0.21500
1877777;-0.21000
1880555;-0.18500
1883333;-0.18000
1886111;-0.17500
1888888;-0.19000
1891666;-0.17500
1894444;-0.17500
1897222;-0.16000
1899999;-0.17500
1902777;-0.18000
1905555;-0.18000
1908333;-0.17000
1911111;-0.14500
1913888;-0.13500
1916666;-0.13000
1919444;-0.13000
1922222;-0.13000
1924999;-0.13000
1927777;-0.13500
1930555;-0.13500
1933333;-0.12500
1936111;-0.13000
1938888;-0.13500
1941666;-0.13000
1944444;-0.12500
1947222;-0.11500
1949999;-0.09000
1952777;-0.09000
1955555;-0.12000
1958333;-0.16000
1961111;-0.19500
1963888;-0.19500
1966666;-0.20500
1969444;-0.22000
1972222;-0.26000
1974999;-0.27000
1977777;-0.26500
1980555;-0.26500
1983333;-0.26500
1986111;-0.26500
1988888;-0.28000
1991666;-0.27000
1994444;-0.27500
1997222;-0.28500
1999999;-0.26500
2002777;-0.28000
2005555;-0.29500
2008333;-0.29000
2011111;-0.28500
2013888;-0.29000
2016666;-0.27500
2019444;-0.28500
2022222;-0.29500
2024999;-0.30500
2027777;-0.29000
2030555;-0.28000
2033333;-0.28500
2036111;-0.29000
2038888;-0.30500
2041666;-0.31000
2044444;-0.31500
2047222;-0.32500
2049999;-0.36500
2052777;-0.40000
2055555;-0.41000
2058333;-0.43500
2061111;-0.47500
2063888;-0.50000
2066666;-0.48000
2069444;-0.39500
2072222;-0.28500
2074999;-0.15500
2077777;0.01500
2080555;0.25500
2083333;0.53000
2086111;0.74500
2088888;0.83500
2091666;0.81000
2094444;0.62000
2097222;0.28000
2099999;-0.10000
2102777;-0.38000
2105555;-0.48500
2108333;-0.45500
2111111;-0.38000
2113888;-0.33500
2116666;-0.34000
2119444;-0.34000
2122222;-0.35500
2124999;-0.34500
2127777;-0.33000
2130555;-0.31500
2133333;-0.31500
2136111;-0.33000
2138888;-0.33500
2141666;-0.33500
2144444;-0.32000
2147222;-0.31500
2149999;-0.31000
2152777;-0.32000
2155555;-0.32500
2158333;-0.32500
2161111;-0.32000
2163888;-0.30500
2166666;-0.30500
2169444;-0.31500
2172222;-0.33500
2174999;-0.32500
2177777;-0.33500
2180555;-0.31500
2183333;-0.32500
2186110;-0.33500
2188888;-0.34000
2191666;-0.33500
2194444;-0.33500
2197222;-0.32000
2199999;-0.32000
2202777;-0.33000
2205555;-0.33000
2208333;-0.32500
2211110;-0.31000
2213888;-0.31500
2216666;-0.31500
2219444;-0.32500
2222222;-0.32000
2224999;-0.33000
2227777;-0.31000
2230555;-0.30500
2233333;-0.30000
2236110;-0.31500
2238888;-0.32000
2241666;-0.34000
2244444;-0.32500
2247222;-0.31000
2249999;-0.31000
2252777;-0.31000
2255555;-0.32000
2258333;-0.31500
2261110;-0.31000
2263888;-0.29500
2266666;-0.30500
2269444;-0.30500
2272222;-0.32000
2274999;-0.32000
2277777;-0.31500
2280555;-0.30500
2283333;-0.30500
2286110;-0.31500
2288888;-0.31000
2291666;-0.34000
2294444;-0.30500
2297222;-0.29500
2299999;-0.29500
2302777;-0.29500
2305555;-0.30500
2308333;-0.31000
2311110;-0.31000
2313888;-0.30000
2316666;-0.30000
2319444;-0.31000
2322222;-0.31500
2324999;-0.32500
2327777;-0.30500
2330555;-0.30500
2333333;-0.30500
2336110;-0.31000
2338888;-0.31500
2341666;-0.33000
2344444;-0.32000
2347222;-0.31000
2349999;-0.31500
2352777;-0.32500
2355555;-0.32500
2358333;-0.32500
2361110;-0.31500
2363888;-0.30500
2366666;-0.31000
2369444;-0.30500
2372222;-0.30500
2374999;-0.30500
2377777;-0.28500
2380555;-0.27500
2383333;-0.26000
2386110;-0.25500
2388888;-0.26000
2391666;-0.26500
2394444;-0.24500
2397222;-0.23500
2399999;-0.24500
2402777;-0.23500
2405555;-0.24000
2408333;-0.24000
2411110;-0.23000
2413888;-0.22500
2416666;-0.22000
2419444;-0.23000
2422222;-0.25000
2424999;-0.24500
2427777;-0.24500
2430555;-0.22500
2433333;-0.23500
2436110;-0.23000
2438888;-0.24000
2441666;-0.23000
2444444;-0.22000
2447222;-0.19500
2449999;-0.21500
2452777;-0.22000
2455555;-0.24500
2458333;-0.24000
2461110;-0.24000
2463888;-0.22500
2466666;-0.22500
2469444;-0.23000
2472222;-0.24500
2474999;-0.24500
2477777;-0.24000
2480555;-0.24000
2483333;-0.23500
2486110;-0.25500
2488888;-0.26000
2491666;-0.25000
2494444;-0.25000
2497222;-0.24000
2499999;-0.25500
2502777;-0.25000
2505555;-0.26000
2508333;-0.27000
2511110;-0.26500
2513888;-0.25000
2516666;-0.25000
2519444;-0.26000
2522222;-0.26500
2524999;-0.26500
2527777;-0.25500
2530555;-0.25000
2533333;-0.26000
2536110;-0.27000
2538888;-0.27500
2541666;-0.27500
2544444;-0.28000
2547222;-0.26500
2549999;-0.26000
2552777;-0.25500
2555555;-0.27000
2558333;-0.28500
2561110;-0.26500
2563888;-0.27000
2566666;-0.26500
2569444;-0.26000
2572222;-0.28500
2574999;-0.29500
2577777;-0.29500
2580555;-0.27500
2583333;-0.27500
2586110;-0.29000
2588888;-0.28500
2591666;-0.29000
2594444;-0.28000
2597221;-0.27000
2599999;-0.27000
2602777;-0.27000
2605555;-0.28000
2608333;-0.28000
2611110;-0.27000
2613888;-0.26000
2616666;-0.26000
2619444;-0.27000
2622221;-0.27500
2624999;-0.27000
2627777;-0.27000
2630555;-0.26500
2633333;-0.25000
2636110;-0.25500
2638888;-0.27500
2641666;-0.27000
2644444;-0.26000
2647221;-0.25500
2649999;-0.24500
2652777;-0.25500
2655555;-0.26500
2658333;-0.26000
2661110;-0.25500
2663888;-0.23500
2666666;-0.24000
2669444;-0.22500
2672221;-0.24500
2674999;-0.22500
2677777;-0.20500
2680555;-0.19000
2683333;-0.18000
2686110;-0.17500
2688888;-0.17500
2691666;-0.17000
2694444;-0.16500
2697221;-0.14500
2699999;-0.14500
2702777;-0.15500
2705555;-0.17000
2708333;-0.17500
2711110;-0.16500
2713888;-0.15500
2716666;-0.14500
2719444;-0.17500
2722221;-0.17500
2724999;-0.16000
2727777;-0.14500
2730555;-0.14000
2733333;-0.17000
2736110;-0.21000
2738888;-0.23500
2741666;-0.24000
2744444;-0.24500
2747221;-0.26000
2749999;-0.27500
2752777;-0.28000
2755555;-0.29500
2758333;-0.30000
2761110;-0.29000
2763888;-0.28500
2766666;-0.27000
2769444;-0.28000
2772221;-0.29500
2774999;-0.31000
2777777;-0.29500
2780555;-0.30000
2783333;-0.30000
2786110;-0.30500
2788888;-0.32000
2791666;-0.32500
2794444;-0.31500
2797221;-0.31000
2799999;-0.31000
2802777;-0.31500
2805555;-0.33500
2808333;-0.34000
2811110;-0.33000
2813888;-0.33500
2816666;-0.35000
2819444;-0.33500
2822221;-0.35500
2824999;-0.37000
2827777;-0.40000
2830555;-0.43000
2833333;-0.44000
2836110;-0.47500
2838888;-0.52000
2841666;-0.51000
2844444;-0.40500
2847221;-0.25500
2849999;-0.12000
2852777;0.08500
2855555;0.36000
2858333;0.61000
2861110;0.80000
2863888;0.86500
2866666;0.73000
2869444;0.39000
2872221;-0.01500
2874999;-0.33500
2877777;-0.49000
2880555;-0.50500
2883333;-0.46000
2886110;-0.40000
2888888;-0.38000
2891666;-0.38500
2894444;-0.36500
2897221;-0.36000
2899999;-0.37000
2902777;-0.37000
2905555;-0.37500
2908333;-0.38500
2911110;-0.38000
2913888;-0.38000
2916666;-0.38500
2919444;-0.39000
2922221;-0.39000
2924999;-0.39500
2927777;-0.39000
2930555;-0.38500
2933333;-0.38500
2936110;-0.39000
2938888;-0.40500
2941666;-0.41000
2944444;-0.40000
2947221;-0.39000
2949999;-0.38000
2952777;-0.38500
2955555;-0.39000
2958333;-0.38000
2961110;-0.38000
2963888;-0.36500
2966666;-0.37500
2969444;-0.38500
2972221;-0.38500
2974999;-0.40000
2977777;-0.38500
2980555;-0.38000
2983332;-0.38500
2986110;-0.39500
2988888;-0.40500
2991666;-0.41000
2994444;-0.40000
2997221;-0.39500
2999999;-0.39000
3002777;-0.38500
3005555;-0.39000
3008332;-0.38500
3011110;-0.38000
3013888;-0.38000
3016666;-0.38000
3019444;-0.39500
3022221;-0.39000
3024999;-0.40000
3027777;-0.39500
3030555;-0.39000
3033332;-0.38000
3036110;-0.39500
3038888;-0.40500
3041666;-0.41000
3044444;-0.40500
3047221;-0.39000
3049999;-0.39000
3052777;-0.38000
3055555;-0.38500
3058332;-0.38000
3061110;-0.37500
3063888;-0.37000
3066666;-0.37000
3069444;-0.38500
3072221;-0.40000
3074999;-0.40500
3077777;-0.39500
3080555;-0.38500
3083332;-0.40000
3086110;-0.41000
3088888;-0.41500
3091666;-0.42500
3094444;-0.42500
3097221;-0.41500
3099999;-0.43000
3102777;-0.43000
3105555;-0.43500
3108332;-0.42500
3111110;-0.42500
3113888;-0.42500
3116666;-0.42000
3119444;-0.43500
3122221;-0.45500
3124999;-0.44000
3127777;-0.42500
3130555;-0.40500
3133332;-0.39000
3136110;-0.39500
3138888;-0.38500
3141666;-0.37000
3144444;-0.36500
3147221;-0.33500
3149999;-0.32500
3152777;-0.31500
3155555;-0.32000
3158332;-0.31000
3161110;-0.29500
3163888;-0.28000
3166666;-0.28000
3169444;-0.28000
3172221;-0.28000
3174999;-0.28500
3177777;-0.27000
3180555;-0.26000
3183332;-0.25000
3186110;-0.25500
3188888;-0.27000
3191666;-0.27500
3194444;-0.27000
3197221;-0.26500
3199999;-0.25500
3202777;-0.26500
3205555;-0.28500
3208332;-0.28500
3211110;-0.26500
3213888;-0.25500
3216666;-0.26000
3219444;-0.27500
3222221;-0.27000
3224999;-0.28000
3227777;-0.26500
3230555;-0.25000
3233332;-0.26000
3236110;-0.27000
3238888;-0.27000
3241666;-0.28000
3244444;-0.28000
3247221;-0.26000
3249999;-0.26500
3252777;-0.27000
3255555;-0.28000
3258332;-0.28000
3261110;-0.28500
3263888;-0.28500
3266666;-0.28500
3269444;-0.28500
3272221;-0.30500
3274999;-0.30000
3277777;-0.30500
3280555;-0.28500
3283332;-0.28000
3286110;-0.28500
3288888;-0.29000
3291666;-0.30500
3294444;-0.29000
3297221;-0.29000
3299999;-0.29500
3302777;-0.30000
3305555;-0.31500
3308332;-0.31500
3311110;-0.29000
3313888;-0.28500
3316666;-0.28000
3319444;-0.28500
3322221;-0.29500
3324999;-0.30000
3327777;-0.29000
3330555;-0.29000
3333332;-0.28500
3336110;-0.29000
3338888;-0.31500
3341666;-0.32000
3344444;-0.31500
3347221;-0.31000
3349999;-0.30500
3352777;-0.30500
3355555;-0.31000
3358332;-0.31500
3361110;-0.30000
3363888;-0.28500
3366666;-0.29000
3369444;-0.29000
3372221;-0.30500
3374999;-0.30500
3377777;-0.29500
3380555;-0.29000
3383332;-0.28500
3386110;-0.28500
3388888;-0.29000
3391666;-0.29500
3394443;-0.28500
3397221;-0.28000
3399999;-0.28000
3402777;-0.28500
3405555;-0.29500
3408332;-0.30500
3411110;-0.29000
3413888;-0.29000
3416666;-0.28000
3419443;-0.27000
3422221;-0.27000
3424999;-0.26500
3427777;-0.23500
3430555;-0.23500
3433332;-0.22500
3436110;-0.22000
3438888;-0.22500
3441666;-0.22500
3444443;-0.21000
3447221;-0.19000
3449999;-0.19500
3452777;-0.18500
3455555;-0.18500
3458332;-0.18000
3461110;-0.16500
3463888;-0.15500
3466666;-0.17500
3469443;-0.18000
3472221;-0.19500
3474999;-0.20000
3477777;-0.18000
3480555;-0.17000
3483332;-0.17000
3486110;-0.17500
3488888;-0.17500
3491666;-0.18000
3494443;-0.16500
3497221;-0.14000
3499999;-0.12500
3502777;-0.12000
3505555;-0.13500
3508332;-0.16500
3511110;-0.18500
3513888;-0.20500
3516666;-0.21500
3519443;-0.22500
3522221;-0.24500
3524999;-0.26500
3527777;-0.26000
3530555;-0.26500
3533332;-0.28000
3536110;-0.29000
3538888;-0.30000
3541666;-0.30500
3544443;-0.29500
3547221;-0.29500
3549999;-0.29500
3552777;-0.30000
3555555;-0.31500
3558332;-0.32000
3561110;-0.30500
3563888;-0.29000
3566666;-0.30000
3569443;-0.31000
3572221;-0.30500
3574999;-0.31500
3577777;-0.30500
3580555;-0.29500
3583332;-0.30500
3586110;-0.30000
3588888;-0.31500
3591666;-0.31500
3594443;-0.32500
3597221;-0.34500
3599999;-0.39000
3602777;-0.41500
3605555;-0.44500
3608332;-0.47000
3611110;-0.50500
3613888;-0.47000
3616666;-0.38500
3619443;-0.25000
3622221;-0.11000
3624999;0.07000
3627777;0.34000
3630555;0.61500
3633332;0.83000
3636110;0.92000
3638888;0.85500
3641666;0.58000
3644443;0.19500
3647221;-0.17500
3649999;-0.39500
3652777;-0.47500
3655555;-0.44500
3658332;-0.39000
3661110;-0.34500
3663888;-0.35000
3666666;-0.34500
3669443;-0.35500
3672221;-0.34500
3674999;-0.35500
3677777;-0.35000
3680555;-0.34000
3683332;-0.34000
3686110;-0.34000
3688888;-0.35500
3691666;-0.35000
3694443;-0.35500
3697221;-0.35000
3699999;-0.34500
3702777;-0.35500
3705555;-0.37500
3708332;-0.37000
3711110;-0.35500
3713888;-0.34500
3716666;-0.34500
3719443;-0.35500
3722221;-0.36000
3724999;-0.35500
3727777;-0.35000
3730555;-0.33500
3733332;-0.34500
3736110;-0.34500
3738888;-0.35000
3741666;-0.35500
3744443;-0.34500
3747221;-0.35000
3749999;-0.34000
3752777;-0.33500
3755555;-0.35000
3758332;-0.35000
3761110;-0.35000
3763888;-0.34500
3766666;-0.34000
3769443;-0.33500
3772221;-0.34000
3774999;-0.34500
3777777;-0.33500
3780554;-0.32500
3783332;-0.33000
3786110;-0.33000
3788888;-0.34000
3791666;-0.35000
3794443;-0.34000
3797221;-0.33000
3799999;-0.32000
3802777;-0.33500
3805554;-0.34500
3808332;-0.35000
3811110;-0.33500
3813888;-0.33000
3816666;-0.33000
3819443;-0.34000
3822221;-0.35000
3824999;-0.34500
3827777;-0.33500
3830554;-0.33500
3833332;-0.32500
3836110;-0.34000
3838888;-0.35500
3841666;-0.35500
3844443;-0.33500
3847221;-0.32500
3849999;-0.32500
3852777;-0.33000
3855554;-0.34000
3858332;-0.34500
3861110;-0.34000
3863888;-0.34000
3866666;-0.34000
3869443;-0.35500
3872221;-0.35500
3874999;-0.36500
3877777;-0.35000
3880554;-0.34500
3883332;-0.34000
3886110;-0.34500
3888888;-0.36000
3891666;-0.38500
3894443;-0.37000
3897221;-0.36500
3899999;-0.36500
3902777;-0.34500
3905554;-0.36000
3908332;-0.35000
3911110;-0.33500
3913888;-0.31000
3916666;-0.31500
3919443;-0.31000
3922221;-0.30500
3924999;-0.30000
3927777;-0.27000
3930554;-0.25500
3933332;-0.24500
3936110;-0.24500
3938888;-0.25000
3941666;-0.25000
3944443;-0.24000
3947221;-0.22500
3949999;-0.22500
3952777;-0.22500
3955554;-0.23500
3958332;-0.24000
3961110;-0.22500
3963888;-0.22000
3966666;-0.22000
3969443;-0.21000
3972221;-0.23500
3974999;-0.23500
3977777;-0.23000
3980554;-0.21500
3983332;-0.22000
3986110;-0.23000
3988888;-0.24500
3991666;-0.25000
3994443;-0.24000
3997221;-0.22500
3999999;-0.22000
4002777;-0.22000
4005554;-0.23000
4008332;-0.24000
4011110;-0.22500
4013888;-0.21500
4016666;-0.22000
4019443;-0.22500
4022221;-0.24000
4024999;-0.24500
4027777;-0.24000
4030554;-0.23500
4033332;-0.22500
4036110;-0.25000
4038888;-0.26500
4041666;-0.26000
4044443;-0.24500
4047221;-0.24000
4049999;-0.25000
4052777;-0.25000
4055554;-0.27000
4058332;-0.27000
4061110;-0.26500
4063888;-0.25500
4066666;-0.26000
4069443;-0.26500
4072221;-0.27500
4074999;-0.28000
4077777;-0.28500
4080554;-0.26000
4083332;-0.26000
4086110;-0.26500
4088888;-0.27000
4091666;-0.27000
4094443;-0.26500
4097221;-0.26000
4099999;-0.25500
4102777;-0.27000
4105554;-0.28500
4108332;-0.29500
4111110;-0.27500
4113888;-0.27500
4116666;-0.26500
4119443;-0.27500
4122221;-0.28500
4124999;-0.28500
4127777;-0.27500
4130554;-0.26500
4133332;-0.27500
4136110;-0.28000
4138888;-0.29500
4141666;-0.29500
4144443;-0.26500
4147221;-0.26500
4149999;-0.25500
4152777;-0.27500
4155554;-0.26000
4158332;-0.27000
4161110;-0.26500
4163888;-0.26000
4166666;-0.26500
4169443;-0.27500
4172221;-0.27500
4174999;-0.26000
4177777;-0.27000
4180554;-0.25500
4183332;-0.24000
4186110;-0.25000
4188888;-0.25500
4191665;-0.23000
4194443;-0.22000
4197221;-0.20500
4199999;-0.19000
4202777;-0.20000
4205554;-0.21500
4208332;-0.20500
4211110;-0.19000
4213888;-0.16500
4216665;-0.16000
4219443;-0.17000
4222221;-0.16000
4224999;-0.16000
4227777;-0.14500
4230554;-0.13000
4233332;-0.14000
4236110;-0.15500
4238888;-0.17000
4241665;-0.17500
4244443;-0.16500
4247221;-0.15000
4249999;-0.15000
4252777;-0.16500
4255554;-0.16500
4258332;-0.17000
4261110;-0.14500
4263888;-0.11000
4266665;-0.11000
4269443;-0.14500
4272221;-0.19500
4274999;-0.20000
4277777;-0.21000
4280554;-0.20000
4283332;-0.21500
4286110;-0.24000
4288888;-0.25500
4291665;-0.27500
4294443;-0.26500
4297221;-0.26500
4299999;-0.26000
4302777;-0.26500
4305554;-0.28500
4308332;-0.28500
4311110;-0.28000
4313888;-0.27000
4316665;-0.28500
4319443;-0.28000
4322221;-0.29000
4324999;-0.29500
4327777;-0.29000
4330554;-0.28500
4333332;-0.30000
4336110;-0.31000
4338888;-0.30500
4341665;-0.31000
4344443;-0.30000
4347221;-0.29500
4349999;-0.30000
4352777;-0.30500
4355554;-0.31000
4358332;-0.32500
4361110;-0.35500
4363888;-0.38500
4366665;-0.42000
4369443;-0.42500
4372221;-0.49000
4374999;-0.52500
4377777;-0.52000
4380554;-0.47000
4383332;-0.38000
4386110;-0.29500
4388888;-0.21500
4391665;-0.12500
4394443;0.05500
4397221;0.28500
4399999;0.55500
4402777;0.75000
4405554;0.85000
4408332;0.85500
4411110;0.72500
4413888;0.42500
4416665;0.06500
4419443;-0.25000
4422221;-0.44000
4424999;-0.50500
4427777;-0.49500
4430554;-0.48000
4433332;-0.44500
4436110;-0.40000
4438888;-0.38000
4441665;-0.36000
4444443;-0.35500
4447221;-0.34500
4449999;-0.34000
4452777;-0.35000
4455554;-0.35500
4458332;-0.37000
4461110;-0.35000
4463888;-0.35000
4466665;-0.34500
4469443;-0.34500
4472221;-0.36000
4474999;-0.37500
4477777;-0.36000
4480554;-0.35000
4483332;-0.35000
4486110;-0.37000
4488888;-0.36000
4491665;-0.37500
4494443;-0.37000
4497221;-0.35500
4499999;-0.34500
4502777;-0.35500
4505554;-0.35500
4508332;-0.35500
4511110;-0.35000
4513888;-0.34000
4516665;-0.34500
4519443;-0.34500
4522221;-0.36000
4524999;-0.36000
4527777;-0.36000
4530554;-0.34500
4533332;-0.34500
4536110;-0.35000
4538888;-0.35000
4541665;-0.36000
4544443;-0.34500
4547221;-0.34000
4549999;-0.34500
4552777;-0.35500
4555554;-0.36500
4558332;-0.37500
4561110;-0.35500
4563888;-0.35000
4566665;-0.36000
4569443;-0.35000
4572221;-0.36500
4574999;-0.37000
4577776;-0.35500
4580554;-0.33000
4583332;-0.33500
4586110;-0.33000
4588888;-0.34500
4591665;-0.35500
4594443;-0.34500
4597221;-0.33000
4599999;-0.32500
4602776;-0.33500
4605554;-0.35000
4608332;-0.35500
4611110;-0.34500
4613888;-0.33000
4616665;-0.33500
4619443;-0.33500
4622221;-0.34500
4624999;-0.35000
4627776;-0.33000
4630554;-0.32500
4633332;-0.31500
4636110;-0.33500
4638888;-0.34500
4641665;-0.34000
4644443;-0.34500
4647221;-0.33500
4649999;-0.34500
4652776;-0.33500
4655554;-0.34500
4658332;-0.34500
4661110;-0.35000
4663888;-0.33500
4666665;-0.33500
4669443;-0.34500
4672221;-0.35000
4674999;-0.34500
4677776;-0.32500
4680554;-0.33500
4683332;-0.34000
4686110;-0.33500
4688888;-0.33500
4691665;-0.34000
4694443;-0.33500
4697221;-0.32500
4699999;-0.32000
4702776;-0.32500
4705554;-0.32500
4708332;-0.32500
4711110;-0.31500
4713888;-0.30000
4716665;-0.29500
4719443;-0.29500
4722221;-0.28500
4724999;-0.29000
4727776;-0.28000
4730554;-0.27000
4733332;-0.26500
4736110;-0.27000
4738888;-0.28000
4741665;-0.28000
4744443;-0.27000
4747221;-0.24000
4749999;-0.24500
4752776;-0.25000
4755554;-0.24500
4758332;-0.25000
4761110;-0.24500
4763888;-0.25000
4766665;-0.24500
4769443;-0.25000
4772221;-0.25000
4774999;-0.26000
4777776;-0.25500
4780554;-0.24000
4783332;-0.24500
4786110;-0.24500
4788888;-0.26500
4791665;-0.27000
4794443;-0.26000
4797221;-0.26500
4799999;-0.25500
4802776;-0.26000
4805554;-0.26500
4808332;-0.26500
4811110;-0.26000
4813888;-0.25000
4816665;-0.25500
4819443;-0.26000
4822221;-0.26000
4824999;-0.27000
4827776;-0.27000
4830554;-0.26000
4833332;-0.26000
4836110;-0.26500
4838888;-0.27500
4841665;-0.29000
4844443;-0.27500
4847221;-0.27000
4849999;-0.26000
4852776;-0.26500
4855554;-0.28000
4858332;-0.29500
4861110;-0.27500
4863888;-0.27000
4866665;-0.26500
4869443;-0.27500
4872221;-0.29000
4874999;-0.29500
4877776;-0.29500
4880554;-0.29000
4883332;-0.29500
4886110;-0.29000
4888888;-0.29000
4891665;-0.30000
4894443;-0.30500
4897221;-0.29000
4899999;-0.29000
4902776;-0.29000
4905554;-0.30500
4908332;-0.31000
4911110;-0.29500
4913888;-0.30000
4916665;-0.29000
4919443;-0.30000
4922221;-0.30000
4924999;-0.31000
4927776;-0.30000
4930554;-0.29000
4933332;-0.28500
4936110;-0.29500
4938888;-0.30000
4941665;-0.31500
4944443;-0.31000
4947221;-0.30500
4949999;-0.30000
4952776;-0.31000
4955554;-0.32000
4958332;-0.32000
4961110;-0.30500
4963887;-0.29000
4966665;-0.29500
4969443;-0.29500
4972221;-0.30000
4974999;-0.30000
4977776;-0.29500
4980554;-0.29000
4983332;-0.28500
4986110;-0.28000
4988887;-0.29500
4991665;-0.29500
4994443;-0.28500
4997221;-0.27000
4999999;-0.26000
5002776;-0.27500
5005554;-0.27500
5008332;-0.27500
5011110;-0.25000
5013887;-0.23500
5016665;-0.24000
5019443;-0.22500
5022221;-0.22500
5024999;-0.23000
5027776;-0.22500
5030554;-0.19500
5033332;-0.19500
5036110;-0.18500
5038887;-0.17500
5041665;-0.17500
5044443;-0.15500
5047221;-0.15500
5049999;-0.15000
5052776;-0.16000
5055554;-0.17500
5058332;-0.18000
5061110;-0.18000
5063887;-0.16500
5066665;-0.16000
5069443;-0.16500
5072221;-0.17000
5074999;-0.17000
5077776;-0.15000
5080554;-0.13000
5083332;-0.14500
5086110;-0.18000
5088887;-0.21500
5091665;-0.24000
5094443;-0.24000
5097221;-0.23500
5099999;-0.25500
5102776;-0.27000
5105554;-0.28500
5108332;-0.30500
5111110;-0.30500
5113887;-0.29500
5116665;-0.29000
5119443;-0.28000
5122221;-0.29500
5124999;-0.29500
5127776;-0.29000
5130554;-0.28000
5133332;-0.28000
5136110;-0.29500
5138887;-0.31500
5141665;-0.32000
5144443;-0.32000
5147221;-0.30000
5149999;-0.30000
5152776;-0.30500
5155554;-0.32000
5158332;-0.32000
5161110;-0.32000
5163887;-0.31500
5166665;-0.31000
5169443;-0.31500
5172221;-0.32500
5174999;-0.32000
5177776;-0.32000
5180554;-0.31000
5183332;-0.31000
5186110;-0.32000
5188887;-0.34500
5191665;-0.38000
5194443;-0.40500
5197221;-0.41500
5199999;-0.42000
5202776;-0.45500
5205554;-0.51000
5208332;-0.53000
5211110;-0.47000
5213887;-0.37000
5216665;-0.26500
5219443;-0.14000
5222221;0.01500
5224999;0.24500
5227776;0.50000
5230554;0.69500
5233332;0.79000
5236110;0.79000
5238887;0.64000
5241665;0.33000
5244443;-0.02500
5247221;-0.29500
5249999;-0.43500
5252776;-0.47000
5255554;-0.45000
5258332;-0.40000
5261110;-0.36500
5263887;-0.35000
5266665;-0.35000
5269443;-0.35500
5272221;-0.34500
5274999;-0.34500
5277776;-0.35000
5280554;-0.33000
5283332;-0.34000
5286110;-0.35000
5288887;-0.36000
5291665;-0.36500
5294443;-0.35000
5297221;-0.34500
5299999;-0.33000
5302776;-0.34500
5305554;-0.36000
5308332;-0.35500
5311110;-0.35500
5313887;-0.34500
5316665;-0.34000
5319443;-0.36000
5322221;-0.34500
5324999;-0.35000
5327776;-0.35000
5330554;-0.33000
5333332;-0.33000
5336110;-0.33000
5338887;-0.33500
5341665;-0.35000
5344443;-0.33000
5347221;-0.33000
5349999;-0.32500
5352776;-0.34000
5355554;-0.35000
5358332;-0.35000
5361110;-0.34500
5363887;-0.33500
5366665;-0.33000
5369443;-0.35000
5372221;-0.36000
5374998;-0.36500
5377776;-0.35500
5380554;-0.34000
5383332;-0.33000
5386110;-0.32500
5388887;-0.33500
5391665;-0.35000
5394443;-0.32500
5397221;-0.32000
5399998;-0.31500
5402776;-0.33000
5405554;-0.34000
5408332;-0.34000
5411110;-0.32500
5413887;-0.32500
5416665;-0.32500
5419443;-0.33000
5422221;-0.34000
5424998;-0.34500
5427776;-0.34000
5430554;-0.33000
5433332;-0.32000
5436110;-0.32500
5438887;-0.33000
5441665;-0.34000
5444443;-0.33500
5447221;-0.33000
5449998;-0.32500
5452776;-0.33000
5455554;-0.34000
5458332;-0.33500
5461110;-0.33500
5463887;-0.32000
5466665;-0.31500
5469443;-0.32500
5472221;-0.31500
5474998;-0.32500
5477776;-0.32000
5480554;-0.31000
5483332;-0.31500
5486110;-0.33000
5488887;-0.34000
5491665;-0.34000
5494443;-0.33000
5497221;-0.33500
5499998;-0.33500
5502776;-0.33000
5505554;-0.35000
5508332;-0.36000
5511110;-0.34500
5513887;-0.33500
5516665;-0.33500
5519443;-0.35000
5522221;-0.34500
5524998;-0.33500
5527776;-0.32000
5530554;-0.30500
5533332;-0.30000
5536110;-0.30500
5538887;-0.30500
5541665;-0.30000
5544443;-0.28000
5547221;-0.26000
5549998;-0.25500
5552776;-0.26500
5555554;-0.25500
5558332;-0.26500
5561110;-0.25500
5563887;-0.25000
5566665;-0.24000
5569443;-0.24500
5572221;-0.26000
5574998;-0.27000
5577776;-0.24500
5580554;-0.23500
5583332;-0.24500
5586110;-0.25000
5588887;-0.25000
5591665;-0.26000
5594443;-0.26000
5597221;-0.24500
5599998;-0.24000
5602776;-0.25500
5605554;-0.24500
5608332;-0.25500
5611110;-0.24000
5613887;-0.24000
5616665;-0.23500
5619443;-0.24500
5622221;-0.25000
5624998;-0.24500
5627776;-0.24500
5630554;-0.23500
5633332;-0.23500
5636110;-0.24000
5638887;-0.24500
5641665;-0.26000
5644443;-0.25000
5647221;-0.24500
5649998;-0.24500
5652776;-0.24500
5655554;-0.26000
5658332;-0.26000
5661110;-0.25500
5663887;-0.26000
5666665;-0.25000
5669443;-0.26000
5672221;-0.25500
5674998;-0.29500
5677776;-0.27000
5680554;-0.25500
5683332;-0.26000
5686110;-0.26500
5688887;-0.27500
5691665;-0.29000
5694443;-0.27000
5697221;-0.26000
5699998;-0.26000
5702776;-0.27000
5705554;-0.28500
5708332;-0.28500
5711110;-0.27000
5713887;-0.27000
5716665;-0.28000
5719443;-0.28000
5722221;-0.28500
5724998;-0.31000
5727776;-0.29500
5730554;-0.29500
5733332;-0.28000
5736110;-0.28000
5738887;-0.29000
5741665;-0.29000
5744443;-0.28000
5747221;-0.29500
5749998;-0.29000
5752776;-0.29500
5755554;-0.30000
5758332;-0.31000
5761109;-0.30500
5763887;-0.29000
5766665;-0.29500
5769443;-0.30500
5772221;-0.30000
5774998;-0.30000
5777776;-0.29000
5780554;-0.29000
5783332;-0.28000
5786109;-0.29000
5788887;-0.28500
5791665;-0.28500
5794443;-0.29000
5797221;-0.28000
5799998;-0.27500
5802776;-0.28000
5805554;-0.27500
5808332;-0.29500
5811109;-0.28000
5813887;-0.27000
5816665;-0.26500
5819443;-0.26500
5822221;-0.26000
5824998;-0.26500
5827776;-0.25500
5830554;-0.23500
5833332;-0.23000
5836109;-0.22500
5838887;-0.23000
5841665;-0.22000
5844443;-0.21000
5847221;-0.19500
5849998;-0.20000
5852776;-0.20500
5855554;-0.20000
5858332;-0.19500
5861109;-0.18500
5863887;-0.17000
5866665;-0.17500
5869443;-0.17000
5872221;-0.17500
5874998;-0.17000
5877776;-0.17000
5880554;-0.16000
5883332;-0.17500
5886109;-0.19000
5888887;-0.17500
5891665;-0.17500
5894443;-0.18500
5897221;-0.18000
5899998;-0.18000
5902776;-0.16500
5905554;-0.17500
5908332;-0.17500
5911109;-0.18500
5913887;-0.20500
5916665;-0.23000
5919443;-0.24500
5922221;-0.24000
5924998;-0.26000
5927776;-0.27000
5930554;-0.28000
5933332;-0.28000
5936109;-0.30000
5938887;-0.31000
5941665;-0.31000
5944443;-0.31000
5947221;-0.30000
5949998;-0.29500
5952776;-0.31000
5955554;-0.32000
5958332;-0.33000
5961109;-0.33000
5963887;-0.32500
5966665;-0.32500
5969443;-0.33000
5972221;-0.32500
5974998;-0.33500
5977776;-0.33500
5980554;-0.32000
5983332;-0.32000
5986109;-0.33000
5988887;-0.33000
5991665;-0.35000
5994443;-0.33500
5997221;-0.33500
5999998;-0.33500
6002776;-0.35500
6005554;-0.38000
6008332;-0.42500
6011109;-0.43500
6013887;-0.44500
6016665;-0.49500
6019443;-0.52500
6022221;-0.51000
6024998;-0.42500
6027776;-0.28500
6030554;-0.16000
6033332;0.01000
6036109;0.24500
6038887;0.49000
6041665;0.68000
6044443;0.79000
6047221;0.88000
6049998;0.97500
6052776;1.02000
6055554;1.02000
6058332;0.95000
6061109;0.76500
6063887;0.46000
6066665;0.10000
6069443;-0.21500
6072221;-0.40500
6074998;-0.47500
6077776;-0.46500
6080554;-0.43500
6083332;-0.40500
6086109;-0.38000
6088887;-0.40000
6091665;-0.40500
6094443;-0.39000
6097221;-0.38000
6099998;-0.38500
6102776;-0.37500
6105554;-0.39500
6108332;-0.40500
6111109;-0.39500
6113887;-0.38000
6116665;-0.37000
6119443;-0.37500
6122221;-0.38500
6124998;-0.39000
6127776;-0.38500
6130554;-0.38000
6133332;-0.37500
6136109;-0.39000
6138887;-0.39500
6141665;-0.40500
6144443;-0.39500
6147221;-0.39000
6149998;-0.37500
6152776;-0.39000
6155554;-0.39500
6158332;-0.40500
6161109;-0.39000
6163887;-0.39000
6166665;-0.39000
6169443;-0.39000
6172220;-0.39000
6174998;-0.40000
6177776;-0.40000
6180554;-0.40000
6183332;-0.39000
6186109;-0.40000
6188887;-0.40500
6191665;-0.41000
6194443;-0.40000
6197220;-0.37500
6199998;-0.38500
6202776;-0.39500
6205554;-0.39500
6208332;-0.40500
6211109;-0.40000
6213887;-0.39000
6216665;-0.38500
6219443;-0.39500
6222220;-0.40000
6224998;-0.40000
6227776;-0.39500
6230554;-0.38000
6233332;-0.37500
6236109;-0.40000
6238887;-0.39500
6241665;-0.40000
6244443;-0.38500
6247220;-0.38000
6249998;-0.38500
6252776;-0.39000
6255554;-0.40500
6258332;-0.41000
6261109;-0.40000
6263887;-0.37500
6266665;-0.38000
6269443;-0.39000
6272220;-0.39500
6274998;-0.41000
6277776;-0.39000
6280554;-0.39500
6283332;-0.39000
6286109;-0.39000
6288887;-0.41500
6291665;-0.39500
6294443;-0.40000
6297220;-0.40000
6299998;-0.40000
6302776;-0.43000
6305554;-0.43000
6308332;-0.44000
6311109;-0.43000
6313887;-0.41500
6316665;-0.43000
6319443;-0.42500
6322220;-0.45000
6324998;-0.45000
6327776;-0.43000
6330554;-0.42000
6333332;-0.42500
6336109;-0.43000
6338887;-0.44500
6341665;-0.46000
6344443;-0.44500
6347220;-0.44500
6349998;-0.43500
6352776;-0.43000
6355554;-0.41500
6358332;-0.40500
6361109;-0.39500
6363887;-0.37500
6366665;-0.36500
6369443;-0.35500
6372220;-0.34500
6374998;-0.34500
6377776;-0.32000
6380554;-0.30000
6383332;-0.29500
6386109;-0.29000
6388887;-0.28000
6391665;-0.29000
6394443;-0.28000
6397220;-0.27000
6399998;-0.27000
6402776;-0.26500
6405554;-0.27500
6408332;-0.28500
6411109;-0.26000
6413887;-0.26000
6416665;-0.26000
6419443;-0.26000
6422220;-0.27500
6424998;-0.28500
6427776;-0.26500
6430554;-0.26000
6433332;-0.25000
6436109;-0.25000
6438887;-0.27000
6441665;-0.26000
6444443;-0.26000
6447220;-0.26000
6449998;-0.26500
6452776;-0.27000
6455554;-0.27500
6458332;-0.28500
6461109;-0.27000
6463887;-0.27000
6466665;-0.27500
6469443;-0.28000
6472220;-0.28500
6474998;-0.29500
6477776;-0.28000
6480554;-0.27500
6483332;-0.27500
6486109;-0.28500
6488887;-0.30000
6491665;-0.30500
6494443;-0.29500
6497220;-0.28000
6499998;-0.28500
6502776;-0.29000
6505554;-0.28500
6508332;-0.30000
6511109;-0.28500
6513887;-0.27000
6516665;-0.27500
6519443;-0.28000
6522220;-0.29500
6524998;-0.30000
6527776;-0.30000
6530554;-0.30000
6533332;-0.29500
6536109;-0.30000
6538887;-0.30500
6541665;-0.32000
6544443;-0.30500
6547220;-0.31000
6549998;-0.30000
6552776;-0.31000
6555554;-0.31500
6558331;-0.31500
6561109;-0.32000
6563887;-0.31000
6566665;-0.30000
6569443;-0.30500
6572220;-0.31500
6574998;-0.31500
6577776;-0.32000
6580554;-0.30500
6583331;-0.30000
6586109;-0.30000
6588887;-0.30000
6591665;-0.31000
6594443;-0.30000
6597220;-0.29500
6599998;-0.29000
6602776;-0.29000
6605554;-0.30500
6608331;-0.30500
6611109;-0.30500
6613887;-0.30500
6616665;-0.28500
6619443;-0.29500
6622220;-0.29500
6624998;-0.29500
6627776;-0.28000
6630554;-0.25500
6633331;-0.24500
6636109;-0.24500
6638887;-0.24000
6641665;-0.23500
6644443;-0.21500
6647220;-0.21000
6649998;-0.20000
6652776;-0.20500
6655554;-0.20000
6658331;-0.21000
6661109;-0.19500
6663887;-0.18000
6666665;-0.18500
6669443;-0.20000
6672220;-0.19000
6674998;-0.19000
6677776;-0.18500
6680554;-0.16000
6683331;-0.16500
6686109;-0.17500
6688887;-0.19500
6691665;-0.20000
6694443;-0.19500
6697220;-0.18000
6699998;-0.17500
6702776;-0.18000
6705554;-0.19000
6708331;-0.17000
6711109;-0.14500
6713887;-0.14500
6716665;-0.17500
6719443;-0.22000
6722220;-0.23500
6724998;-0.25000
6727776;-0.24500
6730554;-0.26000
6733331;-0.26500
6736109;-0.27500
6738887;-0.29500
6741665;-0.31500
6744443;-0.29000
6747220;-0.27500
6749998;-0.27500
6752776;-0.29500
6755554;-0.30500
6758331;-0.30500
6761109;-0.30000
6763887;-0.30000
6766665;-0.29500
6769443;-0.31500
6772220;-0.32500
6774998;-0.31500
6777776;-0.31000
6780554;-0.30000
6783331;-0.30000
6786109;-0.30000
6788887;-0.30500
6791665;-0.32000
6794443;-0.31000
6797220;-0.30500
6799998;-0.31000
6802776;-0.34000
6805554;-0.38000
6808331;-0.42500
6811109;-0.43500
6813887;-0.45500
6816665;-0.49000
6819443;-0.50000
6822220;-0.44500
6824998;-0.34500
6827776;-0.20000
6830554;-0.06500
6833331;0.11500
6836109;0.33500
6838887;0.57000
6841665;0.74500
6844443;0.86500
6847220;0.95000
6849998;1.01500
6852776;1.02000
6855554;0.89500
6858331;0.56500
6861109;0.15000
6863887;-0.19000
6866665;-0.38500
6869443;-0.45000
6872220;-0.42500
6874998;-0.39000
6877776;-0.34000
6880554;-0.33000
6883331;-0.32500
6886109;-0.34000
6888887;-0.34000
6891665;-0.34000
6894443;-0.34500
6897220;-0.34000
6899998;-0.34000
6902776;-0.34000
6905554;-0.35000
6908331;-0.35500
6911109;-0.35000
6913887;-0.34000
6916665;-0.33000
6919443;-0.33500
6922220;-0.35000
6924998;-0.36500
6927776;-0.36000
6930554;-0.35000
6933331;-0.33500
6936109;-0.35000
6938887;-0.34500
6941665;-0.34000
6944442;-0.34500
6947220;-0.33500
6949998;-0.33000
6952776;-0.33500
6955554;-0.34000
6958331;-0.34500
6961109;-0.34000
6963887;-0.33500
6966665;-0.33000
6969442;-0.33500
6972220;-0.34500
6974998;-0.36000
6977776;-0.36000
6980554;-0.34500
6983331;-0.35000
6986109;-0.35000
6988887;-0.36000
6991665;-0.35000
6994442;-0.35500
6997220;-0.35000
6999998;-0.34500
7002776;-0.33500
7005554;-0.34000
7008331;-0.35000
7011109;-0.34000
7013887;-0.34000
7016665;-0.34500
7019442;-0.35000
7022220;-0.35000
7024998;-0.36000
7027776;-0.35000
7030554;-0.33500
7033331;-0.33500
7036109;-0.34500
7038887;-0.35000
7041665;-0.35500
7044442;-0.35000
7047220;-0.35000
7049998;-0.35000
7052776;-0.36000
7055554;-0.35500
7058331;-0.36000
7061109;-0.35000
7063887;-0.34000
7066665;-0.35000
7069442;-0.35000
7072220;-0.35000
7074998;-0.35000
7077776;-0.36500
7080554;-0.34500
7083331;-0.34500
7086109;-0.35000
7088887;-0.36000
7091665;-0.36500
7094442;-0.36500
7097220;-0.36000
7099998;-0.34500
7102776;-0.36000
7105554;-0.37000
7108331;-0.37500
7111109;-0.36500
7113887;-0.35000
7116665;-0.35000
7119442;-0.35000
7122220;-0.34500
7124998;-0.35000
7127776;-0.34000
7130554;-0.32000
7133331;-0.31000
7136109;-0.30000
7138887;-0.29500
7141665;-0.28500
7144442;-0.26500
7147220;-0.25500
7149998;-0.25000
7152776;-0.25000
7155554;-0.25000
7158331;-0.24500
7161109;-0.23000
7163887;-0.22000
7166665;-0.22000
7169442;-0.21000
7172220;-0.22500
7174998;-0.23500
7177776;-0.22500
7180554;-0.21500
7183331;-0.21500
7186109;-0.21500
7188887;-0.22000
7191665;-0.22500
7194442;-0.22000
7197220;-0.22000
7199998;-0.21500
7202776;-0.22000
7205554;-0.22000
7208331;-0.23000
7211109;-0.22000
7213887;-0.21000
7216665;-0.20500
7219442;-0.22000
7222220;-0.22500
7224998;-0.22500
7227776;-0.22000
7230554;-0.22000
7233331;-0.23500
7236109;-0.22500
7238887;-0.23000
7241665;-0.23000
7244442;-0.22500
7247220;-0.23000
7249998;-0.21500
7252776;-0.23000
7255554;-0.23500
7258331;-0.24500
7261109;-0.23500
7263887;-0.23500
7266665;-0.22500
7269442;-0.24000
7272220;-0.24000
7274998;-0.25500
7277776;-0.24000
7280554;-0.24500
7283331;-0.23500
7286109;-0.25000
7288887;-0.25500
7291665;-0.27500
7294442;-0.26000
7297220;-0.25000
7299998;-0.24500
7302776;-0.25500
7305554;-0.25500
7308331;-0.27000
7311109;-0.26500
7313887;-0.25500
7316665;-0.25500
7319442;-0.25500
7322220;-0.26000
7324998;-0.26500
7327776;-0.26500
7330554;-0.25500
7333331;-0.25000
7336109;-0.26000
7338887;-0.26500
7341665;-0.27500
7344442;-0.26500
7347220;-0.25500
7349998;-0.25000
7352776;-0.26000
7355553;-0.25500
7358331;-0.26000
7361109;-0.24500
7363887;-0.24000
7366665;-0.23500
7369442;-0.24000
7372220;-0.25000
7374998;-0.25000
7377776;-0.24500
7380553;-0.22500
7383331;-0.23000
7386109;-0.23000
7388887;-0.24000
7391665;-0.23000
7394442;-0.21500
7397220;-0.19500
7399998;-0.18500
7402776;-0.19500
7405553;-0.18500
7408331;-0.18500
7411109;-0.17500
7413887;-0.16500
7416665;-0.16500
7419442;-0.16500
7422220;-0.16000
7424998;-0.16000
7427776;-0.13000
7430553;-0.12000
7433331;-0.12000
7436109;-0.11500
7438887;-0.14000
7441665;-0.15500
7444442;-0.14000
7447220;-0.13000
7449998;-0.13500
7452776;-0.12000
7455553;-0.12000
7458331;-0.12000
7461109;-0.10000
7463887;-0.10500
7466665;-0.14500
7469442;-0.18000
7472220;-0.19500
7474998;-0.22000
7477776;-0.23000
7480553;-0.23000
7483331;-0.23000
7486109;-0.24500
7488887;-0.27500
7491665;-0.27500
7494442;-0.27500
7497220;-0.26000
7499998;-0.25000
7502776;-0.26000
7505553;-0.27000
7508331;-0.28000
7511109;-0.27000
7513887;-0.27000
7516665;-0.26500
7519442;-0.28000
7522220;-0.29000
7524998;-0.29500
7527776;-0.28500
7530553;-0.28000
7533331;-0.28000
7536109;-0.28500
7538887;-0.30500
7541665;-0.30000
7544442;-0.28500
7547220;-0.28500
7549998;-0.27000
7552776;-0.29500
7555553;-0.31500
7558331;-0.36500
7561109;-0.39500
7563887;-0.39500
7566665;-0.42500
7569442;-0.47000
7572220;-0.48500
7574998;-0.43500
7577776;-0.31500
7580553;-0.18000
7583331;-0.04500
7586109;0.14000
7588887;0.41500
7591665;0.67000
7594442;0.85500
7597220;0.91000
7599998;0.78500
7602776;0.46500
7605553;0.04500
7608331;-0.30000
7611109;-0.46500
7613887;-0.47500
7616665;-0.43000
7619442;-0.38000
7622220;-0.34000
7624998;-0.33500
7627776;-0.33500
7630553;-0.32000
7633331;-0.32000
7636109;-0.32000
7638887;-0.33500
7641665;-0.35500
7644442;-0.33000
7647220;-0.32000
7649998;-0.33000
7652776;-0.33000
7655553;-0.34000
7658331;-0.34500
7661109;-0.34000
7663887;-0.33500
7666665;-0.33000
7669442;-0.34000
7672220;-0.34000
7674998;-0.34000
7677776;-0.34000
7680553;-0.33000
7683331;-0.32500
7686109;-0.34000
7688887;-0.33000
7691665;-0.34500
7694442;-0.34000
7697220;-0.33000
7699998;-0.33000
7702776;-0.33000
7705553;-0.32500
7708331;-0.33000
7711109;-0.32000
7713887;-0.32000
7716665;-0.31500
7719442;-0.32500
7722220;-0.32500
7724998;-0.33500
7727776;-0.32500
7730553;-0.32500
7733331;-0.32000
7736109;-0.31500
7738887;-0.32000
7741664;-0.33500
7744442;-0.32500
7747220;-0.31500
7749998;-0.32500
7752776;-0.32000
7755553;-0.32000
7758331;-0.32500
7761109;-0.32000
7763887;-0.31500
7766664;-0.31500
7769442;-0.31500
7772220;-0.31500
7774998;-0.32500
7777776;-0.31500
7780553;-0.31500
7783331;-0.31000
7786109;-0.31000
7788887;-0.31500
7791664;-0.33000
7794442;-0.31500
7797220;-0.30500
7799998;-0.31000
7802776;-0.31500
7805553;-0.31500
7808331;-0.32000
7811109;-0.31000
7813887;-0.30500
7816664;-0.31000
7819442;-0.31000
7822220;-0.31500
7824998;-0.30500
7827776;-0.31000
7830553;-0.30500
7833331;-0.30500
7836109;-0.30500
7838887;-0.30500
7841664;-0.31500
7844442;-0.31500
7847220;-0.30000
7849998;-0.29500
7852776;-0.31000
7855553;-0.32000
7858331;-0.32500
7861109;-0.31000
7863887;-0.29500
7866664;-0.29500
7869442;-0.31500
7872220;-0.32500
7874998;-0.31500
7877776;-0.30500
7880553;-0.29000
7883331;-0.28000
7886109;-0.27500
7888887;-0.27500
7891664;-0.28000
7894442;-0.25500
7897220;-0.24500
7899998;-0.24000
7902776;-0.23000
7905553;-0.23500
7908331;-0.23500
7911109;-0.22000
7913887;-0.21500
7916664;-0.20500
7919442;-0.21000
7922220;-0.21500
7924998;-0.22500
7927776;-0.22000
7930553;-0.21000
7933331;-0.20000
7936109;-0.20500
7938887;-0.21500
7941664;-0.21500
7944442;-0.21500
7947220;-0.21000
7949998;-0.21000
7952776;-0.22500
7955553;-0.23000
7958331;-0.23000
7961109;-0.24000
7963887;-0.22000
7966664;-0.22000
7969442;-0.21500
7972220;-0.21500
7974998;-0.23000
7977776;-0.22500
7980553;-0.21500
7983331;-0.21000
7986109;-0.22000
7988887;-0.22500
7991664;-0.22500
7994442;-0.23000
7997220;-0.21500
7999998;-0.21000
8002776;-0.23000
8005553;-0.23500
8008331;-0.24500
8011109;-0.23000
8013887;-0.22500
8016664;-0.23000
8019442;-0.23500
8022220;-0.25000
8024998;-0.26000
8027776;-0.25500
8030553;-0.25000
8033331;-0.25000
8036109;-0.25000
8038887;-0.25000
8041664;-0.25500
8044442;-0.24500
8047220;-0.24000
8049998;-0.23000
8052776;-0.24500
8055553;-0.25500
8058331;-0.25500
8061109;-0.25000
8063887;-0.24000
8066664;-0.23500
8069442;-0.25000
8072220;-0.25000
8074998;-0.26000
8077776;-0.26500
8080553;-0.25000
8083331;-0.24500
8086109;-0.24500
8088887;-0.25500
8091664;-0.26000
8094442;-0.25000
8097220;-0.26000
8099998;-0.24500
8102776;-0.26000
8105553;-0.25000
8108331;-0.26500
8111109;-0.25000
8113887;-0.24500
8116664;-0.25000
8119442;-0.25500
8122220;-0.25500
8124998;-0.25500
8127776;-0.25000
8130553;-0.24500
8133331;-0.24500
8136109;-0.24000
8138887;-0.24500
8141664;-0.26000
8144442;-0.25000
8147220;-0.23500
8149998;-0.23000
8152775;-0.22500
8155553;-0.22500
8158331;-0.22000
8161109;-0.22000
8163887;-0.21500
8166664;-0.19000
8169442;-0.18000
8172220;-0.17500
8174998;-0.19000
8177775;-0.17500
8180553;-0.15000
8183331;-0.14500
8186109;-0.14500
8188887;-0.13000
8191664;-0.14000
8194442;-0.13000
8197220;-0.12000
8199998;-0.13500
8202775;-0.14000
8205553;-0.15000
8208331;-0.14000
8211109;-0.13000
8213887;-0.12000
8216664;-0.12500
8219442;-0.12000
8222220;-0.10500
8224998;-0.11000
8227775;-0.10500
8230553;-0.13000
8233331;-0.16500
8236109;-0.17500
8238887;-0.18500
8241664;-0.19500
8244442;-0.21000
8247220;-0.22000
8249998;-0.22000
8252775;-0.25000
8255553;-0.26000
8258331;-0.26500
8261109;-0.25000
8263887;-0.24500
8266664;-0.24500
8269442;-0.25000
8272220;-0.27000
8274998;-0.26500
8277775;-0.26500
8280553;-0.26000
8283331;-0.25500
8286109;-0.26000
8288887;-0.27500
8291664;-0.27500
8294442;-0.28500
8297220;-0.26000
8299998;-0.26000
8302775;-0.27500
8305553;-0.28500
8308331;-0.29000
8311109;-0.30000
8313887;-0.28500
8316664;-0.30000
8319442;-0.34000
8322220;-0.38000
8324998;-0.42000
8327775;-0.44000
8330553;-0.47000
8333331;-0.49000
8336109;-0.44000
8338887;-0.35500
8341664;-0.22000
8344442;-0.03000
8347220;0.19500
8349998;0.47000
8352775;0.71000
8355553;0.85000
8358331;0.85000
8361109;0.69000
8363887;0.37500
8366664;0.00000
8369442;-0.30000
8372220;-0.44500
8374998;-0.46000
8377775;-0.41000
8380553;-0.36500
8383331;-0.33500
8386109;-0.34000
8388887;-0.34000
8391664;-0.34000
8394442;-0.34000
8397220;-0.32500
8399998;-0.32500
8402775;-0.32500
8405553;-0.33500
8408331;-0.33500
8411109;-0.33000
8413887;-0.32500
8416664;-0.32000
8419442;-0.32000
8422220;-0.33500
8424998;-0.33500
8427775;-0.33000
8430553;-0.31000
8433331;-0.31500
8436109;-0.32000
8438887;-0.33000
8441664;-0.33500
8444442;-0.32500
8447220;-0.32500
8449998;-0.33000
8452775;-0.32500
8455553;-0.33000
8458331;-0.34500
8461109;-0.33000
8463887;-0.32500
8466664;-0.33000
8469442;-0.32500
8472220;-0.33500
8474998;-0.33500
8477775;-0.34000
8480553;-0.32500
8483331;-0.33000
8486109;-0.33000
8488887;-0.33000
8491664;-0.33000
8494442;-0.32000
8497220;-0.33000
8499998;-0.32500
8502775;-0.33000
8505553;-0.33000
8508331;-0.33000
8511109;-0.33500
8513887;-0.33000
8516664;-0.32500
8519442;-0.32500
8522220;-0.34000
8524998;-0.33500
8527775;-0.33000
8530553;-0.32500
8533331;-0.32000
8536109;-0.33000
8538886;-0.33500
8541664;-0.33500
8544442;-0.32000
8547220;-0.31500
8549998;-0.31000
8552775;-0.31500
8555553;-0.32500
8558331;-0.32500
8561109;-0.31500
8563886;-0.31000
8566664;-0.31000
8569442;-0.30500
8572220;-0.32000
8574998;-0.33500
8577775;-0.32000
8580553;-0.32500
8583331;-0.32000
8586109;-0.32000
8588886;-0.33500
8591664;-0.33500
8594442;-0.33000
8597220;-0.32500
8599998;-0.33000
8602775;-0.33500
8605553;-0.35500
8608331;-0.36000
8611109;-0.33500
8613886;-0.33500
8616664;-0.33500
8619442;-0.32500
8622220;-0.32500
8624998;-0.33500
8627775;-0.32500
8630553;-0.32000
8633331;-0.31000
8636109;-0.30500
8638886;-0.30000
8641664;-0.31000
8644442;-0.29500
8647220;-0.26500
8649998;-0.25500
8652775;-0.26000
8655553;-0.25500
8658331;-0.26500
8661109;-0.25000
8663886;-0.25500
8666664;-0.24000
8669442;-0.23000
8672220;-0.25500
8674998;-0.24500
8677775;-0.23000
8680553;-0.23500
8683331;-0.23000
8686109;-0.23000
8688886;-0.22500
8691664;-0.24500
8694442;-0.24000
8697220;-0.22500
8699998;-0.22500
8702775;-0.23000
8705553;-0.23000
8708331;-0.24000
8711109;-0.23000
8713886;-0.23000
8716664;-0.23500
8719442;-0.23500
8722220;-0.24500
8724998;-0.25000
8727775;-0.24500
8730553;-0.22500
8733331;-0.21500
8736109;-0.23000
8738886;-0.24500
8741664;-0.24500
8744442;-0.25500
8747220;-0.24500
8749998;-0.24000
8752775;-0.25000
8755553;-0.27000
8758331;-0.28000
8761109;-0.27000
8763886;-0.25500
8766664;-0.25500
8769442;-0.25000
8772220;-0.26500
8774998;-0.28000
8777775;-0.29000
8780553;-0.26500
8783331;-0.27000
8786109;-0.26500
8788886;-0.25500
8791664;-0.27500
8794442;-0.26500
8797220;-0.26000
8799998;-0.26500
8802775;-0.28000
8805553;-0.28500
8808331;-0.29000
8811109;-0.28500
8813886;-0.27500
8816664;-0.27500
8819442;-0.29000
8822220;-0.29000
8824998;-0.30000
8827775;-0.27500
8830553;-0.27500
8833331;-0.28000
8836109;-0.28500
8838886;-0.29000
8841664;-0.31000
8844442;-0.29500
8847220;-0.28500
8849998;-0.29000
8852775;-0.29000
8855553;-0.28500
8858331;-0.29500
8861109;-0.30000
8863886;-0.28000
8866664;-0.29000
8869442;-0.30000
8872220;-0.31000
8874998;-0.31000
8877775;-0.28500
8880553;-0.27000
8883331;-0.27500
8886109;-0.27500
8888886;-0.28000
8891664;-0.29500
8894442;-0.29000
8897220;-0.28000
8899998;-0.27000
8902775;-0.29000
8905553;-0.29500
8908331;-0.30500
8911109;-0.29500
8913886;-0.27500
8916664;-0.26000
8919442;-0.26500
8922220;-0.27500
8924998;-0.28500
8927775;-0.26500
8930553;-0.24500
8933331;-0.23500
8936109;-0.25000
8938886;-0.24500
8941664;-0.25000
8944442;-0.23500
8947220;-0.22500
8949997;-0.20500
8952775;-0.21000
8955553;-0.20000
8958331;-0.19500
8961109;-0.19000
8963886;-0.19000
8966664;-0.18000
8969442;-0.17500
8972220;-0.18000
8974997;-0.19000
8977775;-0.17000
8980553;-0.17500
8983331;-0.17500
8986109;-0.19500
8988886;-0.20500
8991664;-0.19000
8994442;-0.18000
8997220;-0.16000
8999997;-0.16500
9002775;-0.16000
9005553;-0.15500
9008331;-0.15500
9011109;-0.18000
9013886;-0.20500
9016664;-0.21000
9019442;-0.22000
9022220;-0.25000
9024997;-0.27500
9027775;-0.29000
9030553;-0.30000
9033331;-0.31000
9036109;-0.31500
9038886;-0.31500
9041664;-0.32000
9044442;-0.33000
9047220;-0.30500
9049997;-0.32500
9052775;-0.31500
9055553;-0.32000
9058331;-0.33000
9061109;-0.33000
9063886;-0.32500
9066664;-0.32000
9069442;-0.32500
9072220;-0.34000
9074997;-0.33000
9077775;-0.31500
9080553;-0.31000
9083331;-0.30000
9086109;-0.31500
9088886;-0.33000
9091664;-0.33500
9094442;-0.35000
9097220;-0.36500
9099997;-0.41000
9102775;-0.43500
9105553;-0.47000
9108331;-0.52500
9111109;-0.53000
9113886;-0.47000
9116664;-0.36500
9119442;-0.21000
9122220;-0.05000
9124997;0.14500
9127775;0.41000
9130553;0.65000
9133331;0.81500
9136109;0.90500
9138886;0.97500
9141664;1.05000
9144442;1.09500
9147220;1.03500
9149997;0.88000
9152775;0.58000
9155553;0.25500
9158331;-0.06000
9161109;-0.30500
9163886;-0.43500
9166664;-0.47500
9169442;-0.46500
9172220;-0.43000
9174997;-0.40500
9177775;-0.39000
9180553;-0.37500
9183331;-0.37500
9186109;-0.38000
9188886;-0.38000
9191664;-0.39000
9194442;-0.37500
9197220;-0.37000
9199997;-0.37000
9202775;-0.38500
9205553;-0.39000
9208331;-0.39500
9211109;-0.38500
9213886;-0.37500
9216664;-0.37500
9219442;-0.37000
9222220;-0.38000
9224997;-0.39000
9227775;-0.39000
9230553;-0.37500
9233331;-0.37000
9236109;-0.37500
9238886;-0.39000
9241664;-0.39500
9244442;-0.38500
9247220;-0.38500
9249997;-0.39000
9252775;-0.39500
9255553;-0.39500
9258331;-0.39500
9261109;-0.39000
9263886;-0.38000
9266664;-0.37000
9269442;-0.38000
9272220;-0.38000
9274997;-0.40500
9277775;-0.38500
9280553;-0.37500
9283331;-0.37000
9286109;-0.37000
9288886;-0.39000
9291664;-0.39500
9294442;-0.38500
9297220;-0.37500
9299997;-0.38000
9302775;-0.40000
9305553;-0.40000
9308331;-0.41000
9311109;-0.39000
9313886;-0.39000
9316664;-0.38500
9319442;-0.39000
9322220;-0.39000
9324997;-0.40500
9327775;-0.39000
9330553;-0.38000
9333331;-0.37500
9336108;-0.38000
9338886;-0.39000
9341664;-0.39000
9344442;-0.38000
9347220;-0.38500
9349997;-0.38000
9352775;-0.37500
9355553;-0.39500
9358331;-0.40500
9361108;-0.39000
9363886;-0.39000
9366664;-0.40000
9369442;-0.40500
9372220;-0.41000
9374997;-0.42500
9377775;-0.42500
9380553;-0.41500
9383331;-0.41000
9386108;-0.43000
9388886;-0.44000
9391664;-0.44000
9394442;-0.43500
9397220;-0.43500
9399997;-0.42000
9402775;-0.44500
9405553;-0.44000
9408331;-0.43500
9411108;-0.43000
9413886;-0.42000
9416664;-0.41000
9419442;-0.40500
9422220;-0.40500
9424997;-0.40000
9427775;-0.38000
9430553;-0.36500
9433331;-0.36500
9436108;-0.36000
9438886;-0.36000
9441664;-0.36000
9444442;-0.33500
9447220;-0.32000
9449997;-0.30500
9452775;-0.29500
9455553;-0.30500
9458331;-0.30000
9461108;-0.28500
9463886;-0.27000
9466664;-0.26500
9469442;-0.26500
9472220;-0.26500
9474997;-0.27500
9477775;-0.25500
9480553;-0.25500
9483331;-0.24500
9486108;-0.24500
9488886;-0.26500
9491664;-0.26000
9494442;-0.26000
9497220;-0.25000
9499997;-0.24000
9502775;-0.25000
9505553;-0.26000
9508331;-0.27000
9511108;-0.26000
9513886;-0.25500
9516664;-0.25000
9519442;-0.25500
9522220;-0.25000
9524997;-0.26500
9527775;-0.26500
9530553;-0.25500
9533331;-0.25000
9536108;-0.26000
9538886;-0.27000
9541664;-0.28000
9544442;-0.27500
9547220;-0.26500
9549997;-0.26500
9552775;-0.26500
9555553;-0.26500
9558331;-0.28500
9561108;-0.28500
9563886;-0.27000
9566664;-0.27500
9569442;-0.28000
9572220;-0.28500
9574997;-0.28000
9577775;-0.28000
9580553;-0.27000
9583331;-0.27500
9586108;-0.27500
9588886;-0.29500
9591664;-0.29500
9594442;-0.30000
9597220;-0.29000
9599997;-0.29500
9602775;-0.31000
9605553;-0.30000
9608331;-0.30000
9611108;-0.29500
9613886;-0.29000
9616664;-0.27000
9619442;-0.27500
9622220;-0.28000
9624997;-0.29500
9627775;-0.29000
9630553;-0.29000
9633331;-0.28500
9636108;-0.29000
9638886;-0.29000
9641664;-0.30000
9644442;-0.29000
9647220;-0.28500
9649997;-0.26500
9652775;-0.27500
9655553;-0.28500
9658331;-0.30500
9661108;-0.28500
9663886;-0.27500
9666664;-0.27500
9669442;-0.29000
9672220;-0.28500
9674997;-0.30500
9677775;-0.29000
9680553;-0.28000
9683331;-0.29000
9686108;-0.27500
9688886;-0.28500
9691664;-0.28500
9694442;-0.27000
9697220;-0.27000
9699997;-0.27000
9702775;-0.27000
9705553;-0.26000
9708331;-0.26000
9711108;-0.23000
9713886;-0.24500
9716664;-0.22500
9719442;-0.23000
9722220;-0.24000
9724997;-0.23000
9727775;-0.22000
9730553;-0.21000
9733331;-0.21000
9736108;-0.20000
9738886;-0.20500
9741664;-0.21500
9744442;-0.20500
9747219;-0.19000
9749997;-0.17500
9752775;-0.17000
9755553;-0.18000
9758331;-0.18000
9761108;-0.17000
9763886;-0.16000
9766664;-0.16000
9769442;-0.17000
9772219;-0.18000
9774997;-0.18500
9777775;-0.18000
9780553;-0.16500
9783331;-0.17000
9786108;-0.16000
9788886;-0.15500
9791664;-0.14500
9794442;-0.15000
9797219;-0.17000
9799997;-0.21000
9802775;-0.23000
9805553;-0.24500
9808331;-0.26500
9811108;-0.27500
9813886;-0.27000
9816664;-0.27500
9819442;-0.28000
9822219;-0.29500
9824997;-0.30500
9827775;-0.29500
9830553;-0.29000
9833331;-0.29000
9836108;-0.30000
9838886;-0.31500
9841664;-0.32500
9844442;-0.32000
9847219;-0.31500
9849997;-0.30500
9852775;-0.31500
9855553;-0.32000
9858331;-0.33500
9861108;-0.32000
9863886;-0.31500
9866664;-0.32000
9869442;-0.33000
9872219;-0.32500
9874997;-0.32500
9877775;-0.33500
9880553;-0.33000
9883331;-0.34500
9886108;-0.38500
9888886;-0.43000
9891664;-0.46000
9894442;-0.44000
9897219;-0.46000
9899997;-0.51500
9902775;-0.55000
9905553;-0.56000
9908331;-0.52500
9911108;-0.43000
9913886;-0.30000
9916664;-0.14000
9919442;0.04500
9922219;0.29000
9924997;0.56000
9927775;0.79500
9930553;0.92500
9933331;0.89500
9936108;0.66500
9938886;0.26500
9941664;-0.15500
9944442;-0.41500
9947219;-0.49500
9949997;-0.46000
9952775;-0.40000
9955553;-0.36500
9958331;-0.37500
9961108;-0.36500
9963886;-0.36500
9966664;-0.35500
9969442;-0.36000
9972219;-0.36500
9974997;-0.37500
9977775;-0.37000
9980553;-0.35500
9983331;-0.36500
9986108;-0.36000
9988886;-0.37500
9991664;-0.37500
9994442;-0.37500
9997219;-0.37000
9999997;-0.36500
10002775;-0.37500
10005553;-0.37500
10008331;-0.38000
10011108;-0.37000
10013886;-0.37000
10016664;-0.37000
10019442;-0.37000
10022219;-0.37500
10024997;-0.37000
10027775;-0.37000
10030553;-0.36000
10033331;-0.36500
10036108;-0.36500
10038886;-0.36500
10041664;-0.37500
10044442;-0.36500
10047219;-0.36000
10049997;-0.36000
10052775;-0.35500
10055553;-0.36500
10058331;-0.38500
10061108;-0.37000
10063886;-0.35500
10066664;-0.36000
10069442;-0.37000
10072219;-0.36000
10074997;-0.37000
10077775;-0.37000
10080553;-0.36500
10083331;-0.36500
10086108;-0.35500
10088886;-0.36500
10091664;-0.37000
10094442;-0.35000
10097219;-0.34500
10099997;-0.34500
10102775;-0.34500
10105553;-0.35500
10108331;-0.36500
10111108;-0.35500
10113886;-0.35500
10116664;-0.36000
10119442;-0.34500
10122219;-0.35500
10124997;-0.37500
10127775;-0.35500
10130553;-0.35500
10133330;-0.34500
10136108;-0.34500
10138886;-0.36000
10141664;-0.36000
10144442;-0.35500
10147219;-0.34500
10149997;-0.35000
10152775;-0.35500
10155553;-0.35500
10158330;-0.36000
10161108;-0.36000
10163886;-0.35000
10166664;-0.34500
10169442;-0.35500
10172219;-0.35500
10174997;-0.36000
10177775;-0.36000
10180553;-0.35500
10183330;-0.34500
10186108;-0.35000
10188886;-0.36000
10191664;-0.36000
10194442;-0.36000
10197219;-0.35500
10199997;-0.35500
10202775;-0.34000
10205553;-0.35000
10208330;-0.34500
10211108;-0.33000
10213886;-0.31500
10216664;-0.30500
10219442;-0.29000
10222219;-0.32000
10224997;-0.30500
10227775;-0.28500
10230553;-0.27500
10233330;-0.26000
10236108;-0.26500
10238886;-0.27500
10241664;-0.27000
10244442;-0.27000
10247219;-0.25000
10249997;-0.25500
10252775;-0.26000
10255553;-0.25000
10258330;-0.26000
10261108;-0.25000
10263886;-0.24000
10266664;-0.24500
10269442;-0.24000
10272219;-0.25500
10274997;-0.27000
10277775;-0.26500
10280553;-0.25000
10283330;-0.24500
10286108;-0.25000
10288886;-0.27000
10291664;-0.27500
10294442;-0.26500
10297219;-0.25000
10299997;-0.25500
10302775;-0.25500
10305553;-0.25000
10308330;-0.28000
10311108;-0.26500
10313886;-0.25500
10316664;-0.25000
10319442;-0.27000
10322219;-0.27500
10324997;-0.27500
10327775;-0.27000
10330553;-0.27500
10333330;-0.27000
10336108;-0.26500
10338886;-0.27500
10341664;-0.28500
10344442;-0.29000
10347219;-0.27500
10349997;-0.27000
10352775;-0.27500
10355553;-0.28000
10358330;-0.29500
10361108;-0.29500
10363886;-0.28000
10366664;-0.28000
10369442;-0.29000
10372219;-0.28500
10374997;-0.29500
10377775;-0.29000
10380553;-0.28000
10383330;-0.27500
10386108;-0.28500
10388886;-0.29000
10391664;-0.29500
10394442;-0.29000
10397219;-0.28500
10399997;-0.28000
10402775;-0.29500
10405553;-0.30500
10408330;-0.30500
10411108;-0.30500
10413886;-0.29000
10416664;-0.29500
10419442;-0.29000
10422219;-0.30000
10424997;-0.32000
10427775;-0.31000
10430553;-0.29500
10433330;-0.30500
10436108;-0.30500
10438886;-0.31000
10441664;-0.31500
10444442;-0.31500
10447219;-0.30000
10449997;-0.30000
10452775;-0.31000
10455553;-0.30500
10458330;-0.30500
10461108;-0.30000
10463886;-0.29000
10466664;-0.29500
10469442;-0.29000
10472219;-0.29000
10474997;-0.29500
10477775;-0.29000
10480553;-0.27500
10483330;-0.27000
10486108;-0.26500
10488886;-0.28000
10491664;-0.28000
10494442;-0.26500
10497219;-0.24000
10499997;-0.23500
10502775;-0.23000
10505553;-0.23500
10508330;-0.23500
10511108;-0.23500
10513886;-0.22000
10516664;-0.22500
10519441;-0.22500
10522219;-0.22000
10524997;-0.21500
10527775;-0.21500
10530553;-0.20000
10533330;-0.18000
10536108;-0.18000
10538886;-0.18500
10541664;-0.19000
10544441;-0.18000
10547219;-0.18000
10549997;-0.18500
10552775;-0.19000
10555553;-0.19500
10558330;-0.19500
10561108;-0.19000
10563886;-0.18000
10566664;-0.16500
10569441;-0.15000
10572219;-0.16000
10574997;-0.16000
10577775;-0.17500
10580553;-0.20500
10583330;-0.22000
10586108;-0.24500
10588886;-0.25000
10591664;-0.28000
10594441;-0.29000
10597219;-0.30500
10599997;-0.31000
10602775;-0.32000
10605553;-0.32500
10608330;-0.32000
10611108;-0.32000
10613886;-0.31000
10616664;-0.30500
10619441;-0.30500
10622219;-0.31500
10624997;-0.32500
10627775;-0.32000
10630553;-0.31500
10633330;-0.31500
10636108;-0.31500
10638886;-0.32000
10641664;-0.34000
10644441;-0.33500
10647219;-0.32500
10649997;-0.32000
10652775;-0.32500
10655553;-0.33000
10658330;-0.34000
10661108;-0.32000
10663886;-0.33500
10666664;-0.33000
10669441;-0.34000
10672219;-0.35500
10674997;-0.40500
10677775;-0.43500
10680553;-0.44500
10683330;-0.44500
10686108;-0.45500
10688886;-0.50500
10691664;-0.56000
10694441;-0.59500
10697219;-0.57000
10699997;-0.52500
10702775;-0.44500
10705553;-0.35500
10708330;-0.25000
10711108;-0.09500
10713886;0.11000
10716664;0.37000
10719441;0.62000
10722219;0.77500
10724997;0.82000
10727775;0.74000
10730553;0.49000
10733330;0.10500
10736108;-0.25000
10738886;-0.46500
10741664;-0.52000
10744441;-0.47500
10747219;-0.42000
10749997;-0.38500
10752775;-0.37000
10755553;-0.39500
10758330;-0.39000
10761108;-0.39000
10763886;-0.39000
10766664;-0.38000
10769441;-0.37500
10772219;-0.39000
10774997;-0.40000
10777775;-0.39500
10780553;-0.37500
10783330;-0.38000
10786108;-0.37500
10788886;-0.38500
10791664;-0.39500
10794441;-0.38500
10797219;-0.38000
10799997;-0.39500
10802775;-0.39000
10805553;-0.39000
10808330;-0.40500
10811108;-0.39000
10813886;-0.37500
10816664;-0.37500
10819441;-0.38000
10822219;-0.38500
10824997;-0.40000
10827775;-0.39000
10830553;-0.38500
10833330;-0.37000
10836108;-0.37500
10838886;-0.39000
10841664;-0.39500
10844441;-0.39000
10847219;-0.38500
10849997;-0.39000
10852775;-0.39000
10855553;-0.38500
10858330;-0.39500
10861108;-0.39000
10863886;-0.38500
10866664;-0.37000
10869441;-0.39000
10872219;-0.39000
10874997;-0.39000
10877775;-0.38500
10880553;-0.37500
10883330;-0.38000
10886108;-0.38000
10888886;-0.37500
10891664;-0.38500
10894441;-0.38000
10897219;-0.36500
10899997;-0.36500
10902775;-0.38000
10905553;-0.38500
10908330;-0.39000
10911108;-0.39000
10913886;-0.38500
10916664;-0.37500
10919441;-0.38000
10922219;-0.38000
10924997;-0.38000
10927775;-0.38500
10930552;-0.38000
10933330;-0.38500
10936108;-0.37000
10938886;-0.38000
10941664;-0.37000
10944441;-0.37000
10947219;-0.37000
10949997;-0.37500
10952775;-0.37000
10955552;-0.38500
10958330;-0.39000
10961108;-0.38000
10963886;-0.37500
10966664;-0.37000
10969441;-0.38500
10972219;-0.38500
10974997;-0.39500
10977775;-0.39000
10980552;-0.37500
10983330;-0.37500
10986108;-0.38500
10988886;-0.39000
10991664;-0.40000
10994441;-0.38500
10997219;-0.39000
10999997;-0.37500
11002775;-0.38000
11005552;-0.38500
11008330;-0.38500
11011108;-0.38500
11013886;-0.35000
11016664;-0.34000
11019441;-0.33500
11022219;-0.32500
11024997;-0.32500
11027775;-0.31500
11030552;-0.30500
11033330;-0.30000
11036108;-0.30000
11038886;-0.30500
11041664;-0.30500
11044441;-0.29000
11047219;-0.28500
11049997;-0.28500
11052775;-0.29000
11055552;-0.29000
11058330;-0.30000
11061108;-0.29500
11063886;-0.28500
11066664;-0.28500
11069441;-0.28500
11072219;-0.30500
11074997;-0.29000
11077775;-0.28500
11080552;-0.28500
11083330;-0.27000
11086108;-0.27000
11088886;-0.28500
11091664;-0.30500
11094441;-0.29000
11097219;-0.28500
11099997;-0.27000
11102775;-0.28000
11105552;-0.28500
11108330;-0.28500
11111108;-0.28500
11113886;-0.28500
11116664;-0.27000
11119441;-0.28500
11122219;-0.30000
11124997;-0.31000
11127775;-0.31000
11130552;-0.29500
11133330;-0.29000
11136108;-0.30000
11138886;-0.31500
11141664;-0.32500
11144441;-0.31500
11147219;-0.29000
11149997;-0.29500
11152775;-0.31000
11155552;-0.31000
11158330;-0.31500
11161108;-0.30000
11163886;-0.30000
11166664;-0.30500
11169441;-0.30500
11172219;-0.31500
11174997;-0.32000
11177775;-0.32000
11180552;-0.32500
11183330;-0.31000
11186108;-0.32500
11188886;-0.33000
11191664;-0.33500
11194441;-0.33500
11197219;-0.33000
11199997;-0.33000
11202775;-0.33500
11205552;-0.34500
11208330;-0.35000
11211108;-0.33500
11213886;-0.34000
11216664;-0.34000
11219441;-0.34500
11222219;-0.35000
11224997;-0.35500
11227775;-0.33500
11230552;-0.32500
11233330;-0.33000
11236108;-0.32500
11238886;-0.33000
11241664;-0.35500
11244441;-0.34000
11247219;-0.32500
11249997;-0.33500
11252775;-0.35000
11255552;-0.35500
11258330;-0.36000
11261108;-0.34500
11263886;-0.33500
11266664;-0.33500
11269441;-0.33000
11272219;-0.33000
11274997;-0.34000
11277775;-0.34000
11280552;-0.32000
11283330;-0.33000
11286108;-0.33500
11288886;-0.33000
11291664;-0.34000
11294441;-0.33500
11297219;-0.32000
11299997;-0.30500
11302775;-0.30500
11305552;-0.31500
11308330;-0.31000
11311108;-0.30000
11313886;-0.29000
11316663;-0.28000
11319441;-0.26500
11322219;-0.27000
11324997;-0.26500
11327775;-0.26000
11330552;-0.24500
11333330;-0.23500
11336108;-0.22500
11338886;-0.23500
11341663;-0.24000
11344441;-0.23500
11347219;-0.22000
11349997;-0.21500
11352775;-0.21500
11355552;-0.23500
11358330;-0.23500
11361108;-0.23000
11363886;-0.22500
11366663;-0.22000
11369441;-0.21500
11372219;-0.23000
11374997;-0.22500
11377775;-0.22000
11380552;-0.21000
11383330;-0.21000
11386108;-0.21500
11388886;-0.22000
11391663;-0.23000
11394441;-0.22500
11397219;-0.20500
11399997;-0.18000
11402775;-0.19000
11405552;-0.22500
11408330;-0.26500
11411108;-0.26500
11413886;-0.28000
11416663;-0.28000
11419441;-0.30000
11422219;-0.32000
11424997;-0.34000
11427775;-0.34500
11430552;-0.35000
11433330;-0.35500
11436108;-0.36500
11438886;-0.36000
11441663;-0.37000
11444441;-0.37000
11447219;-0.37500
11449997;-0.36000
11452775;-0.36000
11455552;-0.36000
11458330;-0.37500
11461108;-0.36500
11463886;-0.35000
11466663;-0.35000
11469441;-0.36000
11472219;-0.37000
11474997;-0.38000
11477775;-0.38000
11480552;-0.37000
11483330;-0.37000
11486108;-0.36500
11488886;-0.37500
11491663;-0.39500
11494441;-0.39500
11497219;-0.41500
11499997;-0.45500
11502775;-0.49000
11505552;-0.51500
11508330;-0.56000
11511108;-0.59000
11513886;-0.57500
11516663;-0.48500
11519441;-0.36500
11522219;-0.24500
11524997;-0.09000
11527775;0.15500
11530552;0.42000
11533330;0.64000
11536108;0.77000
11538886;0.78500
11541663;0.61500
11544441;0.30000
11547219;-0.06000
11549997;-0.34500
11552775;-0.51500
11555552;-0.57500
11558330;-0.55000
11561108;-0.50000
11563886;-0.44500
11566663;-0.43000
11569441;-0.43000
11572219;-0.44500
11574997;-0.44500
11577775;-0.43000
11580552;-0.42500
11583330;-0.41500
11586108;-0.42000
11588886;-0.43000
11591663;-0.43500
11594441;-0.43500
11597219;-0.43500
11599997;-0.42000
11602775;-0.41000
11605552;-0.42000
11608330;-0.44500
11611108;-0.43000
11613886;-0.42500
11616663;-0.42500
11619441;-0.43500
11622219;-0.44500
11624997;-0.45500
11627775;-0.46000
11630552;-0.44500
11633330;-0.42500
11636108;-0.43500
11638886;-0.43500
11641663;-0.44000
11644441;-0.42500
11647219;-0.41500
11649997;-0.41500
11652775;-0.42500
11655552;-0.43000
11658330;-0.44000
11661108;-0.45000
11663886;-0.43000
11666663;-0.44000
11669441;-0.44000
11672219;-0.44000
11674997;-0.44000
11677775;-0.43500
11680552;-0.43000
11683330;-0.42500
11686108;-0.43000
11688886;-0.44500
11691663;-0.46000
11694441;-0.44500
11697219;-0.43500
11699997;-0.42500
11702775;-0.44000
11705552;-0.43500
11708330;-0.44500
11711108;-0.44500
11713886;-0.43500
11716663;-0.43500
11719441;-0.43500
11722219;-0.45500
11724997;-0.47000
11727774;-0.46000
11730552;-0.45000
11733330;-0.44500
11736108;-0.44500
11738886;-0.44500
11741663;-0.45000
11744441;-0.44000
11747219;-0.43000
11749997;-0.42500
11752774;-0.43500
11755552;-0.44000
11758330;-0.45000
11761108;-0.43500
11763886;-0.43000
11766663;-0.44000
11769441;-0.46000
11772219;-0.45500
11774997;-0.47000
11777774;-0.47500
11780552;-0.46000
11783330;-0.45000
11786108;-0.46000
11788886;-0.48000
11791663;-0.48000
11794441;-0.47000
11797219;-0.46000
11799997;-0.46500
11802774;-0.46000
11805552;-0.47500
11808330;-0.48500
11811108;-0.48000
11813886;-0.47000
11816663;-0.47000
11819441;-0.46500
11822219;-0.47500
11824997;-0.47500
11827774;-0.46500
11830552;-0.45000
11833330;-0.45000
11836108;-0.44000
11838886;-0.43000
11841663;-0.43000
11844441;-0.41500
11847219;-0.40000
11849997;-0.38500
11852774;-0.36500
11855552;-0.36500
11858330;-0.37500
11861108;-0.36500
11863886;-0.34500
11866663;-0.35000
11869441;-0.34000
11872219;-0.33500
11874997;-0.34000
11877774;-0.33500
11880552;-0.32000
11883330;-0.31500
11886108;-0.32000
11888886;-0.33000
11891663;-0.34000
11894441;-0.33500
11897219;-0.33500
11899997;-0.32000
11902774;-0.33500
11905552;-0.33500
11908330;-0.33500
11911108;-0.34500
11913886;-0.33500
11916663;-0.32500
11919441;-0.32000
11922219;-0.34000
11924997;-0.34000
11927774;-0.34500
11930552;-0.32500
11933330;-0.33000
11936108;-0.33000
11938886;-0.34000
11941663;-0.35000
11944441;-0.33500
11947219;-0.32500
11949997;-0.32500
11952774;-0.33000
11955552;-0.33000
11958330;-0.33500
11961108;-0.33500
11963886;-0.33500
11966663;-0.33500
11969441;-0.34000
11972219;-0.35000
11974997;-0.35000
11977774;-0.35500
11980552;-0.33500
11983330;-0.34500
11986108;-0.34000
11988886;-0.35000
11991663;-0.36000
11994441;-0.35500
11997219;-0.35500
11999997;-0.35500
12002774;-0.37000
12005552;-0.37500
12008330;-0.37500
12011108;-0.36000
12013886;-0.34000
12016663;-0.34500
12019441;-0.34500
12022219;-0.37000
12024997;-0.38000
12027774;-0.37000
12030552;-0.37500
12033330;-0.37000
12036108;-0.37500
12038886;-0.37000
12041663;-0.38500
12044441;-0.37000
12047219;-0.37000
12049997;-0.36000
12052774;-0.37500
12055552;-0.38500
12058330;-0.39500
12061108;-0.37500
12063886;-0.36500
12066663;-0.36500
12069441;-0.37000
12072219;-0.37000
12074997;-0.38000
12077774;-0.37000
12080552;-0.36500
12083330;-0.35500
12086108;-0.35500
12088886;-0.36000
12091663;-0.37500
12094441;-0.37000
12097219;-0.36000
12099997;-0.35000
12102774;-0.35000
12105552;-0.37000
12108330;-0.37500
12111108;-0.37500
12113885;-0.36000
12116663;-0.36500
12119441;-0.36000
12122219;-0.37000
12124997;-0.37500
12127774;-0.36000
12130552;-0.35000
12133330;-0.34000
12136108;-0.35500
12138885;-0.36000
12141663;-0.36500
12144441;-0.35000
12147219;-0.33000
12149997;-0.31500
12152774;-0.32000
12155552;-0.33000
12158330;-0.33000
12161108;-0.31500
12163885;-0.29500
12166663;-0.30000
12169441;-0.30000
12172219;-0.30000
12174997;-0.30000
12177774;-0.29000
12180552;-0.27000
12183330;-0.27000
12186108;-0.25500
12188885;-0.27000
12191663;-0.27000
12194441;-0.26000
12197219;-0.24500
12199997;-0.24000
12202774;-0.25500
12205552;-0.27500
12208330;-0.28500
12211108;-0.27000
12213885;-0.25000
12216663;-0.25000
12219441;-0.25500
12222219;-0.26500
12224997;-0.26500
12227774;-0.23000
12230552;-0.23500
12233330;-0.25000
12236108;-0.27500
12238885;-0.31000
12241663;-0.32000
12244441;-0.34000
12247219;-0.33500
12249997;-0.34500
12252774;-0.37000
12255552;-0.37500
12258330;-0.39500
12261108;-0.39500
12263885;-0.38000
12266663;-0.38000
12269441;-0.39000
12272219;-0.39500
12274997;-0.40500
12277774;-0.39500
12280552;-0.40000
12283330;-0.38500
12286108;-0.39500
12288885;-0.40000
12291663;-0.41500
12294441;-0.40000
12297219;-0.41000
12299997;-0.40000
12302774;-0.40500
12305552;-0.41000
12308330;-0.42000
12311108;-0.40500
12313885;-0.40000
12316663;-0.40000
12319441;-0.41000
12322219;-0.43000
12324997;-0.45000
12327774;-0.48500
12330552;-0.50500
12333330;-0.52000
12336108;-0.54000
12338885;-0.58500
12341663;-0.61500
12344441;-0.57500
12347219;-0.48500
12349997;-0.35500
12352774;-0.21000
12355552;-0.04000
12358330;0.18500
12361108;0.47500
12363885;0.71000
12366663;0.85000
12369441;0.92000
12372219;0.86000
12374997;0.64000
12377774;0.30500
12380552;0.00500
12383330;-0.23000
12386108;-0.37500
12388885;-0.49500
12391663;-0.57500
12394441;-0.60500
12397219;-0.60500
12399997;-0.56500
12402774;-0.52000
12405552;-0.48000
12408330;-0.48000
12411108;-0.47500
12413885;-0.45500
12416663;-0.45000
12419441;-0.45000
12422219;-0.45500
12424997;-0.46500
12427774;-0.45000
12430552;-0.46000
12433330;-0.45000
12436108;-0.45500
12438885;-0.47000
12441663;-0.47000
12444441;-0.46500
12447219;-0.45000
12449997;-0.43500
12452774;-0.44500
12455552;-0.45500
12458330;-0.46000
12461108;-0.45000
12463885;-0.45000
12466663;-0.44500
12469441;-0.45000
12472219;-0.45500
12474997;-0.45500
12477774;-0.45500
12480552;-0.44500
12483330;-0.44500
12486108;-0.45000
12488885;-0.45500
12491663;-0.47000
12494441;-0.45500
12497219;-0.45000
12499996;-0.44000
12502774;-0.45500
12505552;-0.45000
12508330;-0.46500
12511108;-0.46500
12513885;-0.44500
12516663;-0.44000
12519441;-0.45000
12522219;-0.46000
12524996;-0.48000
12527774;-0.46000
12530552;-0.45500
12533330;-0.44000
12536108;-0.45000
12538885;-0.46500
12541663;-0.45000
12544441;-0.46000
12547219;-0.44500
12549996;-0.44000
12552774;-0.44500
12555552;-0.44500
12558330;-0.46000
12561108;-0.45000
12563885;-0.43500
12566663;-0.44000
12569441;-0.44000
12572219;-0.44500
12574996;-0.45000
12577774;-0.46000
12580552;-0.44000
12583330;-0.44000
12586108;-0.44500
12588885;-0.46500
12591663;-0.46500
12594441;-0.45000
12597219;-0.44000
12599996;-0.44500
12602774;-0.45000
12605552;-0.45500
12608330;-0.47000
12611108;-0.46500
12613885;-0.45000
12616663;-0.44000
12619441;-0.46500
12622219;-0.45500
12624996;-0.46000
12627774;-0.46500
12630552;-0.46000
12633330;-0.45500
12636108;-0.46000
12638885;-0.47000
12641663;-0.47500
12644441;-0.47500
12647219;-0.47000
12649996;-0.46500
12652774;-0.47000
12655552;-0.48000
12658330;-0.48500
12661108;-0.48500
12663885;-0.47000
12666663;-0.47000
12669441;-0.46500
12672219;-0.47000
12674996;-0.47500
12677774;-0.44500
12680552;-0.44000
12683330;-0.41500
12686108;-0.41500
12688885;-0.41000
12691663;-0.40500
12694441;-0.38500
12697219;-0.36500
12699996;-0.35000
12702774;-0.34500
12705552;-0.34000
12708330;-0.34500
12711108;-0.33000
12713885;-0.32000
12716663;-0.31500
12719441;-0.31500
12722219;-0.31000
12724996;-0.31500
12727774;-0.31500
12730552;-0.30000
12733330;-0.29500
12736108;-0.30500
12738885;-0.31500
12741663;-0.32500
12744441;-0.32000
12747219;-0.31000
12749996;-0.30500
12752774;-0.31000
12755552;-0.31500
12758330;-0.32500
12761108;-0.32000
12763885;-0.32000
12766663;-0.30500
12769441;-0.31000
12772219;-0.31500
12774996;-0.32500
12777774;-0.30500
12780552;-0.30500
12783330;-0.30500
12786108;-0.31000
12788885;-0.31500
12791663;-0.31500
12794441;-0.31000
12797219;-0.31000
12799996;-0.30500
12802774;-0.31000
12805552;-0.32000
12808330;-0.34000
12811108;-0.32500
12813885;-0.31000
12816663;-0.31000
12819441;-0.32000
12822219;-0.33000
12824996;-0.33500
12827774;-0.33500
12830552;-0.33500
12833330;-0.32500
12836108;-0.34000
12838885;-0.34500
12841663;-0.34000
12844441;-0.34000
12847219;-0.32000
12849996;-0.32000
12852774;-0.33000
12855552;-0.32500
12858330;-0.33500
12861108;-0.32500
12863885;-0.32000
12866663;-0.31500
12869441;-0.31000
12872219;-0.32000
12874996;-0.34000
12877774;-0.32000
12880552;-0.32000
12883330;-0.32000
12886108;-0.33000
12888885;-0.33500
12891663;-0.32500
12894441;-0.32500
12897219;-0.32000
12899996;-0.33000
12902774;-0.33500
12905552;-0.33500
12908330;-0.34500
12911107;-0.32500
12913885;-0.33000
12916663;-0.32000
12919441;-0.32500
12922219;-0.32000
12924996;-0.33500
12927774;-0.32500
12930552;-0.31000
12933330;-0.30500
12936107;-0.31000
12938885;-0.31000
12941663;-0.32000
12944441;-0.30500
12947219;-0.28500
12949996;-0.27500
12952774;-0.26500
12955552;-0.27500
12958330;-0.28500
12961107;-0.26500
12963885;-0.24500
12966663;-0.23000
12969441;-0.23500
12972219;-0.23000
12974996;-0.25000
12977774;-0.22000
12980552;-0.20500
12983330;-0.20500
12986107;-0.19000
12988885;-0.19000
12991663;-0.19500
12994441;-0.19000
12997219;-0.18000
12999996;-0.18500
13002774;-0.20000
13005552;-0.21000
13008330;-0.20500
13011107;-0.19000
13013885;-0.18500
13016663;-0.18000
13019441;-0.18500
13022219;-0.17000
13024996;-0.16500
13027774;-0.15500
13030552;-0.18000
13033330;-0.20500
13036107;-0.23000
13038885;-0.23500
13041663;-0.27000
13044441;-0.27000
13047219;-0.28000
13049996;-0.29000
13052774;-0.31000
13055552;-0.32000
13058330;-0.33500
13061107;-0.32500
13063885;-0.30500
13066663;-0.30500
13069441;-0.30500
13072219;-0.31500
13074996;-0.32500
13077774;-0.32000
13080552;-0.31500
13083330;-0.31000
13086107;-0.31000
13088885;-0.33000
13091663;-0.33500
13094441;-0.33000
13097219;-0.32500
13099996;-0.32000
13102774;-0.31000
13105552;-0.32500
13108330;-0.33500
13111107;-0.32500
13113885;-0.32500
13116663;-0.31500
13119441;-0.33500
13122219;-0.35000
13124996;-0.39000
13127774;-0.42500
13130552;-0.44500
13133330;-0.44500
13136107;-0.48500
13138885;-0.53000
13141663;-0.53500
13144441;-0.44500
13147219;-0.29500
13149996;-0.14000
13152774;0.04500
13155552;0.29000
13158330;0.57000
13161107;0.80000
13163885;0.92000
13166663;0.89000
13169441;0.63500
13172219;0.22000
13174996;-0.19500
13177774;-0.45000
13180552;-0.50000
13183330;-0.45000
13186107;-0.38500
13188885;-0.37000
13191663;-0.37500
13194441;-0.37000
13197219;-0.37000
13199996;-0.36000
13202774;-0.36500
13205552;-0.38500
13208330;-0.38500
13211107;-0.37500
13213885;-0.37000
13216663;-0.37500
13219441;-0.37000
13222219;-0.39000
13224996;-0.38500
13227774;-0.37500
13230552;-0.36500
13233330;-0.37000
13236107;-0.37500
13238885;-0.38000
13241663;-0.39500
13244441;-0.38000
13247219;-0.37500
13249996;-0.36500
13252774;-0.36500
13255552;-0.37500
13258330;-0.38500
13261107;-0.37500
13263885;-0.37000
13266663;-0.37000
13269441;-0.38000
13272219;-0.38000
13274996;-0.38500
13277774;-0.37000
13280552;-0.36500
13283330;-0.37500
13286107;-0.37000
13288885;-0.37000
13291663;-0.39000
13294441;-0.37500
13297218;-0.37500
13299996;-0.36000
13302774;-0.36500
13305552;-0.37500
13308330;-0.39000
13311107;-0.37000
13313885;-0.37500
13316663;-0.36500
13319441;-0.37500
13322218;-0.38000
13324996;-0.39000
13327774;-0.38500
13330552;-0.37500
13333330;-0.37000
13336107;-0.37000
13338885;-0.37500
13341663;-0.38000
13344441;-0.37500
13347218;-0.36000
13349996;-0.36000
13352774;-0.36500
13355552;-0.37000
13358330;-0.39000
13361107;-0.37500
13363885;-0.36500
13366663;-0.36500
13369441;-0.38500
13372218;-0.38500
13374996;-0.38000
13377774;-0.37500
13380552;-0.37000
13383330;-0.36000
13386107;-0.37000
13388885;-0.37500
13391663;-0.38500
13394441;-0.37000
13397218;-0.36000
13399996;-0.35500
13402774;-0.36500
13405552;-0.36500
13408330;-0.37500
13411107;-0.37000
13413885;-0.36000
13416663;-0.36500
13419441;-0.35500
13422218;-0.37000
13424996;-0.38000
13427774;-0.37500
13430552;-0.36000
13433330;-0.36000
13436107;-0.36500
13438885;-0.36500
13441663;-0.36500
13444441;-0.36500
13447218;-0.35500
13449996;-0.34500
13452774;-0.33500
13455552;-0.32500
13458330;-0.33500
13461107;-0.31500
13463885;-0.30500
13466663;-0.29500
13469441;-0.28000
13472218;-0.30500
13474996;-0.30000
13477774;-0.27500
13480552;-0.26000
13483330;-0.27000
13486107;-0.26000
13488885;-0.27000
13491663;-0.27500
13494441;-0.28000
13497218;-0.27500
13499996;-0.25500
13502774;-0.27000
13505552;-0.28000
13508330;-0.28000
13511107;-0.27500
13513885;-0.27000
13516663;-0.26500
13519441;-0.27500
13522218;-0.27500
13524996;-0.28500
13527774;-0.28000
13530552;-0.27000
13533330;-0.27000
13536107;-0.27500
13538885;-0.27000
13541663;-0.28000
13544441;-0.27000
13547218;-0.26000
13549996;-0.26000
13552774;-0.27500
13555552;-0.28000
13558330;-0.29500
13561107;-0.29000
13563885;-0.28000
13566663;-0.27500
13569441;-0.28000
13572218;-0.28000
13574996;-0.28500
13577774;-0.28500
13580552;-0.28500
13583330;-0.29500
13586107;-0.30000
13588885;-0.30000
13591663;-0.31000
13594441;-0.30500
13597218;-0.30000
13599996;-0.29000
13602774;-0.30500
13605552;-0.30000
13608330;-0.31000
13611107;-0.30000
13613885;-0.30500
13616663;-0.29500
13619441;-0.29000
13622218;-0.30500
13624996;-0.30500
13627774;-0.31000
13630552;-0.31000
13633330;-0.30500
13636107;-0.31000
13638885;-0.32000
13641663;-0.33500
13644441;-0.32500
13647218;-0.32000
13649996;-0.32000
13652774;-0.31500
13655552;-0.32500
13658330;-0.32500
13661107;-0.31500
13663885;-0.31000
13666663;-0.31000
13669441;-0.31000
13672218;-0.33000
13674996;-0.33500
13677774;-0.33000
13680552;-0.31500
13683330;-0.31000
13686107;-0.31000
13688885;-0.31000
13691663;-0.32000
13694441;-0.30500
13697218;-0.30000
13699996;-0.29500
13702774;-0.29500
13705552;-0.32000
13708329;-0.32500
13711107;-0.33500
13713885;-0.32000
13716663;-0.30000
13719441;-0.28500
13722218;-0.29000
13724996;-0.28000
13727774;-0.27000
13730552;-0.26000
13733329;-0.24000
13736107;-0.23000
13738885;-0.24000
13741663;-0.24000
13744441;-0.23500
13747218;-0.22000
13749996;-0.20000
13752774;-0.20000
13755552;-0.20000
13758329;-0.20000
13761107;-0.20000
13763885;-0.18500
13766663;-0.19500
13769441;-0.20000
13772218;-0.21500
13774996;-0.22000
13777774;-0.21000
13780552;-0.19500
13783329;-0.20000
13786107;-0.20500
13788885;-0.22000
13791663;-0.23000
13794441;-0.21500
13797218;-0.19500
13799996;-0.15500
13802774;-0.15000
13805552;-0.18000
13808329;-0.23000
13811107;-0.26000
13813885;-0.26500
13816663;-0.27000
13819441;-0.27500
13822218;-0.31000
13824996;-0.32000
13827774;-0.33500
13830552;-0.32000
13833329;-0.31500
13836107;-0.32000
13838885;-0.34500
13841663;-0.35500
13844441;-0.34500
13847218;-0.33000
13849996;-0.33500
13852774;-0.35000
13855552;-0.35000
13858329;-0.36000
13861107;-0.36000
13863885;-0.34500
13866663;-0.34000
13869441;-0.35000
13872218;-0.36500
13874996;-0.36500
13877774;-0.36000
13880552;-0.35500
13883329;-0.34500
13886107;-0.35500
13888885;-0.38000
13891663;-0.42500
13894441;-0.45500
13897218;-0.46500
13899996;-0.49000
13902774;-0.53500
13905552;-0.57000
13908329;-0.53000
13911107;-0.41000
13913885;-0.25500
13916663;-0.09000
13919441;0.13000
13922218;0.41500
13924996;0.64500
13927774;0.80000
13930552;0.81500
13933329;0.64500
13936107;0.27500
13938885;-0.13000
13941663;-0.44000
13944441;-0.57500
13947218;-0.53000
13949996;-0.44500
13952774;-0.39500
13955552;-0.40500
13958329;-0.42000
13961107;-0.43000
13963885;-0.39000
13966663;-0.37500
13969441;-0.39000
13972218;-0.40000
13974996;-0.41000
13977774;-0.41000
13980552;-0.39500
13983329;-0.39000
13986107;-0.40000
13988885;-0.41500
13991663;-0.42000
13994441;-0.42500
13997218;-0.41500
13999996;-0.40500
14002774;-0.41000
14005552;-0.41000
14008329;-0.41500
14011107;-0.41000
14013885;-0.39500
14016663;-0.39000
14019441;-0.38500
14022218;-0.40000
14024996;-0.40000
14027774;-0.38500
14030552;-0.38000
14033329;-0.39000
14036107;-0.39500
14038885;-0.40000
14041663;-0.41500
14044441;-0.41000
14047218;-0.40500
14049996;-0.39000
14052774;-0.38500
14055552;-0.40000
14058329;-0.41000
14061107;-0.41000
14063885;-0.40500
14066663;-0.39500
14069441;-0.39500
14072218;-0.40500
14074996;-0.41000
14077774;-0.40000
14080552;-0.39500
14083329;-0.39500
14086107;-0.39500
14088885;-0.40000
14091663;-0.40500
14094440;-0.40500
14097218;-0.39500
14099996;-0.38500
14102774;-0.39500
14105552;-0.40000
14108329;-0.41000
14111107;-0.39000
14113885;-0.39000
14116663;-0.37500
14119440;-0.37500
14122218;-0.37500
14124996;-0.39500
14127774;-0.39000
14130552;-0.38500
14133329;-0.37500
14136107;-0.38500
14138885;-0.38500
14141663;-0.39000
14144440;-0.39500
14147218;-0.39500
14149996;-0.39500
14152774;-0.38500
14155552;-0.40500
14158329;-0.41000
14161107;-0.41000
14163885;-0.39000
14166663;-0.40000
14169440;-0.40000
14172218;-0.40000
14174996;-0.41000
14177774;-0.40000
14180552;-0.40000
14183329;-0.39000
14186107;-0.39000
14188885;-0.39500
14191663;-0.40500
14194440;-0.40000
14197218;-0.37500
14199996;-0.36500
14202774;-0.36000
14205552;-0.37500
14208329;-0.38000
14211107;-0.37000
14213885;-0.35000
14216663;-0.34000
14219440;-0.33500
14222218;-0.32500
14224996;-0.33500
14227774;-0.32500
14230552;-0.32500
14233329;-0.30000
14236107;-0.31000
14238885;-0.31500
14241663;-0.32000
14244440;-0.30500
14247218;-0.30000
14249996;-0.29500
14252774;-0.29500
14255552;-0.31000
14258329;-0.30500
14261107;-0.31500
14263885;-0.31000
14266663;-0.30000
14269440;-0.30500
14272218;-0.30500
14274996;-0.30000
14277774;-0.31500
14280552;-0.29000
14283329;-0.30000
14286107;-0.29500
14288885;-0.30000
14291663;-0.31000
14294440;-0.30000
14297218;-0.29500
14299996;-0.28500
14302774;-0.29000
14305552;-0.30000
14308329;-0.32500
14311107;-0.32000
14313885;-0.31000
14316663;-0.31000
14319440;-0.31000
14322218;-0.33000
14324996;-0.33500
14327774;-0.34000
14330552;-0.33000
14333329;-0.33500
14336107;-0.34500
14338885;-0.33500
14341663;-0.35000
14344440;-0.34500
14347218;-0.34000
14349996;-0.33500
14352774;-0.35000
14355552;-0.35500
14358329;-0.37000
14361107;-0.35000
14363885;-0.34500
14366663;-0.34000
14369440;-0.35500
14372218;-0.35000
14374996;-0.36000
14377774;-0.36500
14380552;-0.36000
14383329;-0.33500
14386107;-0.35500
14388885;-0.35500
14391663;-0.36000
14394440;-0.36000
14397218;-0.36000
14399996;-0.35500
14402774;-0.37000
14405552;-0.39000
14408329;-0.39500
14411107;-0.39000
14413885;-0.36000
14416663;-0.36500
14419440;-0.36500
14422218;-0.37500
14424996;-0.39000
14427774;-0.38000
14430552;-0.36000
14433329;-0.34000
14436107;-0.35000
14438885;-0.36500
14441663;-0.38000
14444440;-0.36500
14447218;-0.36000
14449996;-0.37000
14452774;-0.36500
14455552;-0.37500
14458329;-0.38000
14461107;-0.38000
14463885;-0.37500
14466663;-0.36000
14469440;-0.35500
14472218;-0.37000
14474996;-0.38000
14477774;-0.37500
14480552;-0.35500
14483329;-0.35500
14486107;-0.35000
14488885;-0.34500
14491663;-0.33500
14494440;-0.32000
14497218;-0.30000
14499996;-0.30000
14502774;-0.30500
14505551;-0.31500
14508329;-0.31000
14511107;-0.30000
14513885;-0.27500
14516663;-0.26000
14519440;-0.27000
14522218;-0.26500
14524996;-0.27000
14527774;-0.27500
14530551;-0.25500
14533329;-0.25500
14536107;-0.27500
14538885;-0.27000
14541663;-0.26500
14544440;-0.27000
14547218;-0.26000
14549996;-0.25000
14552774;-0.24000
14555551;-0.25500
14558329;-0.30500
14561107;-0.33500
14563885;-0.34500
14566663;-0.33500
14569440;-0.36000
14572218;-0.38000
14574996;-0.40000
14577774;-0.39500
14580551;-0.39500
14583329;-0.38500
14586107;-0.38500
14588885;-0.38500
14591663;-0.41500
14594440;-0.39500
14597218;-0.40000
14599996;-0.40500
14602774;-0.42500
14605551;-0.41500
14608329;-0.43000
14611107;-0.43500
14613885;-0.43000
14616663;-0.42000
14619440;-0.41000
14622218;-0.41500
14624996;-0.42000
14627774;-0.42000
14630551;-0.41000
14633329;-0.41000
14636107;-0.40500
14638885;-0.40500
14641663;-0.42000
14644440;-0.41500
14647218;-0.42500
14649996;-0.42500
14652774;-0.46500
14655551;-0.50500
14658329;-0.54000
14661107;-0.54500
14663885;-0.58500
14666663;-0.62500
14669440;-0.60500
14672218;-0.51500
14674996;-0.38000
14677774;-0.23000
14680551;-0.01500
14683329;0.26500
14686107;0.54500
14688885;0.72500
14691663;0.78000
