time_ms;ecg_value
0;-0.51000
2778;-0.51000
5556;-0.50500
8333;-0.51000
11111;-0.49500
13889;-0.48500
16667;-0.46500
19444;-0.46500
22222;-0.46000
25000;-0.46500
27778;-0.45500
30556;-0.43000
33333;-0.40500
36111;-0.39000
38889;-0.38500
41667;-0.39000
44444;-0.37500
47222;-0.37500
50000;-0.36500
52778;-0.35500
55556;-0.35000
58333;-0.34500
61111;-0.34000
63889;-0.33500
66667;-0.33500
69444;-0.34500
72222;-0.34500
75000;-0.35500
77778;-0.35000
80556;-0.32500
83333;-0.31000
86111;-0.30500
88889;-0.30000
91667;-0.32000
94444;-0.33500
97222;-0.32000
100000;-0.34000
102778;-0.33000
105556;-0.35000
108333;-0.36500
111111;-0.34500
113889;-0.31500
116667;-0.33500
119444;-0.34000
122222;-0.34000
125000;-0.35000
127778;-0.34500
130556;-0.33000
133333;-0.33500
136111;-0.35000
138889;-0.35000
141667;-0.37500
144444;-0.36000
147222;-0.34500
150000;-0.34500
152778;-0.35500
155556;-0.35000
158333;-0.35500
161111;-0.35500
163889;-0.35000
166667;-0.35000
169444;-0.36000
172222;-0.38000
175000;-0.38000
177778;-0.38500
180556;-0.37500
183333;-0.36500
186111;-0.36000
188889;-0.37000
191667;-0.39500
194444;-0.38500
197222;-0.37500
200000;-0.37000
202778;-0.38500
205555;-0.37500
208333;-0.38500
211111;-0.37500
213889;-0.37000
216667;-0.38500
219444;-0.38000
222222;-0.38500
225000;-0.38000
227778;-0.36500
230555;-0.36500
233333;-0.36500
236111;-0.38000
238889;-0.37500
241667;-0.37500
244444;-0.36500
247222;-0.35500
250000;-0.36000
252778;-0.36000
255555;-0.35500
258333;-0.36000
261111;-0.36000
263889;-0.35000
266667;-0.35500
269444;-0.35500
272222;-0.37000
275000;-0.37500
277778;-0.36500
280555;-0.36000
283333;-0.36000
286111;-0.36000
288889;-0.36500
291667;-0.36500
294444;-0.36000
297222;-0.35500
300000;-0.35500
302778;-0.35500
305555;-0.36000
308333;-0.37000
311111;-0.37000
313889;-0.36500
316667;-0.36500
319444;-0.36000
322222;-0.35500
325000;-0.37000
327778;-0.36000
330555;-0.34500
333333;-0.34500
336111;-0.35000
338889;-0.36000
341667;-0.37000
344444;-0.35500
347222;-0.35000
350000;-0.34000
352778;-0.34500
355555;-0.35500
358333;-0.37000
361111;-0.36000
363889;-0.36500
366667;-0.36500
369444;-0.35500
372222;-0.36000
375000;-0.36500
377778;-0.35500
380555;-0.34500
383333;-0.34500
386111;-0.34500
388889;-0.35500
391667;-0.36000
394444;-0.35000
397222;-0.34500
400000;-0.34500
402778;-0.35500
405555;-0.34500
408333;-0.36500
411111;-0.35500
413889;-0.35000
416667;-0.34000
419444;-0.34000
422222;-0.36000
425000;-0.37000
427778;-0.36000
430555;-0.35000
433333;-0.33000
436111;-0.34000
438889;-0.35500
441667;-0.36000
444444;-0.35000
447222;-0.34000
450000;-0.33500
452778;-0.33500
455555;-0.34500
458333;-0.35500
461111;-0.34000
463889;-0.35500
466667;-0.34000
469444;-0.33500
472222;-0.35000
475000;-0.36000
477778;-0.35000
480555;-0.34000
483333;-0.34500
486111;-0.33000
488889;-0.34000
491667;-0.34500
494444;-0.34000
497222;-0.34000
500000;-0.34000
502778;-0.34000
505555;-0.34000
508333;-0.34500
511111;-0.34000
513889;-0.33000
516667;-0.32500
519444;-0.32500
522222;-0.31500
525000;-0.31000
527778;-0.29500
530555;-0.27000
533333;-0.26500
536111;-0.27000
538889;-0.27500
541667;-0.28000
544444;-0.26500
547222;-0.24000
550000;-0.23000
552778;-0.23000
555555;-0.23000
558333;-0.25000
561111;-0.24000
563889;-0.23000
566667;-0.24000
569444;-0.23000
572222;-0.25500
575000;-0.26500
577778;-0.25500
580555;-0.25000
583333;-0.25500
586111;-0.26000
588889;-0.27000
591667;-0.26000
594444;-0.23500
597222;-0.21500
600000;-0.22500
602778;-0.26500
605555;-0.28500
608333;-0.31000
611111;-0.31000
613889;-0.33500
616666;-0.32000
619444;-0.33500
622222;-0.35000
625000;-0.35500
627778;-0.37000
630555;-0.34500
633333;-0.34500
636111;-0.35000
638889;-0.37000
641666;-0.36000
644444;-0.34500
647222;-0.34500
650000;-0.34500
652778;-0.33500
655555;-0.36000
658333;-0.35500
661111;-0.36500
663889;-0.36000
666666;-0.35000
669444;-0.36000
672222;-0.37000
675000;-0.37000
677778;-0.37000
680555;-0.36500
683333;-0.34500
686111;-0.35500
688889;-0.37000
691666;-0.37000
694444;-0.37500
697222;-0.39500
700000;-0.42000
702778;-0.45000
705555;-0.49000
708333;-0.51500
711111;-0.53500
713889;-0.50500
716666;-0.41000
719444;-0.24000
722222;-0.05500
725000;0.14500
727778;0.40500
730555;0.68000
733333;0.90000
736111;1.03500
738889;1.02000
741666;0.82500
744444;0.42500
747222;-0.02000
750000;-0.34500
752778;-0.49500
755555;-0.50500
758333;-0.47000
761111;-0.39500
763889;-0.37500
766666;-0.38500
769444;-0.39500
772222;-0.41500
775000;-0.42000
777778;-0.40000
780555;-0.40500
783333;-0.41000
786111;-0.41000
788889;-0.41000
791666;-0.42500
794444;-0.42000
797222;-0.41500
800000;-0.41000
802778;-0.41500
805555;-0.42000
808333;-0.43500
811111;-0.42000
813889;-0.42500
816666;-0.41500
819444;-0.41000
822222;-0.42000
825000;-0.42000
827778;-0.42000
830555;-0.41000
833333;-0.40500
836111;-0.40000
838889;-0.41500
841666;-0.42000
844444;-0.42500
847222;-0.41000
850000;-0.40500
852778;-0.40500
855555;-0.40500
858333;-0.42500
861111;-0.41000
863889;-0.41500
866666;-0.41000
869444;-0.41000
872222;-0.42000
875000;-0.43000
877778;-0.42500
880555;-0.41000
883333;-0.41000
886111;-0.41500
888889;-0.41500
891666;-0.43000
894444;-0.42000
897222;-0.41000
900000;-0.41000
902778;-0.41500
905555;-0.41000
908333;-0.42000
911111;-0.42000
913889;-0.42000
916666;-0.40500
919444;-0.41500
922222;-0.41500
925000;-0.41000
927778;-0.42500
930555;-0.40500
933333;-0.41500
936111;-0.40500
938889;-0.42000
941666;-0.42500
944444;-0.42000
947222;-0.42000
950000;-0.41500
952778;-0.42500
955555;-0.42500
958333;-0.44000
961111;-0.44500
963889;-0.43500
966666;-0.42500
969444;-0.43000
972222;-0.43500
975000;-0.45000
977778;-0.44000
980555;-0.44500
983333;-0.43000
986111;-0.43000
988889;-0.43500
991666;-0.44000
994444;-0.44500
997222;-0.43500
1000000;-0.43000
1002777;-0.43000
1005555;-0.43000
1008333;-0.43500
1011111;-0.41000
1013889;-0.40000
1016666;-0.38500
1019444;-0.37500
1022222;-0.36500
1025000;-0.36000
1027777;-0.34500
1030555;-0.32000
1033333;-0.31000
1036111;-0.28500
1038889;-0.29000
1041666;-0.29000
1044444;-0.28000
1047222;-0.25500
1050000;-0.25000
1052777;-0.24000
1055555;-0.25000
1058333;-0.25000
1061111;-0.25500
1063889;-0.23500
1066666;-0.23000
1069444;-0.23500
1072222;-0.24500
1075000;-0.25000
1077777;-0.24000
1080555;-0.23500
1083333;-0.23000
1086111;-0.23500
1088889;-0.24000
1091666;-0.25000
1094444;-0.25500
1097222;-0.24500
1100000;-0.23500
1102777;-0.25500
1105555;-0.25000
1108333;-0.25500
1111111;-0.24500
1113889;-0.24000
1116666;-0.24000
1119444;-0.23500
1122222;-0.24500
1125000;-0.25000
1127777;-0.25000
1130555;-0.25000
1133333;-0.25000
1136111;-0.24500
1138889;-0.24500
1141666;-0.26500
1144444;-0.26500
1147222;-0.26000
1150000;-0.25000
1152777;-0.26000
1155555;-0.27000
1158333;-0.28000
1161111;-0.27000
1163889;-0.26500
1166666;-0.27000
1169444;-0.27000
1172222;-0.28000
1175000;-0.29500
1177777;-0.28500
1180555;-0.27500
1183333;-0.27000
1186111;-0.27500
1188889;-0.28500
1191666;-0.29500
1194444;-0.30000
1197222;-0.29000
1200000;-0.28500
1202777;-0.29000
1205555;-0.30500
1208333;-0.30000
1211111;-0.30000
1213889;-0.29000
1216666;-0.29500
1219444;-0.29000
1222222;-0.30500
1225000;-0.31000
1227777;-0.31500
1230555;-0.30500
1233333;-0.30500
1236111;-0.30500
1238889;-0.32000
1241666;-0.32500
1244444;-0.31000
1247222;-0.29000
1250000;-0.29500
1252777;-0.30000
1255555;-0.31000
1258333;-0.32000
1261111;-0.31500
1263889;-0.31000
1266666;-0.30000
1269444;-0.29500
1272222;-0.29500
1275000;-0.31000
1277777;-0.31000
1280555;-0.30000
1283333;-0.30000
1286111;-0.29000
1288889;-0.30500
1291666;-0.30500
1294444;-0.30500
1297222;-0.29500
1300000;-0.30500
1302777;-0.29500
1305555;-0.30000
1308333;-0.30000
1311111;-0.29000
1313889;-0.30000
1316666;-0.29000
1319444;-0.29000
1322222;-0.29500
1325000;-0.31500
1327777;-0.29500
1330555;-0.27000
1333333;-0.26000
1336111;-0.24500
1338889;-0.25000
1341666;-0.24500
1344444;-0.23500
1347222;-0.23000
1350000;-0.22000
1352777;-0.21500
1355555;-0.22000
1358333;-0.21000
1361111;-0.20000
1363889;-0.19500
1366666;-0.18500
1369444;-0.18000
1372222;-0.18500
1375000;-0.19500
1377777;-0.20000
1380555;-0.19000
1383333;-0.18500
1386111;-0.20000
1388888;-0.21000
1391666;-0.20500
1394444;-0.20500
1397222;-0.21500
1400000;-0.22000
1402777;-0.22500
1405555;-0.23000
1408333;-0.24000
1411111;-0.21500
1413888;-0.18500
1416666;-0.16000
1419444;-0.16500
1422222;-0.20000
1425000;-0.23500
1427777;-0.24500
1430555;-0.25000
1433333;-0.25000
1436111;-0.27000
1438888;-0.29500
1441666;-0.30500
1444444;-0.31500
1447222;-0.31000
1450000;-0.29500
1452777;-0.30000
1455555;-0.30500
1458333;-0.31000
1461111;-0.31000
1463888;-0.31500
1466666;-0.30000
1469444;-0.31500
1472222;-0.31500
1475000;-0.32500
1477777;-0.32500
1480555;-0.31000
1483333;-0.31500
1486111;-0.32000
1488888;-0.32000
1491666;-0.33500
1494444;-0.32500
1497222;-0.33000
1500000;-0.32000
1502777;-0.32500
1505555;-0.34500
1508333;-0.36500
1511111;-0.39500
1513888;-0.44000
1516666;-0.45500
1519444;-0.48000
1522222;-0.52500
1525000;-0.53500
1527777;-0.46000
1530555;-0.30500
1533333;-0.13000
1536111;0.06000
1538888;0.28000
1541666;0.53500
1544444;0.81500
1547222;1.01000
1550000;1.08000
1552777;1.00000
1555555;0.71500
1558333;0.24500
1561111;-0.19000
1563888;-0.42000
1566666;-0.45500
1569444;-0.40500
1572222;-0.36000
1575000;-0.35000
1577777;-0.35500
1580555;-0.35500
1583333;-0.34000
1586111;-0.35000
1588888;-0.35500
1591666;-0.36000
1594444;-0.35500
1597222;-0.36000
1600000;-0.35000
1602777;-0.34500
1605555;-0.35000
1608333;-0.38000
1611111;-0.37000
1613888;-0.37000
1616666;-0.35500
1619444;-0.36500
1622222;-0.37000
1625000;-0.38000
1627777;-0.38500
1630555;-0.38000
1633333;-0.37000
1636111;-0.38500
1638888;-0.39500
1641666;-0.39000
1644444;-0.39000
1647222;-0.38000
1650000;-0.37500
1652777;-0.37000
1655555;-0.37500
1658333;-0.38500
1661111;-0.37500
1663888;-0.37500
1666666;-0.36500
1669444;-0.36500
1672222;-0.38000
1675000;-0.38000
1677777;-0.38500
1680555;-0.38000
1683333;-0.37000
1686111;-0.37000
1688888;-0.37000
1691666;-0.38500
1694444;-0.38000
1697222;-0.37000
1700000;-0.36500
1702777;-0.37000
1705555;-0.38500
1708333;-0.38500
1711111;-0.38500
1713888;-0.38000
1716666;-0.38000
1719444;-0.38000
1722222;-0.37000
1725000;-0.39500
1727777;-0.39500
1730555;-0.38000
1733333;-0.37000
1736111;-0.36500
1738888;-0.37500
1741666;-0.39000
1744444;-0.39000
1747222;-0.37500
1750000;-0.37500
1752777;-0.38000
1755555;-0.38500
1758333;-0.39000
1761111;-0.39000
1763888;-0.38500
1766666;-0.37000
1769444;-0.38000
1772222;-0.37500
1775000;-0.39000
1777777;-0.38500
1780555;-0.38500
1783333;-0.37500
1786111;-0.38500
1788888;-0.38000
1791666;-0.39000
1794444;-0.38500
1797222;-0.38500
1799999;-0.38000
1802777;-0.37000
1805555;-0.37500
1808333;-0.39500
1811111;-0.39000
1813888;-0.38000
1816666;-0.37500
1819444;-0.37500
1822222;-0.37000
1824999;-0.38000
1827777;-0.37000
1830555;-0.36000
1833333;-0.34500
1836111;-0.34000
1838888;-0.33500
1841666;-0.34000
1844444;-0.31500
1847222;-0.29500
1849999;-0.28000
1852777;-0.28000
1855555;-0.28000
1858333;-0.29000
1861111;-0.27000
1863888;-0.25500
1866666;-0.25000
1869444;-0.24500
1872222;-0.25500
1874999;-0.26000
1877777;-0.24000
1880555;-0.24500
1883333;-0.23500
1886111;-0.23500
1888888;-0.24500
1891666;-0.25500
1894444;-0.24500
1897222;-0.25000
1899999;-0.24000
1902777;-0.23500
1905555;-0.24500
1908333;-0.25500
1911111;-0.25000
1913888;-0.24500
1916666;-0.23500
1919444;-0.23000
1922222;-0.25500
1924999;-0.25500
1927777;-0.26500
1930555;-0.26000
1933333;-0.25000
1936111;-0.24500
1938888;-0.25500
1941666;-0.26500
1944444;-0.26000
1947222;-0.26500
1949999;-0.26000
1952777;-0.26500
1955555;-0.27000
1958333;-0.27500
1961111;-0.27500
1963888;-0.27500
1966666;-0.27000
1969444;-0.27000
1972222;-0.28000
1974999;-0.29500
1977777;-0.29000
1980555;-0.29500
1983333;-0.29000
1986111;-0.29500
1988888;-0.31000
1991666;-0.30500
1994444;-0.30500
1997222;-0.30500
1999999;-0.29500
2002777;-0.30500
2005555;-0.31000
2008333;-0.32500
2011111;-0.31500
2013888;-0.32000
2016666;-0.30500
2019444;-0.31500
2022222;-0.30500
2024999;-0.32000
2027777;-0.30500
2030555;-0.30000
2033333;-0.29500
2036111;-0.31500
2038888;-0.31000
2041666;-0.31500
2044444;-0.31000
2047222;-0.31500
2049999;-0.30500
2052777;-0.32000
2055555;-0.31500
2058333;-0.32500
2061111;-0.32000
2063888;-0.30500
2066666;-0.29500
2069444;-0.29500
2072222;-0.31500
2074999;-0.32000
2077777;-0.31500
2080555;-0.31000
2083333;-0.30000
2086111;-0.29000
2088888;-0.30500
2091666;-0.31500
2094444;-0.30000
2097222;-0.29500
2099999;-0.29000
2102777;-0.29000
2105555;-0.30000
2108333;-0.31500
2111111;-0.30500
2113888;-0.29500
2116666;-0.29000
2119444;-0.29500
2122222;-0.28500
2124999;-0.29500
2127777;-0.29500
2130555;-0.28500
2133333;-0.28000
2136111;-0.28500
2138888;-0.28500
2141666;-0.29000
2144444;-0.26000
2147222;-0.25500
2149999;-0.22500
2152777;-0.21500
2155555;-0.22500
2158333;-0.22500
2161111;-0.23000
2163888;-0.21000
2166666;-0.20000
2169444;-0.19000
2172222;-0.18500
2174999;-0.20000
2177777;-0.19500
2180555;-0.18000
2183333;-0.17000
2186110;-0.16500
2188888;-0.17500
2191666;-0.18500
2194444;-0.19000
2197222;-0.19000
2199999;-0.19000
2202777;-0.19500
2205555;-0.20000
2208333;-0.22000
2211110;-0.20500
2213888;-0.17000
2216666;-0.15000
2219444;-0.16500
2222222;-0.19000
2224999;-0.23000
2227777;-0.24500
2230555;-0.23500
2233333;-0.23000
2236110;-0.24500
2238888;-0.28000
2241666;-0.29000
2244444;-0.29500
2247222;-0.29500
2249999;-0.30000
2252777;-0.31500
2255555;-0.32000
2258333;-0.32000
2261110;-0.31500
2263888;-0.31500
2266666;-0.30000
2269444;-0.31000
2272222;-0.32000
2274999;-0.33500
2277777;-0.33000
2280555;-0.33000
2283333;-0.32000
2286110;-0.31500
2288888;-0.32000
2291666;-0.34500
2294444;-0.32500
2297222;-0.33000
2299999;-0.32000
2302777;-0.32000
2305555;-0.32000
2308333;-0.33500
2311110;-0.34000
2313888;-0.34000
2316666;-0.35000
2319444;-0.39500
2322222;-0.43000
2324999;-0.46500
2327777;-0.48000
2330555;-0.51000
2333333;-0.52500
2336110;-0.48000
2338888;-0.37500
2341666;-0.22500
2344444;-0.05000
2347222;0.15000
2349999;0.41500
2352777;0.70000
2355555;0.90500
2358333;1.00500
2361110;0.95000
2363888;0.70500
2366666;0.31000
2369444;-0.11000
2372222;-0.38500
2374999;-0.48000
2377777;-0.47000
2380555;-0.43000
2383333;-0.37500
2386110;-0.36000
2388888;-0.36500
2391666;-0.39000
2394444;-0.37500
2397222;-0.37500
2399999;-0.36000
2402777;-0.36500
2405555;-0.38000
2408333;-0.39000
2411110;-0.39000
2413888;-0.39000
2416666;-0.38000
2419444;-0.38000
2422222;-0.39000
2424999;-0.40000
2427777;-0.39500
2430555;-0.38500
2433333;-0.37500
2436110;-0.38000
2438888;-0.38500
2441666;-0.39000
2444444;-0.38000
2447222;-0.38000
2449999;-0.37500
2452777;-0.36500
2455555;-0.37500
2458333;-0.38500
2461110;-0.39000
2463888;-0.37500
2466666;-0.37000
2469444;-0.37000
2472222;-0.39000
2474999;-0.40000
2477777;-0.40000
2480555;-0.39000
2483333;-0.37000
2486110;-0.36500
2488888;-0.38500
2491666;-0.39000
2494444;-0.38000
2497222;-0.36000
2499999;-0.35500
2502777;-0.36500
2505555;-0.37000
2508333;-0.37500
2511110;-0.37500
2513888;-0.38000
2516666;-0.37500
2519444;-0.37000
2522222;-0.37000
2524999;-0.39000
2527777;-0.38500
2530555;-0.36500
2533333;-0.36000
2536110;-0.37000
2538888;-0.38000
2541666;-0.38500
2544444;-0.38500
2547222;-0.38500
2549999;-0.37000
2552777;-0.37000
2555555;-0.38000
2558333;-0.39500
2561110;-0.38500
2563888;-0.37500
2566666;-0.36500
2569444;-0.37500
2572222;-0.37500
2574999;-0.39000
2577777;-0.38500
2580555;-0.37000
2583333;-0.36000
2586110;-0.37000
2588888;-0.38500
2591666;-0.39500
2594444;-0.38500
2597221;-0.39000
2599999;-0.38500
2602777;-0.38000
2605555;-0.39000
2608333;-0.41000
2611110;-0.39500
2613888;-0.38000
2616666;-0.37000
2619444;-0.37000
2622221;-0.37500
2624999;-0.38000
2627777;-0.38000
2630555;-0.37000
2633333;-0.37500
2636110;-0.36500
2638888;-0.37500
2641666;-0.37500
2644444;-0.36500
2647221;-0.37000
2649999;-0.34000
2652777;-0.34500
2655555;-0.34000
2658333;-0.33500
2661110;-0.32500
2663888;-0.31500
2666666;-0.29000
2669444;-0.29000
2672221;-0.28500
2674999;-0.28000
2677777;-0.28000
2680555;-0.26000
2683333;-0.27000
2686110;-0.26500
2688888;-0.27000
2691666;-0.28500
2694444;-0.27500
2697221;-0.27000
2699999;-0.26000
2702777;-0.25500
2705555;-0.27000
2708333;-0.28000
2711110;-0.29000
2713888;-0.27000
2716666;-0.26500
2719444;-0.27500
2722221;-0.28000
2724999;-0.28500
2727777;-0.28500
2730555;-0.27000
2733333;-0.27000
2736110;-0.26500
2738888;-0.27000
2741666;-0.29500
2744444;-0.29000
2747221;-0.27000
2749999;-0.27500
2752777;-0.28500
2755555;-0.30000
2758333;-0.30000
2761110;-0.30000
2763888;-0.30000
2766666;-0.29500
2769444;-0.30500
2772221;-0.30000
2774999;-0.31000
2777777;-0.31000
2780555;-0.31500
2783333;-0.30000
2786110;-0.31000
2788888;-0.31000
2791666;-0.32500
2794444;-0.32000
2797221;-0.31000
2799999;-0.31000
2802777;-0.31500
2805555;-0.34000
2808333;-0.33500
2811110;-0.33000
2813888;-0.30500
2816666;-0.31000
2819444;-0.30500
2822221;-0.32500
2824999;-0.33500
2827777;-0.32500
2830555;-0.33500
2833333;-0.32500
2836110;-0.33000
2838888;-0.35000
2841666;-0.36000
2844444;-0.33500
2847221;-0.32000
2849999;-0.31500
2852777;-0.32500
2855555;-0.33000
2858333;-0.34000
2861110;-0.35000
2863888;-0.32000
2866666;-0.32500
2869444;-0.32500
2872221;-0.33000
2874999;-0.34500
2877777;-0.32500
2880555;-0.32000
2883333;-0.31500
2886110;-0.30500
2888888;-0.32000
2891666;-0.32500
2894444;-0.33000
2897221;-0.31500
2899999;-0.32000
2902777;-0.31500
2905555;-0.34000
2908333;-0.36000
2911110;-0.35500
2913888;-0.33000
2916666;-0.31500
2919444;-0.32500
2922221;-0.31500
2924999;-0.32500
2927777;-0.30000
2930555;-0.29000
2933333;-0.26500
2936110;-0.25000
2938888;-0.25500
2941666;-0.27000
2944444;-0.27000
2947221;-0.26500
2949999;-0.25500
2952777;-0.24500
2955555;-0.24000
2958333;-0.24000
2961110;-0.23000
2963888;-0.21500
2966666;-0.21000
2969444;-0.21500
2972221;-0.22500
2974999;-0.23000
2977777;-0.23000
2980555;-0.22000
2983332;-0.21000
2986110;-0.23000
2988888;-0.24500
2991666;-0.24000
2994444;-0.24000
2997221;-0.25500
2999999;-0.25000
3002777;-0.24500
3005555;-0.22500
3008332;-0.22500
3011110;-0.25500
3013888;-0.28000
3016666;-0.29000
3019444;-0.32000
3022221;-0.33500
3024999;-0.36500
3027777;-0.35500
3030555;-0.35500
3033332;-0.35000
3036110;-0.34500
3038888;-0.34500
3041666;-0.36000
3044444;-0.35000
3047221;-0.35000
3049999;-0.35500
3052777;-0.36000
3055555;-0.36500
3058332;-0.35500
3061110;-0.35500
3063888;-0.35500
3066666;-0.35000
3069444;-0.35000
3072221;-0.37000
3074999;-0.38000
3077777;-0.38000
3080555;-0.37000
3083332;-0.36500
3086110;-0.35500
3088888;-0.37000
3091666;-0.37500
3094444;-0.37500
3097221;-0.36500
3099999;-0.37500
3102777;-0.42000
3105555;-0.45500
3108332;-0.48500
3111110;-0.49500
3113888;-0.53000
3116666;-0.56000
3119444;-0.54500
3122221;-0.45000
3124999;-0.34500
3127777;-0.18000
3130555;0.03000
3133332;0.27500
3136110;0.54500
3138888;0.74500
3141666;0.85500
3144444;0.82000
3147221;0.60000
3149999;0.22500
3152777;-0.15500
3155555;-0.40500
3158332;-0.52000
3161110;-0.51000
3163888;-0.47000
3166666;-0.42500
3169444;-0.40500
3172221;-0.41000
3174999;-0.42500
3177777;-0.41500
3180555;-0.39500
3183332;-0.39000
3186110;-0.40000
3188888;-0.40500
3191666;-0.43000
3194444;-0.41500
3197221;-0.41000
3199999;-0.39500
3202777;-0.40000
3205555;-0.41000
3208332;-0.43500
3211110;-0.43500
3213888;-0.43000
3216666;-0.41500
3219444;-0.42500
3222221;-0.42000
3224999;-0.44000
3227777;-0.42000
3230555;-0.43000
3233332;-0.41000
3236110;-0.42500
3238888;-0.42000
3241666;-0.42500
3244444;-0.40500
3247221;-0.39000
3249999;-0.39500
3252777;-0.40500
3255555;-0.43000
3258332;-0.44500
3261110;-0.45500
3263888;-0.45000
3266666;-0.43500
3269444;-0.42500
3272221;-0.41500
3274999;-0.42500
3277777;-0.43000
3280555;-0.43000
3283332;-0.42500
3286110;-0.42500
3288888;-0.42000
3291666;-0.45000
3294444;-0.44500
3297221;-0.42000
3299999;-0.42000
3302777;-0.41500
3305555;-0.43000
3308332;-0.43500
3311110;-0.43500
3313888;-0.43500
3316666;-0.43000
3319444;-0.43000
3322221;-0.43000
3324999;-0.44000
3327777;-0.44000
3330555;-0.41500
3333332;-0.41500
3336110;-0.44000
3338888;-0.45500
3341666;-0.45000
3344444;-0.45000
3347221;-0.43500
3349999;-0.43000
3352777;-0.44000
3355555;-0.43000
3358332;-0.44500
3361110;-0.43500
3363888;-0.44000
3366666;-0.43000
3369444;-0.44000
3372221;-0.46500
3374999;-0.48000
3377777;-0.48500
3380555;-0.48500
3383332;-0.48000
3386110;-0.48500
3388888;-0.47500
3391666;-0.48500
3394443;-0.49000
3397221;-0.47500
3399999;-0.47500
3402777;-0.48000
3405555;-0.50000
3408332;-0.50000
3411110;-0.49500
3413888;-0.49000
3416666;-0.46500
3419443;-0.46000
3422221;-0.47000
3424999;-0.48000
3427777;-0.46000
3430555;-0.44500
3433332;-0.43000
3436110;-0.41000
3438888;-0.40500
3441666;-0.40000
3444443;-0.38500
3447221;-0.37500
3449999;-0.36500
3452777;-0.35500
3455555;-0.35000
3458332;-0.34500
3461110;-0.33000
3463888;-0.31000
3466666;-0.31000
3469443;-0.30500
3472221;-0.30500
3474999;-0.31000
3477777;-0.28500
3480555;-0.29000
3483332;-0.28500
3486110;-0.28500
3488888;-0.28000
3491666;-0.28000
3494443;-0.26500
3497221;-0.26000
3499999;-0.24000
3502777;-0.23000
3505555;-0.21500
3508332;-0.20500
3511110;-0.20000
3513888;-0.19000
3516666;-0.18000
3519443;-0.19500
3522221;-0.19000
3524999;-0.19000
3527777;-0.18500
3530555;-0.17500
3533332;-0.14000
3536110;-0.12000
3538888;-0.10500
3541666;-0.11500
3544443;-0.17500
3547221;-0.20000
3549999;-0.20000
3552777;-0.22000
3555555;-0.23500
3558332;-0.26000
3561110;-0.28500
3563888;-0.29500
3566666;-0.29000
3569443;-0.28500
3572221;-0.29000
3574999;-0.30000
3577777;-0.31500
3580555;-0.32000
3583332;-0.31000
3586110;-0.33000
3588888;-0.33000
3591666;-0.34500
3594443;-0.35500
3597221;-0.35000
3599999;-0.34500
3602777;-0.35000
3605555;-0.37000
3608332;-0.38500
3611110;-0.39000
3613888;-0.39000
3616666;-0.38000
3619443;-0.37500
3622221;-0.38000
3624999;-0.40000
3627777;-0.39000
3630555;-0.39000
3633332;-0.39000
3636110;-0.38000
3638888;-0.39000
3641666;-0.40000
3644443;-0.40000
3647221;-0.38500
3649999;-0.37000
3652777;-0.38000
3655555;-0.38500
3658332;-0.39500
3661110;-0.39000
3663888;-0.38500
3666666;-0.38500
3669443;-0.39000
3672221;-0.38500
3674999;-0.39500
3677777;-0.39000
3680555;-0.38500
3683332;-0.37500
3686110;-0.38000
3688888;-0.39000
3691666;-0.42500
3694443;-0.47000
3697221;-0.50500
3699999;-0.52000
3702777;-0.54500
3705555;-0.56500
3708332;-0.52500
3711110;-0.40000
3713888;-0.22000
3716666;-0.02500
3719443;0.19000
3722221;0.42000
3724999;0.65000
3727777;0.86500
3730555;0.98500
3733332;0.95500
3736110;0.68500
3738888;0.24000
3741666;-0.19500
3744443;-0.45000
3747221;-0.51000
3749999;-0.50000
3752777;-0.49000
3755555;-0.47000
3758332;-0.46000
3761110;-0.43500
3763888;-0.42500
3766666;-0.41500
3769443;-0.41000
3772221;-0.41500
3774999;-0.41500
3777777;-0.42000
3780554;-0.41000
3783332;-0.41500
3786110;-0.40500
3788888;-0.41500
3791666;-0.43000
3794443;-0.42500
3797221;-0.41000
3799999;-0.41000
3802777;-0.41000
3805554;-0.42500
3808332;-0.43000
3811110;-0.43000
3813888;-0.41500
3816666;-0.39500
3819443;-0.41000
3822221;-0.41000
3824999;-0.42000
3827777;-0.42500
3830554;-0.41000
3833332;-0.41500
3836110;-0.41500
3838888;-0.42500
3841666;-0.42500
3844443;-0.42500
3847221;-0.40000
3849999;-0.40000
3852777;-0.41500
3855554;-0.41500
3858332;-0.44500
3861110;-0.42500
3863888;-0.41500
3866666;-0.41500
3869443;-0.41500
3872221;-0.42000
3874999;-0.43000
3877777;-0.43000
3880554;-0.41500
3883332;-0.40500
3886110;-0.41500
3888888;-0.41500
3891666;-0.43500
3894443;-0.43000
3897221;-0.42000
3899999;-0.42500
3902777;-0.41000
3905554;-0.42500
3908332;-0.43000
3911110;-0.43000
3913888;-0.42000
3916666;-0.41500
3919443;-0.42000
3922221;-0.42000
3924999;-0.43000
3927777;-0.42000
3930554;-0.41000
3933332;-0.41000
3936110;-0.41000
3938888;-0.41500
3941666;-0.42500
3944443;-0.43500
3947221;-0.42000
3949999;-0.42000
3952777;-0.42500
3955554;-0.41500
3958332;-0.44500
3961110;-0.44000
3963888;-0.43000
3966666;-0.43000
3969443;-0.44000
3972221;-0.44000
3974999;-0.46500
3977777;-0.46000
3980554;-0.46500
3983332;-0.45500
3986110;-0.46500
3988888;-0.46000
3991666;-0.48000
3994443;-0.46500
3997221;-0.44500
3999999;-0.44000
4002777;-0.43500
4005554;-0.43000
4008332;-0.43500
4011110;-0.41000
4013888;-0.40500
4016666;-0.38500
4019443;-0.38500
4022221;-0.37000
4024999;-0.38000
4027777;-0.36500
4030554;-0.35000
4033332;-0.34000
4036110;-0.33000
4038888;-0.32500
4041666;-0.33000
4044443;-0.32000
4047221;-0.31000
4049999;-0.29000
4052777;-0.29000
4055554;-0.30500
4058332;-0.31500
4061110;-0.31500
4063888;-0.30500
4066666;-0.29000
4069443;-0.28500
4072221;-0.29500
4074999;-0.31500
4077777;-0.31500
4080554;-0.29000
4083332;-0.29000
4086110;-0.29000
4088888;-0.31000
4091666;-0.31000
4094443;-0.31000
4097221;-0.30500
4099999;-0.29500
4102777;-0.31000
4105554;-0.32500
4108332;-0.31500
4111110;-0.32500
4113888;-0.32000
4116666;-0.30500
4119443;-0.31000
4122221;-0.31500
4124999;-0.33000
4127777;-0.33500
4130554;-0.31500
4133332;-0.30500
4136110;-0.30500
4138888;-0.31000
4141666;-0.32000
4144443;-0.31000
4147221;-0.30000
4149999;-0.31000
4152777;-0.31000
4155554;-0.30500
4158332;-0.32000
4161110;-0.32500
4163888;-0.30500
4166666;-0.31000
4169443;-0.31500
4172221;-0.31000
4174999;-0.33000
4177777;-0.31500
4180554;-0.31500
4183332;-0.30500
4186110;-0.31000
4188888;-0.32000
4191665;-0.34000
4194443;-0.33500
4197221;-0.31500
4199999;-0.30500
4202777;-0.31500
4205554;-0.32000
4208332;-0.34500
4211110;-0.33500
4213888;-0.33000
4216665;-0.31500
4219443;-0.31000
4222221;-0.33000
4224999;-0.33000
4227777;-0.32500
4230554;-0.31500
4233332;-0.31000
4236110;-0.31000
4238888;-0.31000
4241665;-0.33000
4244443;-0.33000
4247221;-0.31000
4249999;-0.29000
4252777;-0.30500
4255554;-0.31000
4258332;-0.30500
4261110;-0.31000
4263888;-0.30000
4266665;-0.30000
4269443;-0.30000
4272221;-0.31000
4274999;-0.32500
4277777;-0.31000
4280554;-0.31000
4283332;-0.30000
4286110;-0.30000
4288888;-0.31500
4291665;-0.32000
4294443;-0.32000
4297221;-0.31500
4299999;-0.31000
4302777;-0.30500
4305554;-0.31500
4308332;-0.32000
4311110;-0.31500
4313888;-0.30500
4316665;-0.29500
4319443;-0.30000
4322221;-0.30000
4324999;-0.32000
4327777;-0.31000
4330554;-0.31000
4333332;-0.29500
4336110;-0.30000
4338888;-0.31000
4341665;-0.31500
4344443;-0.31500
4347221;-0.30500
4349999;-0.30500
4352777;-0.31000
4355554;-0.31000
4358332;-0.32000
4361110;-0.32000
4363888;-0.31000
4366665;-0.32000
4369443;-0.31500
4372221;-0.33500
4374999;-0.33500
4377777;-0.34000
4380554;-0.32000
4383332;-0.31500
4386110;-0.31500
4388888;-0.32500
4391665;-0.33500
4394443;-0.33000
4397221;-0.31000
4399999;-0.31500
4402777;-0.30000
4405554;-0.31000
4408332;-0.32500
4411110;-0.31500
4413888;-0.31500
4416665;-0.30000
4419443;-0.31000
4422221;-0.31000
4424999;-0.32500
4427777;-0.32500
4430554;-0.31500
4433332;-0.30500
4436110;-0.30500
4438888;-0.30500
4441665;-0.32000
4444443;-0.32000
4447221;-0.31000
4449999;-0.30500
4452777;-0.31500
4455554;-0.31500
4458332;-0.33000
4461110;-0.33000
4463888;-0.32000
4466665;-0.31000
4469443;-0.32500
4472221;-0.32500
4474999;-0.33000
4477777;-0.33000
4480554;-0.31500
4483332;-0.31000
4486110;-0.31000
4488888;-0.31000
4491665;-0.32000
4494443;-0.32000
4497221;-0.30500
4499999;-0.30000
4502777;-0.29500
4505554;-0.30500
4508332;-0.30000
4511110;-0.29500
4513888;-0.27000
4516665;-0.26000
4519443;-0.25500
4522221;-0.25500
4524999;-0.26000
4527777;-0.25000
4530554;-0.24500
4533332;-0.23500
4536110;-0.22000
4538888;-0.23500
4541665;-0.23500
4544443;-0.24000
4547221;-0.23500
4549999;-0.22000
4552777;-0.21500
4555554;-0.21000
4558332;-0.21500
4561110;-0.22000
4563888;-0.21500
4566665;-0.20500
4569443;-0.22500
4572221;-0.23000
4574999;-0.23000
4577776;-0.21500
4580554;-0.21000
4583332;-0.20000
4586110;-0.21000
4588888;-0.20500
4591665;-0.20500
4594443;-0.18000
4597221;-0.19500
4599999;-0.21500
4602776;-0.24500
4605554;-0.26000
4608332;-0.27500
4611110;-0.29000
4613888;-0.29000
4616665;-0.31000
4619443;-0.31500
4622221;-0.33500
4624999;-0.34500
4627776;-0.33500
4630554;-0.34000
4633332;-0.32500
4636110;-0.33500
4638888;-0.33500
4641665;-0.33500
4644443;-0.34500
4647221;-0.34000
4649999;-0.34500
4652776;-0.35000
4655554;-0.35000
4658332;-0.36000
4661110;-0.34500
4663888;-0.34500
4666665;-0.34000
4669443;-0.33500
4672221;-0.34500
4674999;-0.34500
4677776;-0.34000
4680554;-0.35000
4683332;-0.33500
4686110;-0.33500
4688888;-0.34000
4691665;-0.36500
4694443;-0.36500
4697221;-0.37500
4699999;-0.40500
4702776;-0.45500
4705554;-0.48500
4708332;-0.51500
4711110;-0.53500
4713888;-0.54500
4716665;-0.50500
4719443;-0.39500
4722221;-0.23500
4724999;-0.07500
4727776;0.11500
4730554;0.35500
4733332;0.64500
4736110;0.88000
4738888;1.04500
4741665;1.07500
4744443;0.99500
4747221;0.73500
4749999;0.33000
4752776;-0.10500
4755554;-0.39500
4758332;-0.49000
4761110;-0.47500
4763888;-0.42500
4766665;-0.39000
4769443;-0.37500
4772221;-0.38500
4774999;-0.41500
4777776;-0.41000
4780554;-0.41500
4783332;-0.39000
4786110;-0.40500
4788888;-0.41500
4791665;-0.43000
4794443;-0.41500
4797221;-0.40500
4799999;-0.41500
4802776;-0.41000
4805554;-0.42000
4808332;-0.43000
4811110;-0.42000
4813888;-0.41500
4816665;-0.42000
4819443;-0.43000
4822221;-0.42000
4824999;-0.43500
4827776;-0.43500
4830554;-0.41500
4833332;-0.41000
4836110;-0.41500
4838888;-0.42500
4841665;-0.42500
4844443;-0.44000
4847221;-0.42000
4849999;-0.42000
4852776;-0.43000
4855554;-0.43000
4858332;-0.44500
4861110;-0.44000
4863888;-0.43000
4866665;-0.42000
4869443;-0.42000
4872221;-0.42000
4874999;-0.43500
4877776;-0.43500
4880554;-0.43000
4883332;-0.42000
4886110;-0.42000
4888888;-0.42000
4891665;-0.42500
4894443;-0.42500
4897221;-0.42000
4899999;-0.41000
4902776;-0.42000
4905554;-0.42500
4908332;-0.42000
4911110;-0.42500
4913888;-0.42000
4916665;-0.41500
4919443;-0.42000
4922221;-0.43000
4924999;-0.43000
4927776;-0.43000
4930554;-0.42000
4933332;-0.42000
4936110;-0.42500
4938888;-0.43500
4941665;-0.44000
4944443;-0.44000
4947221;-0.42000
4949999;-0.41500
4952776;-0.42000
4955554;-0.43000
4958332;-0.43500
4961110;-0.44000
4963887;-0.43000
4966665;-0.42000
4969443;-0.41500
4972221;-0.42000
4974999;-0.42000
4977776;-0.42000
4980554;-0.42000
4983332;-0.41500
4986110;-0.41500
4988887;-0.42000
4991665;-0.42000
4994443;-0.43000
4997221;-0.42000
4999999;-0.41500
5002776;-0.42500
5005554;-0.42500
5008332;-0.43500
5011110;-0.43500
5013887;-0.43000
5016665;-0.42500
5019443;-0.42500
5022221;-0.42000
5024999;-0.44000
5027776;-0.44500
5030554;-0.43500
5033332;-0.42500
5036110;-0.42500
5038887;-0.43000
5041665;-0.42500
5044443;-0.42500
5047221;-0.40000
5049999;-0.38000
5052776;-0.37500
5055554;-0.37500
5058332;-0.37000
5061110;-0.37000
5063887;-0.33000
5066665;-0.32000
5069443;-0.32000
5072221;-0.30000
5074999;-0.31500
5077776;-0.30500
5080554;-0.29000
5083332;-0.27500
5086110;-0.27000
5088887;-0.26500
5091665;-0.28500
5094443;-0.27000
5097221;-0.27500
5099999;-0.26000
5102776;-0.27000
5105554;-0.28000
5108332;-0.28500
5111110;-0.29000
5113887;-0.27000
5116665;-0.26500
5119443;-0.26000
5122221;-0.27500
5124999;-0.28000
5127776;-0.27500
5130554;-0.27000
5133332;-0.26000
5136110;-0.26000
5138887;-0.26000
5141665;-0.27000
5144443;-0.27000
5147221;-0.27000
5149999;-0.26000
5152776;-0.26500
5155554;-0.27000
5158332;-0.27000
5161110;-0.27000
5163887;-0.27500
5166665;-0.26500
5169443;-0.26000
5172221;-0.27500
5174999;-0.29000
5177776;-0.28000
5180554;-0.27500
5183332;-0.27000
5186110;-0.27000
5188887;-0.28000
5191665;-0.28500
5194443;-0.29500
5197221;-0.30000
5199999;-0.28000
5202776;-0.29000
5205554;-0.30000
5208332;-0.31000
5211110;-0.31000
5213887;-0.30000
5216665;-0.28500
5219443;-0.29500
5222221;-0.29000
5224999;-0.31500
5227776;-0.30500
5230554;-0.29500
5233332;-0.29500
5236110;-0.29500
5238887;-0.30500
5241665;-0.31500
5244443;-0.32500
5247221;-0.31500
5249999;-0.30500
5252776;-0.31500
5255554;-0.31500
5258332;-0.33000
5261110;-0.33000
5263887;-0.32500
5266665;-0.30500
5269443;-0.32500
5272221;-0.32500
5274999;-0.33500
5277776;-0.34500
5280554;-0.33000
5283332;-0.31500
5286110;-0.32500
5288887;-0.34000
5291665;-0.34500
5294443;-0.34500
5297221;-0.33500
5299999;-0.31000
5302776;-0.32500
5305554;-0.31500
5308332;-0.33000
5311110;-0.33500
5313887;-0.32000
5316665;-0.31500
5319443;-0.32000
5322221;-0.32500
5324999;-0.33500
5327776;-0.33000
5330554;-0.32000
5333332;-0.31000
5336110;-0.32000
5338887;-0.32000
5341665;-0.32500
5344443;-0.32500
5347221;-0.31000
5349999;-0.31000
5352776;-0.33000
5355554;-0.33000
5358332;-0.34000
5361110;-0.33000
5363887;-0.32500
5366665;-0.31500
5369443;-0.32500
5372221;-0.33000
5374998;-0.32500
5377776;-0.32500
5380554;-0.32000
5383332;-0.30500
5386110;-0.30500
5388887;-0.31500
5391665;-0.31500
5394443;-0.32000
5397221;-0.30500
5399998;-0.29500
5402776;-0.28000
5405554;-0.28000
5408332;-0.28000
5411110;-0.26000
5413887;-0.25000
5416665;-0.23000
5419443;-0.23500
5422221;-0.24000
5424998;-0.24000
5427776;-0.23000
5430554;-0.21500
5433332;-0.19500
5436110;-0.19000
5438887;-0.20000
5441665;-0.20500
5444443;-0.21500
5447221;-0.21500
5449998;-0.21500
5452776;-0.22000
5455554;-0.23500
5458332;-0.23500
5461110;-0.22500
5463887;-0.22500
5466665;-0.22000
5469443;-0.22500
5472221;-0.23500
5474998;-0.22500
5477776;-0.20000
5480554;-0.19500
5483332;-0.18500
5486110;-0.21500
5488887;-0.26500
5491665;-0.27500
5494443;-0.27500
5497221;-0.29000
5499998;-0.29000
5502776;-0.30000
5505554;-0.31000
5508332;-0.34000
5511110;-0.33500
5513887;-0.32500
5516665;-0.32000
5519443;-0.33000
5522221;-0.33500
5524998;-0.34500
5527776;-0.35000
5530554;-0.35000
5533332;-0.34500
5536110;-0.34000
5538887;-0.35000
5541665;-0.37500
5544443;-0.36500
5547221;-0.34500
5549998;-0.33000
5552776;-0.35000
5555554;-0.34500
5558332;-0.36000
5561110;-0.35500
5563887;-0.35000
5566665;-0.34000
5569443;-0.36500
5572221;-0.40500
5574998;-0.44500
5577776;-0.47000
5580554;-0.47500
5583332;-0.47000
5586110;-0.49000
5588887;-0.53500
5591665;-0.59000
5594443;-0.59000
5597221;-0.51500
5599998;-0.41000
5602776;-0.29000
5605554;-0.16500
5608332;-0.07000
5611110;0.09000
5613887;0.31000
5616665;0.55500
5619443;0.76500
5622221;0.94000
5624998;1.01000
5627776;0.96000
5630554;0.72000
5633332;0.33000
5636110;-0.10000
5638887;-0.39500
5641665;-0.49000
5644443;-0.48500
5647221;-0.41500
5649998;-0.37500
5652776;-0.37000
5655554;-0.39000
5658332;-0.39000
5661110;-0.40000
5663887;-0.39500
5666665;-0.38000
5669443;-0.38500
5672221;-0.40500
5674998;-0.41000
5677776;-0.41500
5680554;-0.40000
5683332;-0.38000
5686110;-0.39000
5688887;-0.40500
5691665;-0.41500
5694443;-0.42500
5697221;-0.41000
5699998;-0.39500
5702776;-0.39500
5705554;-0.41500
5708332;-0.42000
5711110;-0.42000
5713887;-0.40000
5716665;-0.39500
5719443;-0.39500
5722221;-0.40500
5724998;-0.42000
5727776;-0.39500
5730554;-0.39500
5733332;-0.38500
5736110;-0.39500
5738887;-0.40500
5741665;-0.40500
5744443;-0.42000
5747221;-0.40500
5749998;-0.39500
5752776;-0.40500
5755554;-0.41000
5758332;-0.41000
5761109;-0.42000
5763887;-0.41000
5766665;-0.39500
5769443;-0.39500
5772221;-0.40000
5774998;-0.41500
5777776;-0.42000
5780554;-0.40500
5783332;-0.40000
5786109;-0.40500
5788887;-0.41000
5791665;-0.41500
5794443;-0.41500
5797221;-0.41000
5799998;-0.39500
5802776;-0.39000
5805554;-0.40000
5808332;-0.41500
5811109;-0.41000
5813887;-0.40500
5816665;-0.40500
5819443;-0.40000
5822221;-0.41000
5824998;-0.42000
5827776;-0.42000
5830554;-0.42500
5833332;-0.41000
5836109;-0.41000
5838887;-0.41000
5841665;-0.42500
5844443;-0.43500
5847221;-0.41000
5849998;-0.40000
5852776;-0.40000
5855554;-0.41500
5858332;-0.42500
5861109;-0.41500
5863887;-0.41500
5866665;-0.40500
5869443;-0.41000
5872221;-0.41500
5874998;-0.42000
5877776;-0.42000
5880554;-0.41000
5883332;-0.40500
5886109;-0.41500
5888887;-0.42500
5891665;-0.42500
5894443;-0.41000
5897221;-0.41000
5899998;-0.39000
5902776;-0.40500
5905554;-0.40500
5908332;-0.40000
5911109;-0.41000
5913887;-0.39500
5916665;-0.37500
5919443;-0.37500
5922221;-0.36500
5924998;-0.36000
5927776;-0.34500
5930554;-0.33000
5933332;-0.30500
5936109;-0.32000
5938887;-0.31500
5941665;-0.31000
5944443;-0.30500
5947221;-0.29500
5949998;-0.28000
5952776;-0.28000
5955554;-0.28000
5958332;-0.28500
5961109;-0.28000
5963887;-0.28000
5966665;-0.26500
5969443;-0.28500
5972221;-0.29000
5974998;-0.29500
5977776;-0.30000
5980554;-0.28500
5983332;-0.28000
5986109;-0.28000
5988887;-0.28500
5991665;-0.30000
5994443;-0.32000
5997221;-0.30500
5999998;-0.28500
6002776;-0.29000
6005554;-0.30000
6008332;-0.30500
6011109;-0.30500
6013887;-0.30000
6016665;-0.30000
6019443;-0.31000
6022221;-0.31000
6024998;-0.31500
6027776;-0.32000
6030554;-0.30000
6033332;-0.29000
6036109;-0.30500
6038887;-0.30000
6041665;-0.31000
6044443;-0.31000
6047221;-0.31500
6049998;-0.30000
6052776;-0.31000
6055554;-0.32000
6058332;-0.33000
6061109;-0.33500
6063887;-0.33000
6066665;-0.31000
6069443;-0.32500
6072221;-0.33000
6074998;-0.35500
6077776;-0.35500
6080554;-0.35500
6083332;-0.34500
6086109;-0.34500
6088887;-0.35000
6091665;-0.36500
6094443;-0.37000
6097221;-0.37500
6099998;-0.36000
6102776;-0.34500
6105554;-0.34000
6108332;-0.35500
6111109;-0.34500
6113887;-0.34500
6116665;-0.33500
6119443;-0.36000
6122221;-0.34500
6124998;-0.35500
6127776;-0.36500
6130554;-0.35500
6133332;-0.33500
6136109;-0.33500
6138887;-0.35500
6141665;-0.36000
6144443;-0.36000
6147221;-0.35000
6149998;-0.33500
6152776;-0.34000
6155554;-0.35500
6158332;-0.36000
6161109;-0.37000
6163887;-0.36000
6166665;-0.34500
6169443;-0.34500
6172220;-0.34000
6174998;-0.35000
6177776;-0.35500
6180554;-0.34500
6183332;-0.34000
6186109;-0.35500
6188887;-0.35500
6191665;-0.36500
6194443;-0.36500
6197220;-0.36000
6199998;-0.34500
6202776;-0.33500
6205554;-0.36500
6208332;-0.36500
6211109;-0.36000
6213887;-0.36000
6216665;-0.34500
6219443;-0.34500
6222220;-0.34000
6224998;-0.35000
6227776;-0.34500
6230554;-0.34500
6233332;-0.34000
6236109;-0.34000
6238887;-0.34500
6241665;-0.34500
6244443;-0.33500
6247220;-0.32000
6249998;-0.30500
6252776;-0.31000
6255554;-0.31000
6258332;-0.31000
6261109;-0.31000
6263887;-0.29500
6266665;-0.28000
6269443;-0.28000
6272220;-0.27500
6274998;-0.27500
6277776;-0.27500
6280554;-0.25500
6283332;-0.23000
6286109;-0.22500
6288887;-0.23500
6291665;-0.25500
6294443;-0.27000
6297220;-0.27000
6299998;-0.24500
6302776;-0.25000
6305554;-0.26500
6308332;-0.28500
6311109;-0.29500
6313887;-0.29000
6316665;-0.25500
6319443;-0.24500
6322220;-0.26000
6324998;-0.28500
6327776;-0.33000
6330554;-0.32500
6333332;-0.33500
6336109;-0.35000
6338887;-0.37000
6341665;-0.39500
6344443;-0.40500
6347220;-0.39000
6349998;-0.38000
6352776;-0.39000
6355554;-0.38500
6358332;-0.39500
6361109;-0.39500
6363887;-0.40000
6366665;-0.39000
6369443;-0.38500
6372220;-0.39500
6374998;-0.38500
6377776;-0.39000
6380554;-0.39000
6383332;-0.39000
6386109;-0.40000
6388887;-0.39500
6391665;-0.41000
6394443;-0.40500
6397220;-0.38500
6399998;-0.36500
6402776;-0.37500
6405554;-0.39500
6408332;-0.40000
6411109;-0.41000
6413887;-0.39500
6416665;-0.41500
6419443;-0.45000
6422220;-0.49000
6424998;-0.51000
6427776;-0.54000
6430554;-0.56500
6433332;-0.60000
6436109;-0.56000
6438887;-0.48500
6441665;-0.35500
6444443;-0.21000
6447220;0.00000
6449998;0.26000
6452776;0.53500
6455554;0.76500
6458332;0.86500
6461109;0.81500
6463887;0.62000
6466665;0.26000
6469443;-0.14000
6472220;-0.42500
6474998;-0.54500
6477776;-0.57000
6480554;-0.52000
6483332;-0.47000
6486109;-0.46000
6488887;-0.47500
6491665;-0.49000
6494443;-0.49000
6497220;-0.45500
6499998;-0.45000
6502776;-0.47000
6505554;-0.48000
6508332;-0.48500
6511109;-0.48000
6513887;-0.47000
6516665;-0.44000
6519443;-0.44500
6522220;-0.44000
6524998;-0.45500
6527776;-0.46000
6530554;-0.46500
6533332;-0.46000
6536109;-0.45000
6538887;-0.45000
6541665;-0.46000
6544443;-0.45500
6547220;-0.44000
6549998;-0.42000
6552776;-0.42000
6555554;-0.43000
6558331;-0.44500
6561109;-0.46000
6563887;-0.45500
6566665;-0.46000
6569443;-0.46000
6572220;-0.48000
6574998;-0.48500
6577776;-0.48500
6580554;-0.47500
6583331;-0.46500
6586109;-0.48500
6588887;-0.50000
6591665;-0.49500
6594443;-0.50000
6597220;-0.47500
6599998;-0.47500
6602776;-0.47000
6605554;-0.47000
6608331;-0.48500
6611109;-0.47500
6613887;-0.46000
6616665;-0.44000
6619443;-0.44500
6622220;-0.45500
6624998;-0.47500
6627776;-0.48500
6630554;-0.49000
6633331;-0.47500
6636109;-0.47500
6638887;-0.48500
6641665;-0.48500
6644443;-0.49000
6647220;-0.48500
6649998;-0.47500
6652776;-0.48000
6655554;-0.49000
6658331;-0.49000
6661109;-0.49500
6663887;-0.47500
6666665;-0.45500
6669443;-0.45000
6672220;-0.47500
6674998;-0.49000
6677776;-0.50500
6680554;-0.51500
6683331;-0.49000
6686109;-0.48500
6688887;-0.49500
6691665;-0.49500
6694443;-0.51500
6697220;-0.49000
6699998;-0.48000
6702776;-0.49000
6705554;-0.50000
6708331;-0.52000
6711109;-0.54000
6713887;-0.51500
6716665;-0.53000
6719443;-0.53500
6722220;-0.54500
6724998;-0.55000
6727776;-0.54500
6730554;-0.53000
6733331;-0.51500
6736109;-0.51000
6738887;-0.51500
6741665;-0.50000
6744443;-0.49000
6747220;-0.46500
6749998;-0.45000
6752776;-0.44500
6755554;-0.43000
6758331;-0.43000
6761109;-0.42000
6763887;-0.40000
6766665;-0.37500
6769443;-0.37000
6772220;-0.38000
6774998;-0.38000
6777776;-0.38000
6780554;-0.36500
6783331;-0.34500
6786109;-0.34500
6788887;-0.37500
6791665;-0.36500
6794443;-0.38000
6797220;-0.35500
6799998;-0.33500
6802776;-0.33000
6805554;-0.34000
6808331;-0.35500
6811109;-0.35500
6813887;-0.35000
6816665;-0.34000
6819443;-0.34500
6822220;-0.33500
6824998;-0.36000
6827776;-0.36500
6830554;-0.36000
6833331;-0.34500
6836109;-0.35000
6838887;-0.36000
6841665;-0.36500
6844443;-0.36500
6847220;-0.36500
6849998;-0.36500
6852776;-0.37500
6855554;-0.38500
6858331;-0.39000
6861109;-0.39000
6863887;-0.37500
6866665;-0.35000
6869443;-0.33000
6872220;-0.34000
6874998;-0.35000
6877776;-0.36500
6880554;-0.36000
6883331;-0.34000
6886109;-0.35000
6888887;-0.36500
6891665;-0.38000
6894443;-0.39000
6897220;-0.39000
6899998;-0.38000
6902776;-0.37500
6905554;-0.39000
6908331;-0.40500
6911109;-0.40500
6913887;-0.39500
6916665;-0.36500
6919443;-0.37500
6922220;-0.38000
6924998;-0.39000
6927776;-0.39500
6930554;-0.39500
6933331;-0.39000
6936109;-0.38500
6938887;-0.40000
6941665;-0.41000
6944442;-0.41000
6947220;-0.40500
6949998;-0.39500
6952776;-0.39500
6955554;-0.41000
6958331;-0.42000
6961109;-0.41500
6963887;-0.40500
6966665;-0.38000
6969442;-0.37500
6972220;-0.38500
6974998;-0.39000
6977776;-0.39500
6980554;-0.38500
6983331;-0.38500
6986109;-0.39000
6988887;-0.39500
6991665;-0.39000
6994442;-0.38000
6997220;-0.37500
6999998;-0.38500
7002776;-0.39000
7005554;-0.39000
7008331;-0.38500
7011109;-0.40500
7013887;-0.40500
7016665;-0.39000
7019442;-0.38500
7022220;-0.37500
7024998;-0.39000
7027776;-0.41000
7030554;-0.39000
7033331;-0.38000
7036109;-0.38500
7038887;-0.38000
7041665;-0.38500
7044442;-0.38500
7047220;-0.38000
7049998;-0.37500
7052776;-0.36000
7055554;-0.35000
7058331;-0.34000
7061109;-0.34500
7063887;-0.35000
7066665;-0.34000
7069442;-0.34000
7072220;-0.33500
7074998;-0.34000
7077776;-0.34000
7080554;-0.32000
7083331;-0.30000
7086109;-0.28000
7088887;-0.30000
7091665;-0.30500
7094442;-0.31000
7097220;-0.29000
7099998;-0.29000
7102776;-0.28000
7105554;-0.30000
7108331;-0.30000
7111109;-0.30500
7113887;-0.30000
7116665;-0.29000
7119442;-0.30000
7122220;-0.32000
7124998;-0.33500
7127776;-0.32500
7130554;-0.29500
7133331;-0.28000
7136109;-0.30500
7138887;-0.34000
7141665;-0.36000
7144442;-0.39000
7147220;-0.39500
7149998;-0.40500
7152776;-0.39500
7155554;-0.40500
7158331;-0.40000
7161109;-0.40500
7163887;-0.40500
7166665;-0.39000
7169442;-0.38000
7172220;-0.39500
7174998;-0.41000
7177776;-0.40500
7180554;-0.40000
7183331;-0.39000
7186109;-0.39000
7188887;-0.40000
7191665;-0.41500
7194442;-0.42000
7197220;-0.41000
7199998;-0.39500
7202776;-0.40000
7205554;-0.41500
7208331;-0.42500
7211109;-0.42000
7213887;-0.42500
7216665;-0.42500
7219442;-0.45000
7222220;-0.49000
7224998;-0.52500
7227776;-0.54000
7230554;-0.55500
7233331;-0.58500
7236109;-0.56000
7238887;-0.48000
7241665;-0.34500
7244442;-0.18000
7247220;0.03000
7249998;0.30000
7252776;0.58500
7255554;0.82500
7258331;0.97500
7261109;0.98000
7263887;0.80500
7266665;0.43500
7269442;-0.00500
7272220;-0.33500
7274998;-0.49000
7277776;-0.53500
7280554;-0.54500
7283331;-0.52500
7286109;-0.49000
7288887;-0.46000
7291665;-0.46000
7294442;-0.45500
7297220;-0.44500
7299998;-0.43500
7302776;-0.43500
7305554;-0.44000
7308331;-0.44500
7311109;-0.44500
7313887;-0.44000
7316665;-0.44500
7319442;-0.43500
7322220;-0.43000
7324998;-0.43000
7327776;-0.44500
7330554;-0.43000
7333331;-0.42500
7336109;-0.42000
7338887;-0.42500
7341665;-0.44000
7344442;-0.42500
7347220;-0.42000
7349998;-0.43000
7352776;-0.42500
7355553;-0.42000
7358331;-0.43000
7361109;-0.44000
7363887;-0.41500
7366665;-0.41000
7369442;-0.41500
7372220;-0.42000
7374998;-0.43000
7377776;-0.42500
7380553;-0.42000
7383331;-0.42000
7386109;-0.41500
7388887;-0.41500
7391665;-0.42500
7394442;-0.43000
7397220;-0.42000
7399998;-0.41000
7402776;-0.40000
7405553;-0.41500
7408331;-0.42000
7411109;-0.43000
7413887;-0.42000
7416665;-0.41000
7419442;-0.41000
7422220;-0.41000
7424998;-0.43000
7427776;-0.44000
7430553;-0.42500
7433331;-0.42500
7436109;-0.41500
7438887;-0.41500
7441665;-0.42500
7444442;-0.43000
7447220;-0.42000
7449998;-0.41000
7452776;-0.41000
7455553;-0.41000
7458331;-0.41500
7461109;-0.42500
7463887;-0.41500
7466665;-0.39000
7469442;-0.39500
7472220;-0.42500
7474998;-0.43500
7477776;-0.43000
7480553;-0.43000
7483331;-0.42000
7486109;-0.42000
7488887;-0.42000
7491665;-0.44000
7494442;-0.46000
7497220;-0.44500
7499998;-0.44000
7502776;-0.44000
7505553;-0.46000
7508331;-0.47000
7511109;-0.47000
7513887;-0.46500
7516665;-0.45500
7519442;-0.45000
7522220;-0.45500
7524998;-0.47000
7527776;-0.46000
7530553;-0.45500
7533331;-0.42000
7536109;-0.41500
7538887;-0.41000
7541665;-0.41500
7544442;-0.40000
7547220;-0.37500
7549998;-0.35000
7552776;-0.34000
7555553;-0.32500
7558331;-0.33000
7561109;-0.32500
7563887;-0.30500
7566665;-0.29500
7569442;-0.29000
7572220;-0.29000
7574998;-0.28000
7577776;-0.28000
7580553;-0.27000
7583331;-0.26000
7586109;-0.26000
7588887;-0.26000
7591665;-0.27500
7594442;-0.27000
7597220;-0.25000
7599998;-0.25000
7602776;-0.25000
7605553;-0.25500
7608331;-0.26500
7611109;-0.26500
7613887;-0.25000
7616665;-0.24000
7619442;-0.25500
7622220;-0.25000
7624998;-0.26000
7627776;-0.27000
7630553;-0.25000
7633331;-0.24500
7636109;-0.25000
7638887;-0.26500
7641665;-0.28000
7644442;-0.26000
7647220;-0.26000
7649998;-0.25500
7652776;-0.25000
7655553;-0.27500
7658331;-0.28000
7661109;-0.28000
7663887;-0.27500
7666665;-0.27500
7669442;-0.27500
7672220;-0.27500
7674998;-0.30000
7677776;-0.30500
7680553;-0.28500
7683331;-0.27500
7686109;-0.27500
7688887;-0.27500
7691665;-0.28000
7694442;-0.28500
7697220;-0.27500
7699998;-0.28000
7702776;-0.27500
7705553;-0.29000
7708331;-0.28500
7711109;-0.30500
7713887;-0.29000
7716665;-0.28000
7719442;-0.28500
7722220;-0.29500
7724998;-0.30500
7727776;-0.31500
7730553;-0.30500
7733331;-0.29000
7736109;-0.29000
7738887;-0.29000
7741664;-0.30000
7744442;-0.29500
7747220;-0.28500
7749998;-0.28000
7752776;-0.28000
7755553;-0.28500
7758331;-0.29500
7761109;-0.29000
7763887;-0.28000
7766664;-0.27000
7769442;-0.26000
7772220;-0.29000
7774998;-0.29000
7777776;-0.30000
7780553;-0.29500
7783331;-0.27500
7786109;-0.27500
7788887;-0.28000
7791664;-0.30000
7794442;-0.28500
7797220;-0.28500
7799998;-0.27500
7802776;-0.28000
7805553;-0.28000
7808331;-0.29000
7811109;-0.29500
7813887;-0.29000
7816664;-0.28500
7819442;-0.29500
7822220;-0.28500
7824998;-0.29000
7827776;-0.28500
7830553;-0.27000
7833331;-0.26500
7836109;-0.27000
7838887;-0.28000
7841664;-0.28500
7844442;-0.29000
7847220;-0.28000
7849998;-0.27000
7852776;-0.27000
7855553;-0.27500
7858331;-0.27500
7861109;-0.28000
7863887;-0.26000
7866664;-0.24500
7869442;-0.23500
7872220;-0.22500
7874998;-0.22000
7877776;-0.22000
7880553;-0.21000
7883331;-0.20000
7886109;-0.19000
7888887;-0.19500
7891664;-0.18500
7894442;-0.18500
7897220;-0.17500
7899998;-0.15500
7902776;-0.15500
7905553;-0.15500
7908331;-0.16500
7911109;-0.17500
7913887;-0.19000
7916664;-0.17500
7919442;-0.17500
7922220;-0.19000
7924998;-0.20000
7927776;-0.18500
7930553;-0.18000
7933331;-0.18500
7936109;-0.20000
7938887;-0.19000
7941664;-0.18000
7944442;-0.17000
7947220;-0.17000
7949998;-0.19500
7952776;-0.22500
7955553;-0.24500
7958331;-0.26500
7961109;-0.28000
7963887;-0.27500
7966664;-0.28000
7969442;-0.29000
7972220;-0.29000
7974998;-0.30000
7977776;-0.30500
7980553;-0.30000
7983331;-0.27500
7986109;-0.29500
7988887;-0.30500
7991664;-0.31000
7994442;-0.31500
7997220;-0.31500
7999998;-0.30500
8002776;-0.30500
8005553;-0.31500
8008331;-0.32000
8011109;-0.32500
8013887;-0.32000
8016664;-0.30500
8019442;-0.29500
8022220;-0.30000
8024998;-0.30500
8027776;-0.31500
8030553;-0.31500
8033331;-0.33000
8036109;-0.38000
8038887;-0.41000
8041664;-0.43500
8044442;-0.47000
8047220;-0.49500
8049998;-0.49000
8052776;-0.39000
8055553;-0.23000
8058331;-0.04000
8061109;0.17500
8063887;0.48000
8066664;0.79000
8069442;1.04500
8072220;1.17500
8074998;1.12000
8077776;0.80500
8080553;0.32000
8083331;-0.14500
8086109;-0.40500
8088887;-0.45500
8091664;-0.40500
8094442;-0.35000
8097220;-0.32000
8099998;-0.32000
8102776;-0.32500
8105553;-0.33000
8108331;-0.35000
8111109;-0.35500
8113887;-0.33500
8116664;-0.35000
8119442;-0.34000
8122220;-0.35500
8124998;-0.35500
8127776;-0.36000
8130553;-0.36000
8133331;-0.35000
8136109;-0.35500
8138887;-0.37000
8141664;-0.36500
8144442;-0.37000
8147220;-0.36500
8149998;-0.35000
8152775;-0.36000
8155553;-0.37000
8158331;-0.38500
8161109;-0.37000
8163887;-0.37000
8166664;-0.36500
8169442;-0.36500
8172220;-0.37000
8174998;-0.36500
8177775;-0.37000
8180553;-0.36000
8183331;-0.35500
8186109;-0.35500
8188887;-0.37500
8191664;-0.35500
8194442;-0.36500
8197220;-0.35500
8199998;-0.35000
8202775;-0.35000
8205553;-0.37000
8208331;-0.37500
8211109;-0.38500
8213887;-0.38000
8216664;-0.36000
8219442;-0.36000
8222220;-0.36500
8224998;-0.37500
8227775;-0.36500
8230553;-0.37500
8233331;-0.36500
8236109;-0.36000
8238887;-0.35500
8241664;-0.35500
8244442;-0.36500
8247220;-0.37000
8249998;-0.35500
8252775;-0.34500
8255553;-0.36500
8258331;-0.36000
8261109;-0.36000
8263887;-0.35000
8266664;-0.35000
8269442;-0.34500
8272220;-0.36000
8274998;-0.37000
8277775;-0.38000
8280553;-0.37000
8283331;-0.37500
8286109;-0.38000
8288887;-0.39000
8291664;-0.40000
8294442;-0.40500
8297220;-0.38500
8299998;-0.38500
8302775;-0.37000
8305553;-0.38500
8308331;-0.38500
8311109;-0.39000
8313887;-0.37000
8316664;-0.38000
8319442;-0.37000
8322220;-0.37000
8324998;-0.39000
8327775;-0.40000
8330553;-0.38000
8333331;-0.36500
8336109;-0.36000
8338887;-0.35500
8341664;-0.36000
8344442;-0.36000
8347220;-0.33500
8349998;-0.31500
8352775;-0.32000
8355553;-0.31500
8358331;-0.31000
8361109;-0.30000
8363887;-0.28500
8366664;-0.26500
8369442;-0.26000
8372220;-0.25000
8374998;-0.25500
8377775;-0.25000
8380553;-0.24500
8383331;-0.22500
8386109;-0.22000
8388887;-0.23000
8391664;-0.23000
8394442;-0.23000
8397220;-0.22500
8399998;-0.23000
8402775;-0.22000
8405553;-0.22500
8408331;-0.23000
8411109;-0.24000
8413887;-0.23000
8416664;-0.22500
8419442;-0.23000
8422220;-0.24500
8424998;-0.24000
8427775;-0.25000
8430553;-0.24500
8433331;-0.23500
8436109;-0.23000
8438887;-0.24000
8441664;-0.25000
8444442;-0.26500
8447220;-0.25000
8449998;-0.24500
8452775;-0.25000
8455553;-0.25000
8458331;-0.25500
8461109;-0.25500
8463887;-0.26000
8466664;-0.25000
8469442;-0.25000
8472220;-0.25500
8474998;-0.26000
8477775;-0.27500
8480553;-0.26000
8483331;-0.25500
8486109;-0.26000
8488887;-0.26500
8491664;-0.27000
8494442;-0.28000
8497220;-0.27500
8499998;-0.27000
8502775;-0.27000
8505553;-0.27500
8508331;-0.28000
8511109;-0.28000
8513887;-0.28500
8516664;-0.27000
8519442;-0.29000
8522220;-0.29000
8524998;-0.29000
8527775;-0.30500
8530553;-0.29000
8533331;-0.28500
8536109;-0.28500
8538886;-0.29500
8541664;-0.30500
8544442;-0.31500
8547220;-0.29000
8549998;-0.28500
8552775;-0.29000
8555553;-0.28500
8558331;-0.29000
8561109;-0.30500
8563886;-0.29000
8566664;-0.28000
8569442;-0.29000
8572220;-0.29500
8574998;-0.29000
8577775;-0.30000
8580553;-0.30000
8583331;-0.28000
8586109;-0.28500
8588886;-0.30000
8591664;-0.30000
8594442;-0.31000
8597220;-0.29500
8599998;-0.29000
8602775;-0.30000
8605553;-0.29500
8608331;-0.31000
8611109;-0.31000
8613886;-0.30000
8616664;-0.29500
8619442;-0.29000
8622220;-0.28000
8624998;-0.29000
8627775;-0.28500
8630553;-0.28000
8633331;-0.27500
8636109;-0.27000
8638886;-0.28000
8641664;-0.28500
8644442;-0.29000
8647220;-0.28000
8649998;-0.27500
8652775;-0.27500
8655553;-0.26500
8658331;-0.26500
8661109;-0.27000
8663886;-0.25000
8666664;-0.22000
8669442;-0.22000
8672220;-0.21500
8674998;-0.22000
8677775;-0.23000
8680553;-0.21500
8683331;-0.19500
8686109;-0.19000
8688886;-0.18000
8691664;-0.17500
8694442;-0.17500
8697220;-0.17500
8699998;-0.16500
8702775;-0.16000
8705553;-0.18000
8708331;-0.19500
8711109;-0.19500
8713886;-0.18500
8716664;-0.18500
8719442;-0.19000
8722220;-0.18500
8724998;-0.21500
8727775;-0.20500
8730553;-0.18000
8733331;-0.14500
8736109;-0.15000
8738886;-0.18000
8741664;-0.20500
8744442;-0.24500
8747220;-0.23500
8749998;-0.24000
8752775;-0.26000
8755553;-0.27500
8758331;-0.28500
8761109;-0.29000
8763886;-0.29500
8766664;-0.29000
8769442;-0.30000
8772220;-0.30500
8774998;-0.29000
8777775;-0.30000
8780553;-0.28500
8783331;-0.28500
8786109;-0.28000
8788886;-0.29500
8791664;-0.31000
8794442;-0.32500
8797220;-0.30500
8799998;-0.28500
8802775;-0.31000
8805553;-0.31000
8808331;-0.31000
8811109;-0.31000
8813886;-0.30000
8816664;-0.30500
8819442;-0.30000
8822220;-0.31500
8824998;-0.33500
8827775;-0.36500
8830553;-0.40000
8833331;-0.42500
8836109;-0.44000
8838886;-0.48000
8841664;-0.51500
8844442;-0.49500
8847220;-0.38000
8849998;-0.21000
8852775;-0.02500
8855553;0.16500
8858331;0.43000
8861109;0.73000
8863886;0.97500
8866664;1.11000
8869442;1.10000
8872220;0.90500
8874998;0.51500
8877775;0.09500
8880553;-0.23500
8883331;-0.40000
8886109;-0.47000
8888886;-0.46500
8891664;-0.46000
8894442;-0.43000
8897220;-0.38000
8899998;-0.32500
8902775;-0.32500
8905553;-0.35000
8908331;-0.37000
8911109;-0.36500
8913886;-0.35000
8916664;-0.35000
8919442;-0.36000
8922220;-0.36000
8924998;-0.37000
8927775;-0.37500
8930553;-0.35500
8933331;-0.34500
8936109;-0.35000
8938886;-0.35500
8941664;-0.36000
8944442;-0.36500
8947220;-0.35500
8949997;-0.34000
8952775;-0.34000
8955553;-0.35500
8958331;-0.35000
8961109;-0.36000
8963886;-0.36500
8966664;-0.34000
8969442;-0.35500
8972220;-0.35500
8974997;-0.36000
8977775;-0.36000
8980553;-0.37000
8983331;-0.36000
8986109;-0.36500
8988886;-0.36000
8991664;-0.35500
8994442;-0.37000
8997220;-0.37000
8999997;-0.36000
9002775;-0.36000
9005553;-0.36000
9008331;-0.36500
9011109;-0.37000
9013886;-0.35000
9016664;-0.35000
9019442;-0.34500
9022220;-0.35000
9024997;-0.37000
9027775;-0.38000
9030553;-0.36500
9033331;-0.36000
9036109;-0.36000
9038886;-0.36500
9041664;-0.37500
9044442;-0.38500
9047220;-0.37000
9049997;-0.36500
9052775;-0.35500
9055553;-0.36500
9058331;-0.36500
9061109;-0.37000
9063886;-0.38000
9066664;-0.36000
9069442;-0.36500
9072220;-0.36500
9074997;-0.37000
9077775;-0.38500
9080553;-0.37000
9083331;-0.36000
9086109;-0.36500
9088886;-0.37000
9091664;-0.36500
9094442;-0.37500
9097220;-0.38000
9099997;-0.37000
9102775;-0.37500
9105553;-0.37500
9108331;-0.39000
9111109;-0.39500
9113886;-0.39000
9116664;-0.39000
9119442;-0.38000
9122220;-0.39000
9124997;-0.38500
9127775;-0.39000
9130553;-0.38500
9133331;-0.37000
9136109;-0.36000
9138886;-0.37500
9141664;-0.37000
9144442;-0.37000
9147220;-0.35000
9149997;-0.33500
9152775;-0.32500
9155553;-0.32500
9158331;-0.31500
9161109;-0.32500
9163886;-0.31000
9166664;-0.29500
9169442;-0.28000
9172220;-0.28000
9174997;-0.29500
9177775;-0.29000
9180553;-0.27500
9183331;-0.25500
9186109;-0.24500
9188886;-0.24500
9191664;-0.25000
9194442;-0.25500
9197220;-0.24500
9199997;-0.24000
9202775;-0.23000
9205553;-0.24000
9208331;-0.24000
9211109;-0.25000
9213886;-0.23500
9216664;-0.23500
9219442;-0.23000
9222220;-0.24000
9224997;-0.23500
9227775;-0.24500
9230553;-0.23500
9233331;-0.22500
9236109;-0.23500
9238886;-0.23000
9241664;-0.23500
9244442;-0.23500
9247220;-0.23000
9249997;-0.23000
9252775;-0.22500
9255553;-0.24000
9258331;-0.25000
9261109;-0.26000
9263886;-0.26000
9266664;-0.25000
9269442;-0.25000
9272220;-0.24500
9274997;-0.25500
9277775;-0.26500
9280553;-0.25500
9283331;-0.25000
9286109;-0.24000
9288886;-0.24000
9291664;-0.25500
9294442;-0.25500
9297220;-0.25500
9299997;-0.24500
9302775;-0.24500
9305553;-0.24500
9308331;-0.26500
9311109;-0.26500
9313886;-0.25500
9316664;-0.25500
9319442;-0.26500
9322220;-0.26000
9324997;-0.27000
9327775;-0.28500
9330553;-0.27500
9333331;-0.26500
9336108;-0.27500
9338886;-0.27500
9341664;-0.29000
9344442;-0.30500
9347220;-0.29500
9349997;-0.27500
9352775;-0.26500
9355553;-0.28500
9358331;-0.28500
9361108;-0.29500
9363886;-0.29000
9366664;-0.28000
9369442;-0.27000
9372220;-0.27500
9374997;-0.29000
9377775;-0.29000
9380553;-0.28500
9383331;-0.27500
9386108;-0.26500
9388886;-0.26500
9391664;-0.27500
9394442;-0.27500
9397220;-0.27000
9399997;-0.27500
9402775;-0.26500
9405553;-0.28500
9408331;-0.29500
9411108;-0.29000
9413886;-0.27500
9416664;-0.26500
9419442;-0.27000
9422220;-0.27500
9424997;-0.28000
9427775;-0.29500
9430553;-0.27500
9433331;-0.27500
9436108;-0.25500
9438886;-0.26500
9441664;-0.27500
9444442;-0.27000
9447220;-0.27000
9449997;-0.26000
9452775;-0.26000
9455553;-0.27000
9458331;-0.26500
9461108;-0.27500
9463886;-0.25500
9466664;-0.25000
9469442;-0.24500
9472220;-0.25000
9474997;-0.26000
9477775;-0.24500
9480553;-0.23000
9483331;-0.20000
9486108;-0.19500
9488886;-0.21000
9491664;-0.22500
9494442;-0.23000
9497220;-0.21500
9499997;-0.20500
9502775;-0.17500
9505553;-0.18000
9508331;-0.19000
9511108;-0.18500
9513886;-0.16000
9516664;-0.14500
9519442;-0.15500
9522220;-0.16000
9524997;-0.18000
9527775;-0.18000
9530553;-0.18500
9533331;-0.18500
9536108;-0.18000
9538886;-0.18500
9541664;-0.18500
9544442;-0.19500
9547220;-0.18500
9549997;-0.17000
9552775;-0.14000
9555553;-0.13500
9558331;-0.15500
9561108;-0.19000
9563886;-0.21000
9566664;-0.21500
9569442;-0.23500
9572220;-0.26500
9574997;-0.28000
9577775;-0.29500
9580553;-0.30000
9583331;-0.29500
9586108;-0.30000
9588886;-0.28000
9591664;-0.30000
9594442;-0.30500
9597220;-0.30000
9599997;-0.28500
9602775;-0.29000
9605553;-0.30000
9608331;-0.32000
9611108;-0.32000
9613886;-0.31000
9616664;-0.30500
9619442;-0.30500
9622220;-0.31000
9624997;-0.32000
9627775;-0.32000
9630553;-0.31000
9633331;-0.30000
9636108;-0.30000
9638886;-0.32500
9641664;-0.33500
9644442;-0.34000
9647220;-0.32000
9649997;-0.31500
9652775;-0.31500
9655553;-0.32500
9658331;-0.37500
9661108;-0.41500
9663886;-0.44000
9666664;-0.46000
9669442;-0.49500
9672220;-0.52000
9674997;-0.52500
9677775;-0.44000
9680553;-0.30000
9683331;-0.16000
9686108;0.00500
9688886;0.20500
9691664;0.46500
9694442;0.71500
9697220;0.92000
9699997;0.97500
9702775;0.85500
9705553;0.56000
9708331;0.15500
9711108;-0.21500
9713886;-0.40500
9716664;-0.46500
9719442;-0.43000
9722220;-0.38000
9724997;-0.37000
9727775;-0.38000
9730553;-0.37500
9733331;-0.35500
9736108;-0.34500
9738886;-0.35000
9741664;-0.36000
9744442;-0.37000
9747219;-0.36000
9749997;-0.34500
9752775;-0.34500
9755553;-0.35500
9758331;-0.36000
9761108;-0.36000
9763886;-0.35000
9766664;-0.34500
9769442;-0.34500
9772219;-0.35500
9774997;-0.34500
9777775;-0.36000
9780553;-0.35500
9783331;-0.35500
9786108;-0.35000
9788886;-0.35500
9791664;-0.36500
9794442;-0.36500
9797219;-0.37000
9799997;-0.36000
9802775;-0.35500
9805553;-0.36000
9808331;-0.37500
9811108;-0.38000
9813886;-0.38000
9816664;-0.36000
9819442;-0.35000
9822219;-0.36000
9824997;-0.36000
9827775;-0.36500
9830553;-0.36000
9833331;-0.35000
9836108;-0.35000
9838886;-0.36000
9841664;-0.37000
9844442;-0.38000
9847219;-0.37000
9849997;-0.35500
9852775;-0.36000
9855553;-0.36000
9858331;-0.37000
9861108;-0.37500
9863886;-0.37000
9866664;-0.37500
9869442;-0.39000
9872219;-0.39000
9874997;-0.40000
9877775;-0.38500
9880553;-0.37500
9883331;-0.37500
9886108;-0.37000
9888886;-0.36500
9891664;-0.36500
9894442;-0.37500
9897219;-0.36500
9899997;-0.35500
9902775;-0.36500
9905553;-0.36500
9908331;-0.38000
9911108;-0.37000
9913886;-0.36500
9916664;-0.35500
9919442;-0.36500
9922219;-0.35500
9924997;-0.37000
9927775;-0.38500
9930553;-0.39000
9933331;-0.39500
9936108;-0.39500
9938886;-0.40000
9941664;-0.40000
9944442;-0.41500
9947219;-0.39000
9949997;-0.40000
9952775;-0.40000
9955553;-0.41500
9958331;-0.41500
9961108;-0.42000
9963886;-0.41000
9966664;-0.39500
9969442;-0.40000
9972219;-0.39000
9974997;-0.39500
9977775;-0.40500
9980553;-0.40000
9983331;-0.36500
9986108;-0.36500
9988886;-0.35000
9991664;-0.35000
9994442;-0.35000
9997219;-0.33000
9999997;-0.31500
10002775;-0.29500
10005553;-0.28500
10008331;-0.28500
10011108;-0.29500
10013886;-0.29000
10016664;-0.27500
10019442;-0.28000
10022219;-0.27000
10024997;-0.27500
10027775;-0.27500
10030553;-0.26500
10033331;-0.27500
10036108;-0.26500
10038886;-0.27000
10041664;-0.28500
10044442;-0.28500
10047219;-0.28500
10049997;-0.26000
10052775;-0.26500
10055553;-0.26000
10058331;-0.27500
10061108;-0.28500
10063886;-0.28000
10066664;-0.26500
10069442;-0.26000
10072219;-0.27000
10074997;-0.27000
10077775;-0.27500
10080553;-0.27000
10083331;-0.25500
10086108;-0.26500
10088886;-0.27500
10091664;-0.29500
10094442;-0.30000
10097219;-0.27500
10099997;-0.27500
10102775;-0.28500
10105553;-0.29500
10108331;-0.31000
10111108;-0.32000
10113886;-0.30500
10116664;-0.30000
10119442;-0.31000
10122219;-0.30000
10124997;-0.30500
10127775;-0.30500
10130553;-0.29000
10133330;-0.30000
10136108;-0.30500
10138886;-0.31000
10141664;-0.32500
10144442;-0.31000
10147219;-0.30000
10149997;-0.29500
10152775;-0.30000
10155553;-0.32000
10158330;-0.32000
10161108;-0.31500
10163886;-0.30000
10166664;-0.30000
10169442;-0.30500
10172219;-0.30500
10174997;-0.31000
10177775;-0.33000
10180553;-0.33000
10183330;-0.31500
10186108;-0.31500
10188886;-0.31500
10191664;-0.32500
10194442;-0.33000
10197219;-0.33000
10199997;-0.31000
10202775;-0.31500
10205553;-0.32500
10208330;-0.33500
10211108;-0.34000
10213886;-0.33000
10216664;-0.34000
10219442;-0.31500
10222219;-0.31000
10224997;-0.31500
10227775;-0.32500
10230553;-0.34000
10233330;-0.32500
10236108;-0.31500
10238886;-0.32000
10241664;-0.32500
10244442;-0.33500
10247219;-0.33500
10249997;-0.32000
10252775;-0.32500
10255553;-0.32500
10258330;-0.33500
10261108;-0.35000
10263886;-0.34500
10266664;-0.33500
10269442;-0.32500
10272219;-0.31500
10274997;-0.30500
10277775;-0.32000
10280553;-0.30500
10283330;-0.30000
10286108;-0.29500
10288886;-0.27000
10291664;-0.26500
10294442;-0.26500
10297219;-0.24500
10299997;-0.24500
10302775;-0.23500
10305553;-0.24500
10308330;-0.26000
10311108;-0.26000
10313886;-0.23500
10316664;-0.22000
10319442;-0.21500
10322219;-0.21500
10324997;-0.21500
10327775;-0.22000
10330553;-0.21500
10333330;-0.20000
10336108;-0.20500
10338886;-0.21000
10341664;-0.24000
10344442;-0.26500
10347219;-0.26500
10349997;-0.26500
10352775;-0.27500
10355553;-0.27500
10358330;-0.26500
10361108;-0.24500
10363886;-0.22500
10366664;-0.21500
10369442;-0.23500
10372219;-0.25000
10374997;-0.28000
10377775;-0.30000
10380553;-0.32500
10383330;-0.32500
10386108;-0.32500
10388886;-0.33000
10391664;-0.34000
10394442;-0.35000
10397219;-0.34500
10399997;-0.34000
10402775;-0.34000
10405553;-0.35500
10408330;-0.35500
10411108;-0.37500
10413886;-0.35000
10416664;-0.34500
10419442;-0.35000
10422219;-0.35500
10424997;-0.38000
10427775;-0.36500
10430553;-0.36500
10433330;-0.34500
10436108;-0.34500
10438886;-0.36000
10441664;-0.36500
10444442;-0.36000
10447219;-0.36000
10449997;-0.35000
10452775;-0.36000
10455553;-0.34000
10458330;-0.35500
10461108;-0.36500
10463886;-0.36500
10466664;-0.37500
10469442;-0.41000
10472219;-0.44500
10474997;-0.48500
10477775;-0.52500
10480553;-0.56000
10483330;-0.56500
10486108;-0.52000
10488886;-0.43000
10491664;-0.32000
10494442;-0.17500
10497219;0.02500
10499997;0.27500
10502775;0.56000
10505553;0.79500
10508330;0.92500
10511108;0.92500
10513886;0.76500
10516664;0.41500
10519441;0.02000
10522219;-0.29000
10524997;-0.44500
10527775;-0.49500
10530553;-0.48500
10533330;-0.46000
10536108;-0.43000
10538886;-0.42000
10541664;-0.42000
10544441;-0.42000
10547219;-0.41000
10549997;-0.40000
10552775;-0.39500
10555553;-0.39500
10558330;-0.40000
10561108;-0.41500
10563886;-0.41000
10566664;-0.41500
10569441;-0.40500
10572219;-0.40500
10574997;-0.41000
10577775;-0.42000
10580553;-0.40500
10583330;-0.39000
10586108;-0.38500
10588886;-0.39500
10591664;-0.40500
10594441;-0.41500
10597219;-0.40500
10599997;-0.40500
10602775;-0.39500
10605553;-0.42500
10608330;-0.42000
10611108;-0.43500
10613886;-0.41000
10616664;-0.40500
10619441;-0.40500
10622219;-0.40000
10624997;-0.40500
10627775;-0.41500
10630553;-0.42000
10633330;-0.41000
10636108;-0.40500
10638886;-0.42000
10641664;-0.43000
10644441;-0.43000
10647219;-0.43500
10649997;-0.43500
10652775;-0.43500
10655553;-0.42500
10658330;-0.42000
10661108;-0.44500
10663886;-0.44000
10666664;-0.43000
10669441;-0.42500
10672219;-0.43500
10674997;-0.43500
10677775;-0.44000
10680553;-0.43500
10683330;-0.42000
10686108;-0.42000
10688886;-0.42000
10691664;-0.42500
10694441;-0.43500
10697219;-0.43000
10699997;-0.42000
10702775;-0.42500
10705553;-0.42500
10708330;-0.43500
10711108;-0.44500
10713886;-0.44000
10716664;-0.43000
10719441;-0.41500
10722219;-0.41500
10724997;-0.42500
10727775;-0.44000
10730553;-0.44500
10733330;-0.43000
10736108;-0.42500
10738886;-0.43500
10741664;-0.44000
10744441;-0.45000
10747219;-0.45000
10749997;-0.44000
10752775;-0.45000
10755553;-0.45500
10758330;-0.47000
10761108;-0.48500
10763886;-0.49000
10766664;-0.47000
10769441;-0.47000
10772219;-0.48500
10774997;-0.48500
10777775;-0.49500
10780553;-0.50000
10783330;-0.50000
10786108;-0.49000
10788886;-0.49500
10791664;-0.49500
10794441;-0.49500
10797219;-0.49000
10799997;-0.48000
10802775;-0.45500
10805553;-0.43500
10808330;-0.42500
10811108;-0.42500
10813886;-0.40000
10816664;-0.38000
10819441;-0.35500
10822219;-0.35000
10824997;-0.35000
10827775;-0.35000
10830553;-0.33000
10833330;-0.32500
10836108;-0.31000
10838886;-0.30500
10841664;-0.31000
10844441;-0.30500
10847219;-0.28500
10849997;-0.28500
10852775;-0.28500
10855553;-0.27500
10858330;-0.27500
10861108;-0.26500
10863886;-0.26500
10866664;-0.27500
10869441;-0.27000
10872219;-0.27000
10874997;-0.27000
10877775;-0.28500
10880553;-0.27500
10883330;-0.27500
10886108;-0.27000
10888886;-0.27500
10891664;-0.28000
10894441;-0.29000
10897219;-0.27500
10899997;-0.28000
10902775;-0.27000
10905553;-0.27500
10908330;-0.29500
10911108;-0.30000
10913886;-0.29000
10916664;-0.28000
10919441;-0.28000
10922219;-0.28000
10924997;-0.29000
10927775;-0.28500
10930552;-0.28500
10933330;-0.28000
10936108;-0.26500
10938886;-0.27500
10941664;-0.28000
10944441;-0.28500
10947219;-0.28500
10949997;-0.28500
10952775;-0.27000
10955552;-0.27500
10958330;-0.28500
10961108;-0.29500
10963886;-0.30500
10966664;-0.29500
10969441;-0.28500
10972219;-0.29000
10974997;-0.29000
10977775;-0.31000
10980552;-0.31000
10983330;-0.29500
10986108;-0.29000
10988886;-0.29500
10991664;-0.31000
10994441;-0.32500
10997219;-0.31500
10999997;-0.30500
11002775;-0.30000
11005552;-0.30000
11008330;-0.30500
11011108;-0.31000
11013886;-0.30500
11016664;-0.29000
11019441;-0.29500
11022219;-0.29500
11024997;-0.30500
11027775;-0.31500
11030552;-0.31500
11033330;-0.30500
11036108;-0.29500
11038886;-0.30500
11041664;-0.30000
11044441;-0.31000
11047219;-0.30000
11049997;-0.29000
11052775;-0.28500
11055552;-0.29500
11058330;-0.30500
11061108;-0.31000
11063886;-0.31000
11066664;-0.31000
11069441;-0.29500
11072219;-0.31000
11074997;-0.30500
11077775;-0.31500
11080552;-0.30500
11083330;-0.30500
11086108;-0.28500
11088886;-0.29000
11091664;-0.30000
11094441;-0.31000
11097219;-0.30500
11099997;-0.30000
11102775;-0.30000
11105552;-0.30500
11108330;-0.31000
11111108;-0.31000
11113886;-0.30500
11116664;-0.29500
11119441;-0.30000
11122219;-0.29500
11124997;-0.30000
11127775;-0.31500
11130552;-0.30000
11133330;-0.28500
11136108;-0.28500
11138886;-0.27000
11141664;-0.26500
11144441;-0.26500
11147219;-0.26000
11149997;-0.24500
11152775;-0.22500
11155552;-0.22500
11158330;-0.23000
11161108;-0.22500
11163886;-0.21500
11166664;-0.20000
11169441;-0.18500
11172219;-0.19000
11174997;-0.19000
11177775;-0.20000
11180552;-0.19500
11183330;-0.20000
11186108;-0.21000
11188886;-0.20000
11191664;-0.21000
11194441;-0.21000
11197219;-0.22000
11199997;-0.21500
11202775;-0.21500
11205552;-0.21000
11208330;-0.19500
11211108;-0.19000
11213886;-0.19000
11216664;-0.22000
11219441;-0.24000
11222219;-0.26500
11224997;-0.28500
11227775;-0.30500
11230552;-0.31500
11233330;-0.30500
11236108;-0.32000
11238886;-0.32500
11241664;-0.34000
11244441;-0.32500
11247219;-0.31500
11249997;-0.30500
11252775;-0.31000
11255552;-0.30000
11258330;-0.31500
11261108;-0.32000
11263886;-0.32500
11266664;-0.33000
11269441;-0.32000
11272219;-0.32500
11274997;-0.33000
11277775;-0.35000
11280552;-0.34000
11283330;-0.32000
11286108;-0.32000
11288886;-0.32000
11291664;-0.33500
11294441;-0.34500
11297219;-0.33500
11299997;-0.34500
11302775;-0.34000
11305552;-0.33500
11308330;-0.35500
11311108;-0.37500
11313886;-0.39500
11316663;-0.43000
11319441;-0.45500
11322219;-0.47000
11324997;-0.50000
11327775;-0.54000
11330552;-0.52000
11333330;-0.46000
11336108;-0.32000
11338886;-0.15500
11341663;0.02500
11344441;0.23500
11347219;0.51500
11349997;0.82000
11352775;1.03000
11355552;1.14500
11358330;1.09500
11361108;0.84000
11363886;0.39500
11366663;-0.07000
11369441;-0.37500
11372219;-0.46500
11374997;-0.45500
11377775;-0.41000
11380552;-0.37500
11383330;-0.37000
11386108;-0.37000
11388886;-0.37500
11391663;-0.38500
11394441;-0.40000
11397219;-0.38000
11399997;-0.37000
11402775;-0.38500
11405552;-0.39000
11408330;-0.39500
11411108;-0.41500
11413886;-0.39500
11416663;-0.39500
11419441;-0.38500
11422219;-0.38000
11424997;-0.39500
11427775;-0.40000
11430552;-0.40000
11433330;-0.39000
11436108;-0.39000
11438886;-0.39000
11441663;-0.40500
11444441;-0.41000
11447219;-0.40500
11449997;-0.40500
11452775;-0.39500
11455552;-0.40500
11458330;-0.41500
11461108;-0.42500
11463886;-0.42000
11466663;-0.40500
11469441;-0.40000
11472219;-0.39500
11474997;-0.41000
11477775;-0.41500
11480552;-0.42000
11483330;-0.40000
11486108;-0.39500
11488886;-0.40000
11491663;-0.40500
11494441;-0.41500
11497219;-0.40500
11499997;-0.39000
11502775;-0.39000
11505552;-0.39000
11508330;-0.41000
11511108;-0.41500
11513886;-0.41000
11516663;-0.41000
11519441;-0.41000
11522219;-0.40500
11524997;-0.41500
11527775;-0.42500
11530552;-0.42500
11533330;-0.41000
11536108;-0.39000
11538886;-0.40000
11541663;-0.40000
11544441;-0.41500
11547219;-0.41500
11549997;-0.41000
11552775;-0.40000
11555552;-0.39000
11558330;-0.39500
11561108;-0.40000
11563886;-0.40500
11566663;-0.40000
11569441;-0.40000
11572219;-0.40500
11574997;-0.41500
11577775;-0.41500
11580552;-0.41000
11583330;-0.41500
11586108;-0.41500
11588886;-0.41000
11591663;-0.42000
11594441;-0.43000
11597219;-0.44500
11599997;-0.43500
11602775;-0.42000
11605552;-0.42000
11608330;-0.43000
11611108;-0.43500
11613886;-0.43000
11616663;-0.42500
11619441;-0.41500
11622219;-0.41500
11624997;-0.43000
11627775;-0.44000
11630552;-0.42500
11633330;-0.41000
11636108;-0.40500
11638886;-0.40500
11641663;-0.40500
11644441;-0.42500
11647219;-0.40500
11649997;-0.39500
11652775;-0.38000
11655552;-0.37000
11658330;-0.37500
11661108;-0.36000
11663886;-0.35500
11666663;-0.33500
11669441;-0.32000
11672219;-0.32000
11674997;-0.31000
11677775;-0.32000
11680552;-0.30000
11683330;-0.28000
11686108;-0.27000
11688886;-0.28000
11691663;-0.27500
11694441;-0.27500
11697219;-0.27500
11699997;-0.27000
11702775;-0.26000
11705552;-0.26500
11708330;-0.26500
11711108;-0.27000
11713886;-0.26500
11716663;-0.25500
11719441;-0.24500
11722219;-0.25500
11724997;-0.25000
11727774;-0.27000
11730552;-0.26000
11733330;-0.25500
11736108;-0.25000
11738886;-0.25500
11741663;-0.27500
11744441;-0.27000
11747219;-0.27500
11749997;-0.27000
11752774;-0.27000
11755552;-0.27500
11758330;-0.27500
11761108;-0.28500
11763886;-0.28000
11766663;-0.27000
11769441;-0.26000
11772219;-0.26000
11774997;-0.27500
11777774;-0.28500
11780552;-0.27500
11783330;-0.26500
11786108;-0.26000
11788886;-0.28000
11791663;-0.28000
11794441;-0.29500
11797219;-0.29000
11799997;-0.27500
11802774;-0.27000
11805552;-0.27500
11808330;-0.28000
11811108;-0.30000
11813886;-0.30500
11816663;-0.29000
11819441;-0.30000
11822219;-0.30500
11824997;-0.30500
11827774;-0.32000
11830552;-0.31500
11833330;-0.31500
11836108;-0.30000
11838886;-0.29500
11841663;-0.31500
11844441;-0.32500
11847219;-0.32000
11849997;-0.31000
11852774;-0.30000
11855552;-0.31000
11858330;-0.31500
11861108;-0.32000
11863886;-0.33000
11866663;-0.32000
11869441;-0.31500
11872219;-0.32000
11874997;-0.31500
11877774;-0.33000
11880552;-0.33000
11883330;-0.32000
11886108;-0.31000
11888886;-0.32500
11891663;-0.33500
11894441;-0.35000
11897219;-0.34000
11899997;-0.32500
11902774;-0.32000
11905552;-0.33000
11908330;-0.33500
11911108;-0.33000
11913886;-0.33000
11916663;-0.32000
11919441;-0.32000
11922219;-0.32000
11924997;-0.31000
11927774;-0.32000
11930552;-0.31500
11933330;-0.30500
11936108;-0.30000
11938886;-0.29000
11941663;-0.30500
11944441;-0.30000
11947219;-0.29500
11949997;-0.29000
11952774;-0.28000
11955552;-0.28500
11958330;-0.30000
11961108;-0.31500
11963886;-0.30500
11966663;-0.30500
11969441;-0.30000
11972219;-0.29500
11974997;-0.31500
11977774;-0.31500
11980552;-0.31500
11983330;-0.30500
11986108;-0.30000
11988886;-0.29500
11991663;-0.28500
11994441;-0.28000
11997219;-0.27000
11999997;-0.24000
12002774;-0.23000
12005552;-0.23000
12008330;-0.24000
12011108;-0.24000
12013886;-0.23000
12016663;-0.21000
12019441;-0.20000
12022219;-0.19000
12024997;-0.18500
12027774;-0.20000
12030552;-0.19500
12033330;-0.18500
12036108;-0.18000
12038886;-0.20000
12041663;-0.20500
12044441;-0.22500
12047219;-0.22000
12049997;-0.20500
12052774;-0.18500
12055552;-0.21000
12058330;-0.22000
12061108;-0.24500
12063886;-0.22500
12066663;-0.20000
12069441;-0.18000
12072219;-0.19500
12074997;-0.22500
12077774;-0.26500
12080552;-0.27500
12083330;-0.27500
12086108;-0.29000
12088886;-0.30000
12091663;-0.31500
12094441;-0.32500
12097219;-0.33500
12099997;-0.31000
12102774;-0.30000
12105552;-0.30500
12108330;-0.31500
12111108;-0.32500
12113885;-0.34000
12116663;-0.33500
12119441;-0.32000
12122219;-0.33000
12124997;-0.34500
12127774;-0.35000
12130552;-0.36500
12133330;-0.34000
12136108;-0.33000
12138885;-0.33500
12141663;-0.33000
12144441;-0.35000
12147219;-0.33000
12149997;-0.34000
12152774;-0.33000
12155552;-0.32500
12158330;-0.34000
12161108;-0.35000
12163885;-0.36500
12166663;-0.39000
12169441;-0.42500
12172219;-0.46500
12174997;-0.48500
12177774;-0.53500
12180552;-0.57000
12183330;-0.55500
12186108;-0.45000
12188885;-0.31000
12191663;-0.16000
12194441;0.00000
12197219;0.22000
12199997;0.51000
12202774;0.77000
12205552;0.98000
12208330;1.09500
12211108;1.06000
12213885;0.85000
12216663;0.44000
12219441;0.01500
12222219;-0.31500
12224997;-0.46000
12227774;-0.47500
12230552;-0.43500
12233330;-0.36500
12236108;-0.33500
12238885;-0.34500
12241663;-0.35500
12244441;-0.36500
12247219;-0.36500
12249997;-0.36000
12252774;-0.35000
12255552;-0.36000
12258330;-0.36000
12261108;-0.39000
12263885;-0.38000
12266663;-0.38500
12269441;-0.37000
12272219;-0.38500
12274997;-0.39500
12277774;-0.41000
12280552;-0.40500
12283330;-0.39500
12286108;-0.37500
12288885;-0.38500
12291663;-0.39500
12294441;-0.40000
12297219;-0.39500
12299997;-0.38500
12302774;-0.38500
12305552;-0.38000
12308330;-0.38500
12311108;-0.39000
12313885;-0.39500
12316663;-0.38500
12319441;-0.38500
12322219;-0.38000
12324997;-0.39000
12327774;-0.40000
12330552;-0.39000
12333330;-0.39500
12336108;-0.38500
12338885;-0.38500
12341663;-0.39000
12344441;-0.39000
12347219;-0.39000
12349997;-0.38500
12352774;-0.38000
12355552;-0.38000
12358330;-0.40500
12361108;-0.39000
12363885;-0.40000
12366663;-0.38500
12369441;-0.37500
12372219;-0.39000
12374997;-0.39500
12377774;-0.39500
12380552;-0.40000
12383330;-0.37500
12386108;-0.37500
12388885;-0.37000
12391663;-0.38000
12394441;-0.39500
12397219;-0.38500
12399997;-0.38000
12402774;-0.38000
12405552;-0.37000
12408330;-0.38000
12411108;-0.39500
12413885;-0.39000
12416663;-0.39000
12419441;-0.37500
12422219;-0.37500
12424997;-0.38000
12427774;-0.38500
12430552;-0.39500
12433330;-0.38000
12436108;-0.37500
12438885;-0.38000
12441663;-0.39500
12444441;-0.41000
12447219;-0.40500
12449997;-0.40500
12452774;-0.39500
12455552;-0.39500
12458330;-0.40500
12461108;-0.41500
12463885;-0.40500
12466663;-0.40000
12469441;-0.39000
12472219;-0.40000
12474997;-0.41000
12477774;-0.42000
12480552;-0.41500
12483330;-0.40000
12486108;-0.39000
12488885;-0.39500
12491663;-0.38500
12494441;-0.40500
12497219;-0.39500
12499996;-0.39000
12502774;-0.37000
12505552;-0.37500
12508330;-0.39000
12511108;-0.37500
12513885;-0.37000
12516663;-0.35000
12519441;-0.33000
12522219;-0.33000
12524996;-0.32000
12527774;-0.32000
12530552;-0.31500
12533330;-0.29000
12536108;-0.29000
12538885;-0.30000
12541663;-0.29500
12544441;-0.29500
12547219;-0.28000
12549996;-0.27000
12552774;-0.25500
12555552;-0.26500
12558330;-0.26000
12561108;-0.27000
12563885;-0.26000
12566663;-0.26500
12569441;-0.25500
12572219;-0.25500
12574996;-0.25500
12577774;-0.25500
12580552;-0.26000
12583330;-0.25500
12586108;-0.25000
12588885;-0.24500
12591663;-0.25500
12594441;-0.27000
12597219;-0.26000
12599996;-0.26000
12602774;-0.24000
12605552;-0.26000
12608330;-0.27000
12611108;-0.27000
12613885;-0.28500
12616663;-0.27500
12619441;-0.26000
12622219;-0.26000
12624996;-0.27500
12627774;-0.28500
12630552;-0.28500
12633330;-0.27000
12636108;-0.26500
12638885;-0.26500
12641663;-0.26500
12644441;-0.27500
12647219;-0.28500
12649996;-0.28000
12652774;-0.29000
12655552;-0.29500
12658330;-0.30000
12661108;-0.30500
12663885;-0.29500
12666663;-0.29500
12669441;-0.29000
12672219;-0.28500
12674996;-0.29500
12677774;-0.30500
12680552;-0.30000
12683330;-0.28500
12686108;-0.29000
12688885;-0.29500
12691663;-0.29000
12694441;-0.31000
12697219;-0.30500
12699996;-0.30500
12702774;-0.30000
12705552;-0.31000
12708330;-0.31500
12711108;-0.31500
12713885;-0.32000
12716663;-0.31500
12719441;-0.30500
12722219;-0.31000
12724996;-0.33000
12727774;-0.33500
12730552;-0.32500
12733330;-0.31000
12736108;-0.30500
12738885;-0.31000
12741663;-0.30000
12744441;-0.32000
12747219;-0.31000
12749996;-0.29500
12752774;-0.29000
12755552;-0.31000
12758330;-0.30500
12761108;-0.31500
12763885;-0.30500
12766663;-0.30000
12769441;-0.28500
12772219;-0.29500
12774996;-0.31000
12777774;-0.31000
12780552;-0.30500
12783330;-0.31500
12786108;-0.29000
12788885;-0.30000
12791663;-0.30500
12794441;-0.31500
12797219;-0.31000
12799996;-0.29500
12802774;-0.29000
12805552;-0.29000
12808330;-0.29500
12811108;-0.30000
12813885;-0.29500
12816663;-0.29500
12819441;-0.27000
12822219;-0.28000
12824996;-0.28000
12827774;-0.27500
12830552;-0.25500
12833330;-0.23000
12836108;-0.21500
12838885;-0.21500
12841663;-0.21000
12844441;-0.22000
12847219;-0.21000
12849996;-0.19500
12852774;-0.18500
12855552;-0.18500
12858330;-0.18000
12861108;-0.20500
12863885;-0.19500
12866663;-0.19000
12869441;-0.19500
12872219;-0.19500
12874996;-0.20500
12877774;-0.22000
12880552;-0.21500
12883330;-0.20000
12886108;-0.20000
12888885;-0.19500
12891663;-0.20500
12894441;-0.19000
12897219;-0.16000
12899996;-0.17000
12902774;-0.19000
12905552;-0.22500
12908330;-0.24500
12911107;-0.26500
12913885;-0.28000
12916663;-0.28500
12919441;-0.29500
12922219;-0.30000
12924996;-0.30500
12927774;-0.31000
12930552;-0.30500
12933330;-0.31000
12936107;-0.31000
12938885;-0.32000
12941663;-0.32500
12944441;-0.34500
12947219;-0.33500
12949996;-0.32500
12952774;-0.30500
12955552;-0.32500
12958330;-0.32500
12961107;-0.34000
12963885;-0.32000
12966663;-0.31000
12969441;-0.31500
12972219;-0.32500
12974996;-0.33000
12977774;-0.34500
12980552;-0.33000
12983330;-0.33000
12986107;-0.31500
12988885;-0.32000
12991663;-0.33500
12994441;-0.36500
12997219;-0.40000
12999996;-0.44000
13002774;-0.45000
13005552;-0.48500
13008330;-0.52500
13011107;-0.57000
13013885;-0.52500
13016663;-0.43500
13019441;-0.28500
13022219;-0.10500
13024996;0.07500
13027774;0.33500
13030552;0.66000
13033330;0.91000
13036107;1.02500
13038885;0.94500
13041663;0.67000
13044441;0.21500
13047219;-0.21500
13049996;-0.45500
13052774;-0.46000
13055552;-0.41000
13058330;-0.37000
13061107;-0.36000
13063885;-0.37000
13066663;-0.37000
13069441;-0.36000
13072219;-0.35500
13074996;-0.37000
13077774;-0.37500
13080552;-0.38000
13083330;-0.37500
13086107;-0.36000
13088885;-0.37000
13091663;-0.37000
13094441;-0.39000
13097219;-0.39000
13099996;-0.38500
13102774;-0.38000
13105552;-0.39000
13108330;-0.38500
13111107;-0.39000
13113885;-0.38500
13116663;-0.38500
13119441;-0.37000
13122219;-0.37500
13124996;-0.37500
13127774;-0.39000
13130552;-0.39000
13133330;-0.37000
13136107;-0.37000
13138885;-0.36000
13141663;-0.37000
13144441;-0.37500
13147219;-0.38500
13149996;-0.37500
13152774;-0.37500
13155552;-0.37500
13158330;-0.38000
13161107;-0.38500
13163885;-0.38500
13166663;-0.37500
13169441;-0.36000
13172219;-0.36500
13174996;-0.37500
13177774;-0.38500
13180552;-0.38000
13183330;-0.38000
13186107;-0.38000
13188885;-0.38500
13191663;-0.39000
13194441;-0.40000
13197219;-0.39000
13199996;-0.39000
13202774;-0.37500
13205552;-0.39500
13208330;-0.40500
13211107;-0.40500
13213885;-0.39000
13216663;-0.37500
13219441;-0.37000
13222219;-0.37000
13224996;-0.37500
13227774;-0.40500
13230552;-0.40500
13233330;-0.37500
13236107;-0.36000
13238885;-0.36000
13241663;-0.36500
13244441;-0.38500
13247219;-0.38500
13249996;-0.38000
13252774;-0.36000
13255552;-0.37500
13258330;-0.38500
13261107;-0.41000
13263885;-0.40500
13266663;-0.40500
13269441;-0.41000
13272219;-0.41000
13274996;-0.42000
13277774;-0.43000
13280552;-0.43000
13283330;-0.42000
13286107;-0.40500
13288885;-0.40500
13291663;-0.41500
13294441;-0.41000
13297218;-0.41500
13299996;-0.39500
13302774;-0.39500
13305552;-0.39000
13308330;-0.39000
13311107;-0.42000
13313885;-0.40500
13316663;-0.40000
13319441;-0.38000
13322218;-0.38500
13324996;-0.38500
13327774;-0.39500
13330552;-0.38000
13333330;-0.37500
13336107;-0.35000
13338885;-0.34000
13341663;-0.33500
13344441;-0.34000
13347218;-0.33000
13349996;-0.30500
13352774;-0.30000
13355552;-0.28500
13358330;-0.31000
13361107;-0.32500
13363885;-0.31500
13366663;-0.29500
13369441;-0.28500
13372218;-0.28500
13374996;-0.28000
13377774;-0.29000
13380552;-0.28500
13383330;-0.27500
13386107;-0.27000
13388885;-0.29000
13391663;-0.30000
13394441;-0.31000
13397218;-0.31000
13399996;-0.30000
13402774;-0.27000
13405552;-0.27500
13408330;-0.29500
13411107;-0.31000
13413885;-0.31000
13416663;-0.30000
13419441;-0.30500
13422218;-0.30000
13424996;-0.30500
13427774;-0.33000
13430552;-0.31500
13433330;-0.30500
13436107;-0.30000
13438885;-0.30500
13441663;-0.32000
13444441;-0.31500
13447218;-0.32000
13449996;-0.30500
13452774;-0.30500
13455552;-0.31500
13458330;-0.33000
13461107;-0.34000
13463885;-0.35000
13466663;-0.33500
13469441;-0.33000
13472218;-0.33000
13474996;-0.33500
13477774;-0.35000
13480552;-0.33500
13483330;-0.32000
13486107;-0.32000
13488885;-0.33000
13491663;-0.34000
13494441;-0.34500
13497218;-0.35000
13499996;-0.34000
13502774;-0.34000
13505552;-0.34500
13508330;-0.35500
13511107;-0.37000
13513885;-0.36500
13516663;-0.34500
13519441;-0.35000
13522218;-0.34500
13524996;-0.35500
13527774;-0.36000
13530552;-0.35500
13533330;-0.35000
13536107;-0.34000
13538885;-0.36000
13541663;-0.36500
13544441;-0.37000
13547218;-0.36000
13549996;-0.35000
13552774;-0.35500
13555552;-0.35500
13558330;-0.36500
13561107;-0.37000
13563885;-0.37000
13566663;-0.36000
13569441;-0.33000
13572218;-0.33500
13574996;-0.35000
13577774;-0.35500
13580552;-0.35500
13583330;-0.35500
13586107;-0.34000
13588885;-0.36000
13591663;-0.35500
13594441;-0.35000
13597218;-0.36500
13599996;-0.34000
13602774;-0.34000
13605552;-0.33500
13608330;-0.34500
13611107;-0.35500
13613885;-0.35000
13616663;-0.33000
13619441;-0.31500
13622218;-0.29000
13624996;-0.29500
13627774;-0.29500
13630552;-0.31000
13633330;-0.30000
13636107;-0.29000
13638885;-0.28000
13641663;-0.25500
13644441;-0.26000
13647218;-0.25000
13649996;-0.25000
13652774;-0.22500
13655552;-0.23000
13658330;-0.24000
13661107;-0.25000
13663885;-0.25500
13666663;-0.24000
13669441;-0.24500
13672218;-0.24500
13674996;-0.25500
13677774;-0.28500
13680552;-0.29500
13683330;-0.28500
13686107;-0.25000
13688885;-0.24000
13691663;-0.27500
13694441;-0.31500
13697218;-0.32500
13699996;-0.33500
13702774;-0.33500
13705552;-0.35000
13708329;-0.36500
13711107;-0.37500
13713885;-0.37000
13716663;-0.36000
13719441;-0.36500
13722218;-0.37000
13724996;-0.38000
13727774;-0.38000
13730552;-0.37500
13733329;-0.35500
13736107;-0.34500
13738885;-0.35000
13741663;-0.36000
13744441;-0.38500
13747218;-0.39500
13749996;-0.38500
13752774;-0.37500
13755552;-0.38000
13758329;-0.38500
13761107;-0.39000
13763885;-0.37000
13766663;-0.36000
13769441;-0.35000
13772218;-0.36000
13774996;-0.37000
13777774;-0.38500
13780552;-0.41500
13783329;-0.41000
13786107;-0.40500
13788885;-0.44000
13791663;-0.48000
13794441;-0.52000
13797218;-0.55500
13799996;-0.59000
13802774;-0.55500
13805552;-0.44000
13808329;-0.28000
13811107;-0.12000
13813885;0.11000
13816663;0.38000
13819441;0.66000
13822218;0.85000
13824996;0.90000
13827774;0.75500
13830552;0.42000
13833329;0.00000
13836107;-0.34000
13838885;-0.52000
13841663;-0.55000
13844441;-0.51500
13847218;-0.46000
13849996;-0.43500
13852774;-0.43500
13855552;-0.44500
13858329;-0.43000
13861107;-0.44000
13863885;-0.42500
13866663;-0.41000
13869441;-0.39500
13872218;-0.40500
13874996;-0.41000
13877774;-0.43500
13880552;-0.45000
13883329;-0.45500
13886107;-0.44000
13888885;-0.44500
13891663;-0.44500
13894441;-0.44500
13897218;-0.43000
13899996;-0.43500
13902774;-0.43500
13905552;-0.44000
13908329;-0.44500
13911107;-0.44500
13913885;-0.44500
13916663;-0.43500
13919441;-0.42500
13922218;-0.43500
13924996;-0.43500
13927774;-0.44000
13930552;-0.44000
13933329;-0.45000
13936107;-0.43500
13938885;-0.44000
13941663;-0.44500
13944441;-0.45500
13947218;-0.44500
13949996;-0.43000
13952774;-0.43000
13955552;-0.44000
13958329;-0.45500
13961107;-0.46500
13963885;-0.47000
13966663;-0.46000
13969441;-0.44500
13972218;-0.45000
13974996;-0.44000
13977774;-0.45000
13980552;-0.43500
13983329;-0.42500
13986107;-0.42500
13988885;-0.43000
13991663;-0.44500
13994441;-0.44500
13997218;-0.46000
13999996;-0.45000
14002774;-0.43000
14005552;-0.44500
14008329;-0.45500
14011107;-0.47500
14013885;-0.46000
14016663;-0.44500
14019441;-0.43500
14022218;-0.44000
14024996;-0.46000
14027774;-0.47500
14030552;-0.48000
14033329;-0.46000
14036107;-0.45000
14038885;-0.46000
14041663;-0.47500
14044441;-0.48500
14047218;-0.49000
14049996;-0.47500
14052774;-0.48000
14055552;-0.48000
14058329;-0.48000
14061107;-0.48500
14063885;-0.47500
14066663;-0.47500
14069441;-0.47000
14072218;-0.49500
14074996;-0.51000
14077774;-0.53500
14080552;-0.53000
14083329;-0.51500
14086107;-0.47000
14088885;-0.48000
14091663;-0.50000
14094440;-0.51000
14097218;-0.49500
14099996;-0.47500
14102774;-0.46000
14105552;-0.45000
14108329;-0.44500
14111107;-0.42000
14113885;-0.41500
14116663;-0.40000
14119440;-0.38000
14122218;-0.35000
14124996;-0.34000
14127774;-0.35500
14130552;-0.36000
14133329;-0.33500
14136107;-0.32000
14138885;-0.32000
14141663;-0.32500
14144440;-0.33500
14147218;-0.32500
14149996;-0.32000
14152774;-0.31500
14155552;-0.32000
14158329;-0.32500
14161107;-0.33000
14163885;-0.33000
14166663;-0.31500
14169440;-0.30000
14172218;-0.30000
14174996;-0.30000
14177774;-0.31500
14180552;-0.31500
14183329;-0.31500
14186107;-0.30000
14188885;-0.29000
14191663;-0.30500
14194440;-0.32500
14197218;-0.33000
14199996;-0.33000
14202774;-0.32500
14205552;-0.33000
14208329;-0.33500
14211107;-0.35000
14213885;-0.34500
14216663;-0.33500
14219440;-0.33000
14222218;-0.33000
14224996;-0.34000
14227774;-0.35000
14230552;-0.35000
14233329;-0.34500
14236107;-0.34000
14238885;-0.33500
14241663;-0.33000
14244440;-0.33500
14247218;-0.33500
14249996;-0.33000
14252774;-0.33500
14255552;-0.33500
14258329;-0.34500
14261107;-0.36000
14263885;-0.36000
14266663;-0.34000
14269440;-0.34500
14272218;-0.33500
14274996;-0.35000
14277774;-0.36500
14280552;-0.37000
14283329;-0.35000
14286107;-0.35000
14288885;-0.34000
14291663;-0.34000
14294440;-0.36000
14297218;-0.36500
14299996;-0.36000
14302774;-0.36000
14305552;-0.35500
14308329;-0.36000
14311107;-0.37000
14313885;-0.38000
14316663;-0.36500
14319440;-0.35000
14322218;-0.34000
14324996;-0.34500
14327774;-0.35000
14330552;-0.36000
14333329;-0.35000
14336107;-0.32500
14338885;-0.33500
14341663;-0.33000
14344440;-0.35500
14347218;-0.35500
14349996;-0.34000
14352774;-0.32500
14355552;-0.32000
14358329;-0.34000
14361107;-0.35000
14363885;-0.34500
14366663;-0.34000
14369440;-0.34000
14372218;-0.33000
14374996;-0.33500
14377774;-0.35000
14380552;-0.34500
14383329;-0.34500
14386107;-0.33500
14388885;-0.33500
14391663;-0.34000
14394440;-0.34000
14397218;-0.34000
14399996;-0.31000
14402774;-0.29500
14405552;-0.27500
14408329;-0.27500
14411107;-0.27500
14413885;-0.27500
14416663;-0.25500
14419440;-0.24500
14422218;-0.24000
14424996;-0.22500
14427774;-0.23000
14430552;-0.22500
14433329;-0.22000
14436107;-0.21000
14438885;-0.22000
14441663;-0.22500
14444440;-0.25000
14447218;-0.25500
14449996;-0.24500
14452774;-0.24000
14455552;-0.24000
14458329;-0.24500
14461107;-0.26500
14463885;-0.27500
14466663;-0.28000
14469440;-0.25500
14472218;-0.23500
14474996;-0.22500
14477774;-0.24500
14480552;-0.27000
14483329;-0.28500
14486107;-0.29000
14488885;-0.30500
14491663;-0.33000
14494440;-0.34500
14497218;-0.34000
14499996;-0.34000
14502774;-0.34000
14505551;-0.33500
14508329;-0.34500
14511107;-0.36000
14513885;-0.37000
14516663;-0.35000
14519440;-0.34000
14522218;-0.35000
14524996;-0.35500
14527774;-0.36000
14530551;-0.37500
14533329;-0.36000
14536107;-0.35500
14538885;-0.36000
14541663;-0.37000
14544440;-0.38000
14547218;-0.38500
14549996;-0.37500
14552774;-0.36500
14555551;-0.36000
14558329;-0.40000
14561107;-0.44500
14563885;-0.47500
14566663;-0.49500
14569440;-0.50000
14572218;-0.54500
14574996;-0.57500
14577774;-0.50500
14580551;-0.37000
14583329;-0.23500
14586107;-0.10000
14588885;0.02000
14591663;0.17500
14594440;0.36000
14597218;0.60500
14599996;0.81500
14602774;0.95000
14605551;1.05000
14608329;1.07000
14611107;0.98500
14613885;0.68500
14616663;0.23000
14619440;-0.18000
14622218;-0.41000
14624996;-0.50000
14627774;-0.47000
14630551;-0.42500
14633329;-0.39000
14636107;-0.37500
14638885;-0.38500
14641663;-0.39500
14644440;-0.39500
14647218;-0.39500
14649996;-0.38500
14652774;-0.38000
14655551;-0.40000
14658329;-0.40500
14661107;-0.40500
14663885;-0.40500
14666663;-0.39500
14669440;-0.39000
14672218;-0.40000
14674996;-0.40000
14677774;-0.41500
14680551;-0.41500
14683329;-0.39500
14686107;-0.38500
14688885;-0.38500
14691663;-0.39500
14694440;-0.40000
14697218;-0.41000
14699996;-0.40000
14702774;-0.39000
14705551;-0.39000
14708329;-0.40000
14711107;-0.42000
14713885;-0.42000
14716663;-0.40000
14719440;-0.39000
14722218;-0.39000
14724996;-0.40500
14727774;-0.42000
14730551;-0.42000
14733329;-0.41500
14736107;-0.40500
14738885;-0.40500
14741663;-0.40500
14744440;-0.42000
14747218;-0.41000
14749996;-0.40500
14752774;-0.40000
14755551;-0.39000
14758329;-0.40000
14761107;-0.40500
14763885;-0.41000
14766663;-0.40500
14769440;-0.39000
14772218;-0.39000
14774996;-0.39000
14777774;-0.41500
14780551;-0.41000
14783329;-0.40500
14786107;-0.39000
14788885;-0.39500
14791663;-0.40500
14794440;-0.41500
14797218;-0.42500
14799996;-0.41000
14802774;-0.40000
14805551;-0.40500
14808329;-0.42000
14811107;-0.43000
14813885;-0.43000
14816663;-0.42000
14819440;-0.43000
14822218;-0.41500
14824996;-0.43000
14827774;-0.43000
14830551;-0.44000
14833329;-0.42500
14836107;-0.42000
14838885;-0.42500
14841663;-0.43500
14844440;-0.44500
14847218;-0.44000
14849996;-0.44000
14852774;-0.42500
14855551;-0.42500
14858329;-0.43000
14861107;-0.43000
14863885;-0.43000
14866663;-0.42000
14869440;-0.41500
14872218;-0.41500
14874996;-0.41500
14877774;-0.43500
14880551;-0.43000
14883329;-0.40500
14886107;-0.38500
14888885;-0.38000
14891662;-0.38000
14894440;-0.37000
14897218;-0.36000
14899996;-0.32500
14902774;-0.30500
14905551;-0.30500
14908329;-0.30000
14911107;-0.29500
14913885;-0.27500
14916662;-0.25500
14919440;-0.24500
14922218;-0.24500
14924996;-0.25000
14927774;-0.25000
14930551;-0.25500
14933329;-0.25000
14936107;-0.24000
14938885;-0.25000
14941662;-0.24500
14944440;-0.27500
14947218;-0.25500
14949996;-0.25000
14952774;-0.23500
14955551;-0.23500
14958329;-0.23500
14961107;-0.25500
14963885;-0.26000
14966662;-0.25500
14969440;-0.23500
14972218;-0.25500
14974996;-0.25000
14977774;-0.26500
14980551;-0.25500
14983329;-0.25000
14986107;-0.25000
14988885;-0.25000
14991662;-0.25500
14994440;-0.26500
14997218;-0.26500
14999996;-0.26000
15002774;-0.25500
15005551;-0.27000
15008329;-0.26500
15011107;-0.28000
15013885;-0.28500
15016662;-0.27000
15019440;-0.27000
15022218;-0.26000
15024996;-0.27500
15027774;-0.28000
15030551;-0.27500
15033329;-0.26500
15036107;-0.26000
15038885;-0.27000
15041662;-0.27000
15044440;-0.27500
15047218;-0.27500
15049996;-0.27500
15052774;-0.26000
15055551;-0.26500
15058329;-0.28000
15061107;-0.29000
15063885;-0.29000
15066662;-0.28500
15069440;-0.27500
15072218;-0.28500
15074996;-0.29500
15077774;-0.31500
15080551;-0.31000
15083329;-0.29500
15086107;-0.28000
15088885;-0.28500
15091662;-0.30500
15094440;-0.30000
15097218;-0.30500
15099996;-0.29000
15102774;-0.28500
15105551;-0.30000
15108329;-0.30000
15111107;-0.29500
15113885;-0.30000
15116662;-0.29000
15119440;-0.27500
15122218;-0.29000
15124996;-0.29500
15127774;-0.29500
15130551;-0.29000
15133329;-0.29500
15136107;-0.27500
15138885;-0.28500
15141662;-0.29500
15144440;-0.29500
15147218;-0.31000
15149996;-0.31000
15152774;-0.30000
15155551;-0.29000
15158329;-0.30000
15161107;-0.30000
15163885;-0.29500
15166662;-0.29500
15169440;-0.30000
15172218;-0.28500
15174996;-0.30000
15177774;-0.30500
15180551;-0.30000
15183329;-0.28500
15186107;-0.27500
15188885;-0.27000
15191662;-0.29000
15194440;-0.30500
15197218;-0.29000
15199996;-0.27500
15202774;-0.25000
15205551;-0.25000
15208329;-0.24000
15211107;-0.22500
15213885;-0.22500
15216662;-0.22500
15219440;-0.20500
15222218;-0.21000
15224996;-0.21000
15227774;-0.20500
15230551;-0.20000
15233329;-0.19000
15236107;-0.16500
15238885;-0.17500
15241662;-0.18500
15244440;-0.20000
15247218;-0.20000
15249996;-0.19500
15252774;-0.18500
15255551;-0.19000
15258329;-0.18500
15261107;-0.20500
15263885;-0.20500
15266662;-0.20500
15269440;-0.17500
15272218;-0.16000
15274996;-0.15500
15277774;-0.19500
15280551;-0.22500
15283329;-0.24500
15286107;-0.24500
15288885;-0.27000
15291662;-0.29500
15294440;-0.31000
15297218;-0.32000
15299996;-0.31500
15302773;-0.30500
15305551;-0.30000
15308329;-0.32000
15311107;-0.31500
15313885;-0.31500
15316662;-0.31000
15319440;-0.30000
15322218;-0.31000
15324996;-0.31500
15327773;-0.33000
15330551;-0.33000
15333329;-0.32000
15336107;-0.30000
15338885;-0.32000
15341662;-0.32000
15344440;-0.32500
15347218;-0.33500
15349996;-0.33000
15352773;-0.33500
15355551;-0.32000
15358329;-0.32500
15361107;-0.33500
15363885;-0.37000
15366662;-0.40000
15369440;-0.43500
15372218;-0.45500
15374996;-0.49000
15377773;-0.53000
15380551;-0.54500
15383329;-0.47000
15386107;-0.33500
15388885;-0.13500
15391662;0.06500
15394440;0.30500
15397218;0.59500
15399996;0.90000
15402773;1.07000
15405551;1.10500
15408329;0.95000
15411107;0.56500
15413885;0.06000
15416662;-0.30500
15419440;-0.45000
15422218;-0.44500
15424996;-0.39500
15427773;-0.36500
15430551;-0.36000
15433329;-0.36500
15436107;-0.36000
15438885;-0.36500
15441662;-0.37500
15444440;-0.38000
15447218;-0.38500
15449996;-0.37500
15452773;-0.37000
15455551;-0.38000
15458329;-0.37500
15461107;-0.38000
15463885;-0.39000
15466662;-0.37000
15469440;-0.36000
15472218;-0.37000
15474996;-0.39000
15477773;-0.39000
15480551;-0.40000
15483329;-0.39000
15486107;-0.37500
15488885;-0.37500
15491662;-0.38500
15494440;-0.40500
15497218;-0.39500
15499996;-0.39000
15502773;-0.37000
15505551;-0.38500
15508329;-0.40000
15511107;-0.40500
15513885;-0.40000
15516662;-0.39500
15519440;-0.38500
15522218;-0.39000
15524996;-0.39500
15527773;-0.40000
15530551;-0.40000
15533329;-0.38500
15536107;-0.38500
15538885;-0.38000
15541662;-0.38500
15544440;-0.39500
15547218;-0.39000
15549996;-0.39500
15552773;-0.38000
15555551;-0.37500
15558329;-0.38000
15561107;-0.38500
15563885;-0.40000
15566662;-0.39000
15569440;-0.39000
15572218;-0.38000
15574996;-0.38500
15577773;-0.40500
15580551;-0.40000
15583329;-0.39000
15586107;-0.39500
15588885;-0.40000
15591662;-0.40000
15594440;-0.40500
15597218;-0.40500
15599996;-0.40500
15602773;-0.38500
15605551;-0.41000
15608329;-0.40000
15611107;-0.41500
15613885;-0.41500
15616662;-0.41000
15619440;-0.39500
15622218;-0.39000
15624996;-0.39000
15627773;-0.40000
15630551;-0.40500
15633329;-0.40500
15636107;-0.40000
15638885;-0.41000
15641662;-0.41000
15644440;-0.39500
15647218;-0.41000
15649996;-0.40000
15652773;-0.39500
15655551;-0.40000
15658329;-0.40500
15661107;-0.40500
15663885;-0.42000
15666662;-0.39500
15669440;-0.39000
15672218;-0.40000
15674996;-0.41500
15677773;-0.40500
15680551;-0.40000
15683329;-0.38500
15686107;-0.38000
15688884;-0.37000
15691662;-0.36500
15694440;-0.36500
15697218;-0.35500
15699996;-0.33500
15702773;-0.31500
15705551;-0.30500
15708329;-0.30500
15711107;-0.31000
15713884;-0.29000
15716662;-0.27500
15719440;-0.25500
15722218;-0.26000
15724996;-0.26000
15727773;-0.27000
15730551;-0.27000
15733329;-0.26000
15736107;-0.24500
15738884;-0.24500
15741662;-0.24500
15744440;-0.24000
15747218;-0.25000
15749996;-0.24500
15752773;-0.24000
15755551;-0.24500
15758329;-0.24500
15761107;-0.25000
15763884;-0.25000
15766662;-0.25000
15769440;-0.24000
15772218;-0.24000
15774996;-0.24000
15777773;-0.25500
15780551;-0.26000
15783329;-0.25000
15786107;-0.23500
15788884;-0.23500
15791662;-0.25500
15794440;-0.25000
15797218;-0.26500
15799996;-0.25000
15802773;-0.24000
15805551;-0.24500
15808329;-0.25500
15811107;-0.26500
15813884;-0.27500
15816662;-0.27000
15819440;-0.25500
15822218;-0.26500
15824996;-0.27000
15827773;-0.27500
15830551;-0.28000
15833329;-0.27000
15836107;-0.25500
15838884;-0.27000
15841662;-0.27000
15844440;-0.28000
15847218;-0.28500
15849996;-0.27500
15852773;-0.27000
15855551;-0.27000
15858329;-0.28500
15861107;-0.28500
15863884;-0.28500
15866662;-0.27500
15869440;-0.27000
15872218;-0.28000
15874996;-0.28500
15877773;-0.29500
15880551;-0.30000
15883329;-0.29500
15886107;-0.28500
15888884;-0.29500
15891662;-0.30500
15894440;-0.32500
15897218;-0.31500
15899996;-0.31000
15902773;-0.30000
15905551;-0.30000
15908329;-0.30500
15911107;-0.31500
15913884;-0.32000
15916662;-0.31000
15919440;-0.29000
15922218;-0.31000
15924996;-0.29500
15927773;-0.30500
15930551;-0.30500
15933329;-0.30000
15936107;-0.29500
15938884;-0.29500
15941662;-0.29500
15944440;-0.30000
15947218;-0.30000
15949996;-0.29000
15952773;-0.29000
15955551;-0.29000
15958329;-0.29500
15961107;-0.31000
15963884;-0.31500
15966662;-0.30000
15969440;-0.28500
15972218;-0.28500
15974996;-0.29500
15977773;-0.29500
15980551;-0.29500
15983329;-0.29000
15986107;-0.28000
15988884;-0.28000
15991662;-0.29500
15994440;-0.30500
15997218;-0.29000
15999996;-0.28000
16002773;-0.27000
16005551;-0.27000
16008329;-0.28500
16011107;-0.28000
16013884;-0.28500
16016662;-0.27500
16019440;-0.28000
16022218;-0.26500
16024996;-0.27500
16027773;-0.26500
16030551;-0.25500
16033329;-0.23000
16036107;-0.22500
16038884;-0.21000
16041662;-0.22000
16044440;-0.21500
16047218;-0.22000
16049996;-0.20000
16052773;-0.18000
16055551;-0.17000
16058329;-0.18000
16061107;-0.18000
16063884;-0.17000
16066662;-0.16000
16069440;-0.16500
16072218;-0.16500
16074995;-0.17500
16077773;-0.17500
16080551;-0.18500
16083329;-0.18000
16086107;-0.17500
16088884;-0.18000
16091662;-0.20000
16094440;-0.20500
16097218;-0.20000
16099995;-0.19000
16102773;-0.20000
16105551;-0.21000
16108329;-0.19500
16111107;-0.18500
16113884;-0.18500
16116662;-0.18500
16119440;-0.20500
16122218;-0.24500
16124995;-0.25500
16127773;-0.27500
16130551;-0.28500
16133329;-0.28000
16136107;-0.28000
16138884;-0.29500
16141662;-0.30000
16144440;-0.31500
16147218;-0.32500
16149995;-0.30000
16152773;-0.29000
16155551;-0.29500
16158329;-0.31500
16161107;-0.32000
16163884;-0.32000
16166662;-0.31000
16169440;-0.31000
16172218;-0.31500
16174995;-0.32500
16177773;-0.33500
16180551;-0.33000
16183329;-0.33000
16186107;-0.31500
16188884;-0.32500
16191662;-0.31500
16194440;-0.32000
16197218;-0.33000
16199995;-0.33000
16202773;-0.34500
16205551;-0.38500
16208329;-0.43000
16211107;-0.46500
16213884;-0.50500
16216662;-0.53000
16219440;-0.55000
16222218;-0.54000
16224995;-0.47000
16227773;-0.36000
16230551;-0.24500
16233329;-0.14000
16236107;-0.02000
16238884;0.13500
16241662;0.34000
16244440;0.59500
16247218;0.84000
16249995;1.01500
16252773;1.08000
16255551;1.00000
16258329;0.72000
16261107;0.31000
16263884;-0.11000
16266662;-0.37500
16269440;-0.46000
16272218;-0.44000
16274995;-0.39500
16277773;-0.37500
16280551;-0.36500
16283329;-0.36000
16286107;-0.34500
16288884;-0.35500
16291662;-0.36000
16294440;-0.37000
16297218;-0.37500
16299995;-0.36000
16302773;-0.35500
16305551;-0.36000
16308329;-0.36500
16311107;-0.38500
16313884;-0.38500
16316662;-0.37000
16319440;-0.36500
16322218;-0.36000
16324995;-0.37500
16327773;-0.38500
16330551;-0.38000
16333329;-0.37500
16336107;-0.37000
16338884;-0.35000
16341662;-0.36500
16344440;-0.37500
16347218;-0.37000
16349995;-0.37000
16352773;-0.35000
16355551;-0.35500
16358329;-0.36000
16361107;-0.36500
16363884;-0.37000
16366662;-0.36000
16369440;-0.35500
16372218;-0.35000
16374995;-0.36500
16377773;-0.37000
16380551;-0.37000
16383329;-0.36000
16386107;-0.35500
16388884;-0.36000
16391662;-0.35500
16394440;-0.36000
16397218;-0.38000
16399995;-0.36500
16402773;-0.37000
16405551;-0.37500
16408329;-0.37500
16411107;-0.38000
16413884;-0.39000
16416662;-0.38000
16419440;-0.35500
16422218;-0.36500
16424995;-0.37500
16427773;-0.37500
16430551;-0.39000
16433329;-0.37000
16436107;-0.35500
16438884;-0.37000
16441662;-0.35500
16444440;-0.37500
16447218;-0.37000
16449995;-0.35500
16452773;-0.35000
16455551;-0.35500
16458329;-0.36000
16461107;-0.37000
16463884;-0.38000
16466662;-0.37000
16469440;-0.36000
16472218;-0.36500
16474995;-0.36000
16477773;-0.38000
16480551;-0.37500
16483329;-0.38000
16486106;-0.36500
16488884;-0.38000
16491662;-0.37000
16494440;-0.40500
16497218;-0.39000
16499995;-0.39500
16502773;-0.38500
16505551;-0.38500
16508329;-0.39000
16511106;-0.38000
16513884;-0.39000
16516662;-0.37500
16519440;-0.37500
16522218;-0.37000
16524995;-0.38000
16527773;-0.38500
16530551;-0.39000
16533329;-0.37500
16536106;-0.36500
16538884;-0.37000
16541662;-0.37000
16544440;-0.37500
16547218;-0.37000
16549995;-0.36000
16552773;-0.33500
16555551;-0.34000
16558329;-0.33500
16561106;-0.33500
16563884;-0.33000
16566662;-0.31000
16569440;-0.30500
16572218;-0.29000
16574995;-0.30500
16577773;-0.31000
16580551;-0.30000
16583329;-0.28500
16586106;-0.27000
16588884;-0.27000
16591662;-0.27000
16594440;-0.27500
16597218;-0.25500
16599995;-0.25500
16602773;-0.24000
16605551;-0.24000
16608329;-0.25000
16611106;-0.25000
16613884;-0.25000
16616662;-0.24500
16619440;-0.22000
16622218;-0.23500
16624995;-0.23000
16627773;-0.24000
16630551;-0.24500
16633329;-0.24500
16636106;-0.23000
16638884;-0.23000
16641662;-0.23000
16644440;-0.23500
16647218;-0.24500
16649995;-0.24500
16652773;-0.23500
16655551;-0.23500
16658329;-0.25500
16661106;-0.26000
16663884;-0.26500
16666662;-0.25500
16669440;-0.25000
16672218;-0.25500
16674995;-0.27000
16677773;-0.27500
16680551;-0.27500
16683329;-0.26000
16686106;-0.26500
16688884;-0.27000
16691662;-0.27000
16694440;-0.27000
16697218;-0.28000
16699995;-0.27500
16702773;-0.27000
16705551;-0.27000
16708329;-0.28000
16711106;-0.28500
16713884;-0.29000
16716662;-0.28000
16719440;-0.27000
16722218;-0.28000
16724995;-0.29000
16727773;-0.29500
16730551;-0.30500
16733329;-0.29500
16736106;-0.29000
16738884;-0.29500
16741662;-0.30000
16744440;-0.30500
16747218;-0.31000
16749995;-0.29500
16752773;-0.28000
16755551;-0.29000
16758329;-0.31000
16761106;-0.30500
16763884;-0.30500
16766662;-0.29500
16769440;-0.29000
16772218;-0.28000
16774995;-0.29000
16777773;-0.30000
16780551;-0.30500
16783329;-0.29500
16786106;-0.28000
16788884;-0.28500
16791662;-0.30500
16794440;-0.31500
16797218;-0.31000
16799995;-0.31000
16802773;-0.29500
16805551;-0.29500
16808329;-0.31500
16811106;-0.32000
16813884;-0.33500
16816662;-0.32000
16819440;-0.30500
16822218;-0.30000
16824995;-0.31000
16827773;-0.31000
16830551;-0.31000
16833329;-0.31500
16836106;-0.30000
16838884;-0.29500
16841662;-0.30000
16844440;-0.30000
16847218;-0.30500
16849995;-0.30000
16852773;-0.27500
16855551;-0.28000
16858329;-0.29500
16861106;-0.30500
16863884;-0.30500
16866662;-0.29500
16869440;-0.28500
16872217;-0.28000
16874995;-0.29500
16877773;-0.30000
16880551;-0.30000
16883329;-0.28500
16886106;-0.28000
16888884;-0.28500
16891662;-0.29500
16894440;-0.30000
16897217;-0.31000
16899995;-0.29000
16902773;-0.25500
16905551;-0.23500
16908329;-0.23500
16911106;-0.24000
16913884;-0.23500
16916662;-0.22000
16919440;-0.20500
16922217;-0.18500
16924995;-0.19000
16927773;-0.18500
16930551;-0.18000
16933329;-0.17000
16936106;-0.16500
16938884;-0.17000
16941662;-0.19500
16944440;-0.20500
16947217;-0.21000
16949995;-0.21500
16952773;-0.20000
16955551;-0.20000
16958329;-0.20500
16961106;-0.20500
16963884;-0.22500
16966662;-0.22500
16969440;-0.22000
16972217;-0.22000
16974995;-0.20000
16977773;-0.20500
16980551;-0.20000
16983329;-0.22000
16986106;-0.23500
16988884;-0.25000
16991662;-0.27500
16994440;-0.30000
16997217;-0.32000
16999995;-0.32000
17002773;-0.31000
17005551;-0.31000
17008329;-0.34000
17011106;-0.33000
17013884;-0.32500
17016662;-0.32500
17019440;-0.31000
17022217;-0.32000
17024995;-0.32000
17027773;-0.33500
17030551;-0.33000
17033329;-0.34000
17036106;-0.32500
17038884;-0.33000
17041662;-0.33000
17044440;-0.34500
17047217;-0.34000
17049995;-0.34500
17052773;-0.35000
17055551;-0.34000
17058329;-0.35500
17061106;-0.35000
17063884;-0.36000
17066662;-0.35000
17069440;-0.34500
17072217;-0.37000
17074995;-0.41500
17077773;-0.45000
17080551;-0.47000
17083329;-0.46000
17086106;-0.44500
17088884;-0.47500
17091662;-0.54000
17094440;-0.60000
17097217;-0.61000
17099995;-0.54500
17102773;-0.43000
17105551;-0.33500
17108329;-0.22500
17111106;-0.08500
17113884;0.12500
17116662;0.41000
17119440;0.67500
17122217;0.86500
17124995;0.93000
17127773;0.81000
17130551;0.49000
17133329;0.09500
17136106;-0.22000
17138884;-0.42500
17141662;-0.49000
17144440;-0.47500
17147217;-0.42500
17149995;-0.39000
17152773;-0.38500
17155551;-0.38500
17158329;-0.39000
17161106;-0.39000
17163884;-0.37500
17166662;-0.37000
17169440;-0.37000
17172217;-0.37500
17174995;-0.38500
17177773;-0.38000
17180551;-0.39500
17183329;-0.39000
17186106;-0.37500
17188884;-0.38000
17191662;-0.39000
17194440;-0.39000
17197217;-0.38500
17199995;-0.38000
17202773;-0.38000
17205551;-0.39000
17208329;-0.39000
17211106;-0.40500
17213884;-0.40000
17216662;-0.38500
17219440;-0.38000
17222217;-0.37500
17224995;-0.38500
17227773;-0.40000
17230551;-0.41500
17233329;-0.40500
17236106;-0.38500
17238884;-0.39000
17241662;-0.39000
17244440;-0.39000
17247217;-0.40500
17249995;-0.38500
17252773;-0.39000
17255551;-0.38000
17258329;-0.38500
17261106;-0.40000
17263884;-0.39500
17266662;-0.38500
17269440;-0.38000
17272217;-0.39500
17274995;-0.39500
17277773;-0.40500
17280551;-0.40500
17283328;-0.40000
17286106;-0.38500
17288884;-0.38500
17291662;-0.38000
17294440;-0.40500
17297217;-0.41000
17299995;-0.40500
17302773;-0.39000
17305551;-0.38500
17308328;-0.39000
17311106;-0.39000
17313884;-0.40000
17316662;-0.39000
17319440;-0.37500
17322217;-0.37500
17324995;-0.38500
17327773;-0.39500
17330551;-0.38500
17333328;-0.37500
17336106;-0.36500
17338884;-0.37500
17341662;-0.39500
17344440;-0.41000
17347217;-0.41000
17349995;-0.41000
17352773;-0.39500
17355551;-0.40000
17358328;-0.42500
17361106;-0.43000
17363884;-0.45000
17366662;-0.43500
17369440;-0.43000
17372217;-0.42500
17374995;-0.43500
17377773;-0.44500
17380551;-0.45000
17383328;-0.43500
17386106;-0.44000
17388884;-0.44000
17391662;-0.44000
17394440;-0.45500
17397217;-0.46500
17399995;-0.44500
17402773;-0.43000
17405551;-0.43500
17408328;-0.43000
17411106;-0.42500
17413884;-0.41500
17416662;-0.40000
17419440;-0.38000
17422217;-0.36500
17424995;-0.37000
17427773;-0.36500
17430551;-0.36500
17433328;-0.35000
17436106;-0.33500
17438884;-0.33500
17441662;-0.33000
17444440;-0.31500
17447217;-0.31500
17449995;-0.31000
17452773;-0.29500
17455551;-0.29500
17458328;-0.29500
17461106;-0.31000
17463884;-0.31500
17466662;-0.29500
17469440;-0.28000
17472217;-0.28000
17474995;-0.27000
17477773;-0.27500
17480551;-0.28000
17483328;-0.27500
17486106;-0.28500
17488884;-0.28000
17491662;-0.28500
17494440;-0.29000
17497217;-0.30000
17499995;-0.28000
17502773;-0.28500
17505551;-0.28000
17508328;-0.29500
17511106;-0.31000
17513884;-0.32000
17516662;-0.30500
17519440;-0.29000
17522217;-0.29000
17524995;-0.30000
17527773;-0.32000
17530551;-0.31000
17533328;-0.31500
17536106;-0.28500
17538884;-0.27500
17541662;-0.28500
17544440;-0.28500
17547217;-0.30000
17549995;-0.30000
17552773;-0.29500
17555551;-0.31000
17558328;-0.31000
17561106;-0.30500
17563884;-0.31000
17566662;-0.30000
17569440;-0.30000
17572217;-0.30500
17574995;-0.31000
17577773;-0.33000
17580551;-0.33500
17583328;-0.33500
17586106;-0.33500
17588884;-0.33500
17591662;-0.33500
17594440;-0.35000
17597217;-0.34500
17599995;-0.33500
17602773;-0.32500
17605551;-0.33000
17608328;-0.32500
17611106;-0.32500
17613884;-0.32500
17616662;-0.32500
17619440;-0.32500
17622217;-0.31000
17624995;-0.31500
17627773;-0.31000
17630551;-0.31500
17633328;-0.31500
17636106;-0.31000
17638884;-0.31000
17641662;-0.32000
17644440;-0.32000
17647217;-0.32500
17649995;-0.32000
17652773;-0.31500
17655551;-0.31500
17658328;-0.33000
17661106;-0.33000
17663884;-0.32000
17666662;-0.32000
17669439;-0.32000
17672217;-0.32500
17674995;-0.32500
17677773;-0.34000
17680551;-0.35000
17683328;-0.34500
17686106;-0.32500
17688884;-0.32000
17691662;-0.32500
17694439;-0.33000
17697217;-0.34000
17699995;-0.33000
17702773;-0.32500
17705551;-0.31500
17708328;-0.31000
17711106;-0.32500
17713884;-0.33000
17716662;-0.33500
17719439;-0.32500
17722217;-0.33000
17724995;-0.31000
17727773;-0.29000
17730551;-0.27500
17733328;-0.26000
17736106;-0.25500
17738884;-0.26000
17741662;-0.26000
17744439;-0.25500
17747217;-0.25500
17749995;-0.24500
17752773;-0.23500
17755551;-0.21500
17758328;-0.21000
17761106;-0.23000
17763884;-0.23500
17766662;-0.22500
17769439;-0.22000
17772217;-0.21500
17774995;-0.24000
17777773;-0.24500
17780551;-0.22500
17783328;-0.21000
17786106;-0.19500
17788884;-0.20500
17791662;-0.23500
17794439;-0.27000
17797217;-0.28000
17799995;-0.24000
17802773;-0.21500
17805551;-0.20500
17808328;-0.21000
17811106;-0.24500
17813884;-0.27000
17816662;-0.26500
17819439;-0.27500
17822217;-0.28000
17824995;-0.30000
17827773;-0.32500
17830551;-0.34500
17833328;-0.33000
17836106;-0.33000
17838884;-0.31500
17841662;-0.32500
17844439;-0.33000
17847217;-0.34000
17849995;-0.33000
17852773;-0.33500
17855551;-0.34500
17858328;-0.36000
17861106;-0.37500
17863884;-0.36000
17866662;-0.36500
17869439;-0.33500
17872217;-0.33000
17874995;-0.34500
17877773;-0.34000
17880551;-0.34000
17883328;-0.34500
17886106;-0.34000
17888884;-0.34500
17891662;-0.34000
17894439;-0.34500
17897217;-0.34500
17899995;-0.35000
17902773;-0.38500
17905551;-0.44000
17908328;-0.45500
17911106;-0.49500
17913884;-0.52000
17916662;-0.52500
17919439;-0.48500
17922217;-0.37000
17924995;-0.23000
17927773;-0.07500
17930551;0.11000
17933328;0.36000
17936106;0.63000
17938884;0.83500
17941662;0.97000
17944439;1.06500
17947217;1.11000
17949995;1.09500
17952773;0.96000
17955551;0.68000
17958328;0.33500
17961106;0.00000
17963884;-0.24500
17966662;-0.37500
17969439;-0.44000
17972217;-0.47000
17974995;-0.46500
17977773;-0.45500
17980551;-0.43500
17983328;-0.40000
17986106;-0.37500
17988884;-0.37500
17991662;-0.38000
17994439;-0.41000
17997217;-0.42000
17999995;-0.40500
18002773;-0.38000
18005551;-0.38000
18008328;-0.38000
18011106;-0.40500
18013884;-0.41000
18016662;-0.41000
18019439;-0.40000
18022217;-0.39500
18024995;-0.41000
18027773;-0.42000
18030551;-0.41000
18033328;-0.40500
18036106;-0.39500
18038884;-0.39000
18041662;-0.39000
18044439;-0.39500
18047217;-0.40500
18049995;-0.41000
18052773;-0.38500
18055550;-0.39000
18058328;-0.40000
18061106;-0.39500
18063884;-0.39500
18066662;-0.41000
18069439;-0.39500
18072217;-0.39000
18074995;-0.41500
18077773;-0.41500
18080550;-0.41500
18083328;-0.42000
18086106;-0.40500
18088884;-0.39000
18091662;-0.40500
18094439;-0.41500
18097217;-0.41000
18099995;-0.40000
18102773;-0.40000
18105550;-0.40500
18108328;-0.41000
18111106;-0.42500
18113884;-0.43000
18116662;-0.41000
18119439;-0.39500
18122217;-0.41000
18124995;-0.39500
18127773;-0.40500
18130550;-0.41500
18133328;-0.41000
18136106;-0.40500
18138884;-0.41000
18141662;-0.42000
18144439;-0.41500
18147217;-0.41500
18149995;-0.40500
18152773;-0.40000
18155550;-0.39500
18158328;-0.39500
18161106;-0.41000
18163884;-0.42500
18166662;-0.42000
18169439;-0.41500
18172217;-0.42500
18174995;-0.42500
18177773;-0.44500
18180550;-0.44000
18183328;-0.43000
18186106;-0.43500
18188884;-0.45000
18191662;-0.45000
18194439;-0.46500
18197217;-0.45000
18199995;-0.45500
18202773;-0.45000
18205550;-0.46000
18208328;-0.45000
18211106;-0.46500
18213884;-0.47000
18216662;-0.45500
18219439;-0.45500
18222217;-0.45500
18224995;-0.45000
18227773;-0.46000
18230550;-0.46500
18233328;-0.46500
18236106;-0.44500
18238884;-0.44000
18241662;-0.43000
18244439;-0.43000
18247217;-0.41500
18249995;-0.39500
18252773;-0.37500
18255550;-0.36000
18258328;-0.35500
18261106;-0.35000
18263884;-0.34000
18266662;-0.32000
18269439;-0.30500
18272217;-0.29000
18274995;-0.29000
18277773;-0.28000
18280550;-0.28000
18283328;-0.26000
18286106;-0.25500
18288884;-0.26000
18291662;-0.25500
18294439;-0.26000
18297217;-0.26500
18299995;-0.25500
18302773;-0.24000
18305550;-0.24000
18308328;-0.24500
18311106;-0.25500
18313884;-0.26000
18316662;-0.25500
18319439;-0.24500
18322217;-0.25500
18324995;-0.25000
18327773;-0.26000
18330550;-0.27500
18333328;-0.25500
18336106;-0.26000
18338884;-0.25500
18341662;-0.28000
18344439;-0.28000
18347217;-0.28500
18349995;-0.27500
18352773;-0.27000
18355550;-0.26000
18358328;-0.28000
18361106;-0.27000
18363884;-0.28000
18366662;-0.27000
18369439;-0.25500
18372217;-0.26500
18374995;-0.27000
18377773;-0.27500
18380550;-0.27500
18383328;-0.28000
18386106;-0.27000
18388884;-0.26500
18391662;-0.27500
18394439;-0.29500
18397217;-0.30500
18399995;-0.28000
18402773;-0.28500
18405550;-0.27500
18408328;-0.28500
18411106;-0.30500
18413884;-0.31000
18416662;-0.29500
18419439;-0.29500
18422217;-0.29000
18424995;-0.30500
18427773;-0.31500
18430550;-0.32000
18433328;-0.30500
18436106;-0.28000
18438884;-0.27500
18441662;-0.30000
18444439;-0.30500
18447217;-0.29500
18449995;-0.29500
18452773;-0.27500
18455550;-0.27500
18458328;-0.28500
18461106;-0.29000
18463884;-0.29000
18466661;-0.29000
18469439;-0.29500
18472217;-0.28500
18474995;-0.29500
18477773;-0.29500
18480550;-0.30000
18483328;-0.29500
18486106;-0.28500
18488884;-0.28000
18491661;-0.29500
18494439;-0.29500
18497217;-0.30500
18499995;-0.29000
18502773;-0.28000
18505550;-0.28000
18508328;-0.29000
18511106;-0.31000
18513884;-0.29500
18516661;-0.29000
18519439;-0.27000
18522217;-0.29000
18524995;-0.29500
18527773;-0.29000
18530550;-0.30000
18533328;-0.28000
18536106;-0.28000
18538884;-0.27500
18541661;-0.28000
18544439;-0.28000
18547217;-0.29000
18549995;-0.27500
18552773;-0.25000
18555550;-0.24000
18558328;-0.23000
18561106;-0.23500
18563884;-0.23500
18566661;-0.22500
18569439;-0.21000
18572217;-0.21500
18574995;-0.22000
18577773;-0.21500
18580550;-0.20500
18583328;-0.18000
18586106;-0.17000
18588884;-0.17500
18591661;-0.18500
18594439;-0.18500
18597217;-0.20000
18599995;-0.19000
18602773;-0.17500
18605550;-0.18000
18608328;-0.19500
18611106;-0.20000
18613884;-0.20000
18616661;-0.18500
18619439;-0.19000
18622217;-0.19500
18624995;-0.21000
18627773;-0.20000
18630550;-0.18000
18633328;-0.16000
18636106;-0.16500
18638884;-0.19500
18641661;-0.23500
18644439;-0.24500
18647217;-0.27500
18649995;-0.28500
18652773;-0.29000
18655550;-0.28500
18658328;-0.30000
18661106;-0.31000
18663884;-0.32000
18666661;-0.30500
18669439;-0.29000
18672217;-0.30000
18674995;-0.31500
18677773;-0.31000
18680550;-0.32000
18683328;-0.31000
18686106;-0.30500
18688884;-0.30500
18691661;-0.31000
18694439;-0.32000
18697217;-0.32500
18699995;-0.32500
18702773;-0.31500
18705550;-0.32000
18708328;-0.32000
18711106;-0.33000
18713884;-0.32500
18716661;-0.32500
18719439;-0.31500
18722217;-0.31500
18724995;-0.33500
18727773;-0.34500
18730550;-0.38500
18733328;-0.41000
18736106;-0.43500
18738884;-0.44500
18741661;-0.44500
18744439;-0.45000
18747217;-0.49000
18749995;-0.51500
18752773;-0.54000
18755550;-0.49500
18758328;-0.39500
18761106;-0.25500
18763884;-0.08000
18766661;0.10500
18769439;0.33500
18772217;0.61000
18774995;0.88500
18777773;1.05000
18780550;1.13500
18783328;1.08500
18786106;0.81500
18788884;0.36500
18791661;-0.08500
18794439;-0.38500
18797217;-0.47000
18799995;-0.42500
18802773;-0.36500
18805550;-0.34000
18808328;-0.33000
18811106;-0.35500
18813884;-0.35000
18816661;-0.34000
18819439;-0.32000
18822217;-0.33500
18824995;-0.35000
18827773;-0.36000
18830550;-0.36500
18833328;-0.36500
18836106;-0.34500
18838884;-0.35000
18841661;-0.35000
18844439;-0.36500
18847217;-0.36500
18849995;-0.35500
18852772;-0.35500
18855550;-0.35500
18858328;-0.36500
18861106;-0.37000
18863884;-0.37500
18866661;-0.36500
18869439;-0.35500
18872217;-0.35000
18874995;-0.36000
18877772;-0.36000
18880550;-0.37000
18883328;-0.35500
18886106;-0.35500
18888884;-0.35500
18891661;-0.36000
18894439;-0.37000
18897217;-0.37500
18899995;-0.36500
18902772;-0.37000
18905550;-0.35000
18908328;-0.35000
18911106;-0.37000
18913884;-0.38000
18916661;-0.37000
18919439;-0.37000
18922217;-0.36000
18924995;-0.36500
18927772;-0.37000
18930550;-0.38000
18933328;-0.36500
18936106;-0.36500
18938884;-0.36000
18941661;-0.37500
18944439;-0.37500
18947217;-0.37500
18949995;-0.36500
18952772;-0.36000
18955550;-0.35500
18958328;-0.34500
18961106;-0.36500
18963884;-0.37500
18966661;-0.37000
18969439;-0.36500
18972217;-0.35000
18974995;-0.35500
18977772;-0.36500
18980550;-0.36000
18983328;-0.36500
18986106;-0.36000
18988884;-0.36000
18991661;-0.36500
18994439;-0.37500
18997217;-0.37500
18999995;-0.37000
19002772;-0.37500
19005550;-0.36500
19008328;-0.38000
19011106;-0.39500
19013884;-0.40000
19016661;-0.39500
19019439;-0.39000
19022217;-0.39500
19024995;-0.40000
19027772;-0.41000
19030550;-0.41000
19033328;-0.40000
19036106;-0.38500
19038884;-0.39000
19041661;-0.40000
19044439;-0.39000
19047217;-0.39500
19049995;-0.38000
19052772;-0.36500
19055550;-0.36000
19058328;-0.35500
19061106;-0.35500
19063884;-0.35000
19066661;-0.33500
19069439;-0.31500
19072217;-0.28500
19074995;-0.29000
19077772;-0.27500
19080550;-0.27000
19083328;-0.26500
19086106;-0.25000
19088884;-0.24000
19091661;-0.24000
19094439;-0.25500
19097217;-0.25000
19099995;-0.23500
19102772;-0.22500
19105550;-0.22500
19108328;-0.22500
19111106;-0.21500
19113884;-0.22500
19116661;-0.22000
19119439;-0.21000
19122217;-0.21000
19124995;-0.21000
19127772;-0.21500
19130550;-0.22500
19133328;-0.21500
19136106;-0.21000
19138884;-0.21000
19141661;-0.19500
19144439;-0.22000
19147217;-0.22500
19149995;-0.23000
19152772;-0.20500
19155550;-0.21500
19158328;-0.22000
19161106;-0.24000
