time_ms;ecg_value
0;-0.49000
2778;-0.49000
5556;-0.50000
8333;-0.50000
11111;-0.50500
13889;-0.49500
16667;-0.49500
19444;-0.49000
22222;-0.48500
25000;-0.49500
27778;-0.49000
30556;-0.48000
33333;-0.47500
36111;-0.47500
38889;-0.48000
41667;-0.49000
44444;-0.49000
47222;-0.48500
50000;-0.48000
52778;-0.48500
55556;-0.48500
58333;-0.49500
61111;-0.50000
63889;-0.47500
66667;-0.47500
69444;-0.48500
72222;-0.49500
75000;-0.49500
77778;-0.48500
80556;-0.48500
83333;-0.48500
86111;-0.49000
88889;-0.49500
91667;-0.51000
94444;-0.49000
97222;-0.48000
100000;-0.47500
102778;-0.47500
105556;-0.48500
108333;-0.50000
111111;-0.51000
113889;-0.50500
116667;-0.51000
119444;-0.51000
122222;-0.51500
125000;-0.53000
127778;-0.52500
130556;-0.52000
133333;-0.52000
136111;-0.52500
138889;-0.53500
141667;-0.55000
144444;-0.53500
147222;-0.51000
150000;-0.49500
152778;-0.49000
155556;-0.49500
158333;-0.48500
161111;-0.45500
163889;-0.43500
166667;-0.43000
169444;-0.42000
172222;-0.41000
175000;-0.41000
177778;-0.38500
180556;-0.37000
183333;-0.35500
186111;-0.35500
188889;-0.35500
191667;-0.36500
194444;-0.35500
197222;-0.34500
200000;-0.33500
202778;-0.34000
205555;-0.35000
208333;-0.35500
211111;-0.35000
213889;-0.34000
216667;-0.34000
219444;-0.34000
222222;-0.35500
225000;-0.35500
227778;-0.35500
230555;-0.35000
233333;-0.34000
236111;-0.34500
238889;-0.35500
241667;-0.35000
244444;-0.34500
247222;-0.35000
250000;-0.35000
252778;-0.34500
255555;-0.34000
258333;-0.35000
261111;-0.33500
263889;-0.34000
266667;-0.34000
269444;-0.34500
272222;-0.34000
275000;-0.35000
277778;-0.35000
280555;-0.33500
283333;-0.34000
286111;-0.35000
288889;-0.36000
291667;-0.37000
294444;-0.36000
297222;-0.35000
300000;-0.35000
302778;-0.35000
305555;-0.36500
308333;-0.37000
311111;-0.36500
313889;-0.36000
316667;-0.35500
319444;-0.36500
322222;-0.37000
325000;-0.38000
327778;-0.37500
330555;-0.35000
333333;-0.36000
336111;-0.36500
338889;-0.37000
341667;-0.37500
344444;-0.36500
347222;-0.36500
350000;-0.36500
352778;-0.36500
355555;-0.37500
358333;-0.37500
361111;-0.37500
363889;-0.37000
366667;-0.37500
369444;-0.38500
372222;-0.39000
375000;-0.38500
377778;-0.37500
380555;-0.37000
383333;-0.36000
386111;-0.37000
388889;-0.36500
391667;-0.37500
394444;-0.36000
397222;-0.35500
400000;-0.35000
402778;-0.37000
405555;-0.36500
408333;-0.38000
411111;-0.37500
413889;-0.36500
416667;-0.36000
419444;-0.35500
422222;-0.36000
425000;-0.36500
427778;-0.35500
430555;-0.33500
433333;-0.33000
436111;-0.34000
438889;-0.35000
441667;-0.35500
444444;-0.35500
447222;-0.34500
450000;-0.34000
452778;-0.34500
455555;-0.34500
458333;-0.35500
461111;-0.34500
463889;-0.32500
466667;-0.31500
469444;-0.30000
472222;-0.29500
475000;-0.30000
477778;-0.29000
480555;-0.27500
483333;-0.26500
486111;-0.27500
488889;-0.26000
491667;-0.26000
494444;-0.25000
497222;-0.23500
500000;-0.23500
502778;-0.24000
505555;-0.24000
508333;-0.26000
511111;-0.25500
513889;-0.25000
516667;-0.24000
519444;-0.27000
522222;-0.27000
525000;-0.27000
527778;-0.27000
530555;-0.27500
533333;-0.26500
536111;-0.26500
538889;-0.24000
541667;-0.25000
544444;-0.26000
547222;-0.27000
550000;-0.27500
552778;-0.29500
555555;-0.32000
558333;-0.34000
561111;-0.34000
563889;-0.34500
566667;-0.34000
569444;-0.35000
572222;-0.35500
575000;-0.36000
577778;-0.36000
580555;-0.36000
583333;-0.35000
586111;-0.36500
588889;-0.36500
591667;-0.37000
594444;-0.37000
597222;-0.35000
600000;-0.35000
602778;-0.35500
605555;-0.36000
608333;-0.36500
611111;-0.38000
613889;-0.36000
616666;-0.36000
619444;-0.36500
622222;-0.38000
625000;-0.38500
627778;-0.37500
630555;-0.36500
633333;-0.37000
636111;-0.37000
638889;-0.37500
641666;-0.39000
644444;-0.42500
647222;-0.45500
650000;-0.47000
652778;-0.48500
655555;-0.54000
658333;-0.56500
661111;-0.53500
663889;-0.44500
666666;-0.29000
669444;-0.12500
672222;0.07000
675000;0.33500
677778;0.62500
680555;0.84500
683333;0.95500
686111;0.89000
688889;0.64500
691666;0.24000
694444;-0.16500
697222;-0.41500
700000;-0.47500
702778;-0.46000
705555;-0.42000
708333;-0.39500
711111;-0.38500
713889;-0.37000
716666;-0.38000
719444;-0.38500
722222;-0.40000
725000;-0.41000
727778;-0.40500
730555;-0.39500
733333;-0.39000
736111;-0.39500
738889;-0.39500
741666;-0.40500
744444;-0.40000
747222;-0.40500
750000;-0.40000
752778;-0.40500
755555;-0.40500
758333;-0.40500
761111;-0.40000
763889;-0.39500
766666;-0.38500
769444;-0.39000
772222;-0.39500
775000;-0.39500
777778;-0.39500
780555;-0.38500
783333;-0.37500
786111;-0.37500
788889;-0.38500
791666;-0.40000
794444;-0.39500
797222;-0.39000
800000;-0.38500
802778;-0.39000
805555;-0.38500
808333;-0.40000
811111;-0.39500
813889;-0.40000
816666;-0.38000
819444;-0.38000
822222;-0.39500
825000;-0.40500
827778;-0.39000
830555;-0.39000
833333;-0.37500
836111;-0.38000
838889;-0.38000
841666;-0.39500
844444;-0.39500
847222;-0.38000
850000;-0.38000
852778;-0.38000
855555;-0.39000
858333;-0.40000
861111;-0.39500
863889;-0.38000
866666;-0.37500
869444;-0.37500
872222;-0.39000
875000;-0.40000
877778;-0.39000
880555;-0.37500
883333;-0.38000
886111;-0.38500
888889;-0.38500
891666;-0.39500
894444;-0.39500
897222;-0.39500
900000;-0.37500
902778;-0.38000
905555;-0.39000
908333;-0.40000
911111;-0.39500
913889;-0.39500
916666;-0.39000
919444;-0.38500
922222;-0.39000
925000;-0.39500
927778;-0.39500
930555;-0.38500
933333;-0.38000
936111;-0.38500
938889;-0.39000
941666;-0.38500
944444;-0.39000
947222;-0.38000
950000;-0.38000
952778;-0.39000
955555;-0.39000
958333;-0.40000
961111;-0.39000
963889;-0.38500
966666;-0.38500
969444;-0.39000
972222;-0.39500
975000;-0.39000
977778;-0.38500
980555;-0.36000
983333;-0.35500
986111;-0.34500
988889;-0.35000
991666;-0.34000
994444;-0.33000
997222;-0.29500
1000000;-0.29500
1002777;-0.29000
1005555;-0.30500
1008333;-0.30000
1011111;-0.28500
1013889;-0.28000
1016666;-0.26000
1019444;-0.27000
1022222;-0.28000
1025000;-0.29000
1027777;-0.28500
1030555;-0.27500
1033333;-0.26500
1036111;-0.27000
1038889;-0.27000
1041666;-0.28500
1044444;-0.28000
1047222;-0.28000
1050000;-0.26000
1052777;-0.28000
1055555;-0.28500
1058333;-0.29000
1061111;-0.28500
1063889;-0.27000
1066666;-0.27000
1069444;-0.28000
1072222;-0.28000
1075000;-0.29500
1077777;-0.28000
1080555;-0.29000
1083333;-0.28500
1086111;-0.28500
1088889;-0.29500
1091666;-0.30500
1094444;-0.29500
1097222;-0.29500
1100000;-0.28500
1102777;-0.29000
1105555;-0.30000
1108333;-0.31500
1111111;-0.30500
1113889;-0.29500
1116666;-0.29000
1119444;-0.30500
1122222;-0.30500
1125000;-0.31500
1127777;-0.31500
1130555;-0.30500
1133333;-0.30000
1136111;-0.30500
1138889;-0.32000
1141666;-0.33000
1144444;-0.32500
1147222;-0.30500
1150000;-0.30500
1152777;-0.31000
1155555;-0.32000
1158333;-0.32500
1161111;-0.32000
1163889;-0.31500
1166666;-0.31000
1169444;-0.32000
1172222;-0.31500
1175000;-0.33000
1177777;-0.32500
1180555;-0.32500
1183333;-0.32000
1186111;-0.32000
1188889;-0.32500
1191666;-0.33500
1194444;-0.33000
1197222;-0.32000
1200000;-0.31000
1202777;-0.31500
1205555;-0.32500
1208333;-0.33000
1211111;-0.31000
1213889;-0.30500
1216666;-0.30500
1219444;-0.29000
1222222;-0.30000
1225000;-0.31000
1227777;-0.31000
1230555;-0.29500
1233333;-0.29500
1236111;-0.29500
1238889;-0.29500
1241666;-0.30000
1244444;-0.30000
1247222;-0.30000
1250000;-0.29000
1252777;-0.30000
1255555;-0.31000
1258333;-0.32500
1261111;-0.31000
1263889;-0.30000
1266666;-0.29000
1269444;-0.30000
1272222;-0.29000
1275000;-0.30000
1277777;-0.29500
1280555;-0.27500
1283333;-0.25500
1286111;-0.24500
1288889;-0.23500
1291666;-0.24000
1294444;-0.23500
1297222;-0.22500
1300000;-0.22000
1302777;-0.20500
1305555;-0.20000
1308333;-0.20000
1311111;-0.18500
1313889;-0.17500
1316666;-0.18000
1319444;-0.18500
1322222;-0.20500
1325000;-0.21500
1327777;-0.22000
1330555;-0.21000
1333333;-0.21000
1336111;-0.20500
1338889;-0.23500
1341666;-0.23500
1344444;-0.21500
1347222;-0.19500
1350000;-0.17000
1352777;-0.18500
1355555;-0.23000
1358333;-0.25500
1361111;-0.26000
1363889;-0.27000
1366666;-0.27500
1369444;-0.29000
1372222;-0.30500
1375000;-0.31500
1377777;-0.30500
1380555;-0.30500
1383333;-0.30000
1386111;-0.31500
1388888;-0.31500
1391666;-0.32000
1394444;-0.32500
1397222;-0.31000
1400000;-0.32000
1402777;-0.32000
1405555;-0.32500
1408333;-0.33500
1411111;-0.32500
1413888;-0.33000
1416666;-0.31500
1419444;-0.32500
1422222;-0.32500
1425000;-0.33500
1427777;-0.33500
1430555;-0.31500
1433333;-0.31500
1436111;-0.32000
1438888;-0.32500
1441666;-0.35000
1444444;-0.37000
1447222;-0.41000
1450000;-0.42500
1452777;-0.43500
1455555;-0.44000
1458333;-0.48000
1461111;-0.52500
1463888;-0.56500
1466666;-0.55000
1469444;-0.52500
1472222;-0.48000
1475000;-0.38500
1477777;-0.25500
1480555;-0.13500
1483333;0.03500
1486111;0.26000
1488888;0.49500
1491666;0.71500
1494444;0.87000
1497222;0.92500
1500000;0.79000
1502777;0.47000
1505555;0.07000
1508333;-0.27000
1511111;-0.43000
1513888;-0.45500
1516666;-0.40500
1519444;-0.34500
1522222;-0.33500
1525000;-0.35500
1527777;-0.34500
1530555;-0.34000
1533333;-0.33500
1536111;-0.33000
1538888;-0.34500
1541666;-0.35500
1544444;-0.35000
1547222;-0.34500
1550000;-0.34000
1552777;-0.34000
1555555;-0.34500
1558333;-0.37000
1561111;-0.35500
1563888;-0.35000
1566666;-0.35500
1569444;-0.35500
1572222;-0.36500
1575000;-0.36500
1577777;-0.36500
1580555;-0.35000
1583333;-0.33500
1586111;-0.33500
1588888;-0.35000
1591666;-0.35500
1594444;-0.34500
1597222;-0.33500
1600000;-0.33500
1602777;-0.33000
1605555;-0.34500
1608333;-0.35000
1611111;-0.35500
1613888;-0.33000
1616666;-0.33000
1619444;-0.33500
1622222;-0.33500
1625000;-0.35000
1627777;-0.34500
1630555;-0.34500
1633333;-0.33000
1636111;-0.35000
1638888;-0.34500
1641666;-0.35000
1644444;-0.35000
1647222;-0.34000
1650000;-0.33500
1652777;-0.34000
1655555;-0.34500
1658333;-0.36000
1661111;-0.34500
1663888;-0.33500
1666666;-0.33000
1669444;-0.33000
1672222;-0.34000
1675000;-0.34500
1677777;-0.34000
1680555;-0.33500
1683333;-0.31500
1686111;-0.31500
1688888;-0.32500
1691666;-0.34000
1694444;-0.33000
1697222;-0.33000
1700000;-0.32500
1702777;-0.31500
1705555;-0.32000
1708333;-0.34000
1711111;-0.33000
1713888;-0.32500
1716666;-0.32000
1719444;-0.32000
1722222;-0.33500
1725000;-0.34500
1727777;-0.33500
1730555;-0.32500
1733333;-0.33000
1736111;-0.34000
1738888;-0.34500
1741666;-0.35000
1744444;-0.35000
1747222;-0.33500
1750000;-0.34000
1752777;-0.34500
1755555;-0.34500
1758333;-0.35500
1761111;-0.35500
1763888;-0.34500
1766666;-0.34000
1769444;-0.34500
1772222;-0.35000
1775000;-0.36000
1777777;-0.35500
1780555;-0.35000
1783333;-0.33000
1786111;-0.33000
1788888;-0.32500
1791666;-0.34000
1794444;-0.31500
1797222;-0.30000
1799999;-0.29500
1802777;-0.28500
1805555;-0.28500
1808333;-0.28500
1811111;-0.27500
1813888;-0.25500
1816666;-0.25000
1819444;-0.24500
1822222;-0.25500
1824999;-0.27500
1827777;-0.26000
1830555;-0.24000
1833333;-0.23000
1836111;-0.24000
1838888;-0.24500
1841666;-0.25000
1844444;-0.24000
1847222;-0.23500
1849999;-0.23500
1852777;-0.24500
1855555;-0.25500
1858333;-0.26000
1861111;-0.25500
1863888;-0.25000
1866666;-0.24500
1869444;-0.25000
1872222;-0.25500
1874999;-0.26500
1877777;-0.25500
1880555;-0.24000
1883333;-0.24500
1886111;-0.25000
1888888;-0.26000
1891666;-0.26500
1894444;-0.26500
1897222;-0.26500
1899999;-0.25500
1902777;-0.25500
1905555;-0.27000
1908333;-0.27000
1911111;-0.26500
1913888;-0.25500
1916666;-0.25000
1919444;-0.25500
1922222;-0.27000
1924999;-0.27500
1927777;-0.28000
1930555;-0.28000
1933333;-0.27500
1936111;-0.28000
1938888;-0.29000
1941666;-0.30000
1944444;-0.30000
1947222;-0.30000
1949999;-0.30500
1952777;-0.30000
1955555;-0.31000
1958333;-0.32500
1961111;-0.31000
1963888;-0.30000
1966666;-0.29000
1969444;-0.29500
1972222;-0.30000
1974999;-0.32500
1977777;-0.31500
1980555;-0.29000
1983333;-0.28500
1986111;-0.29500
1988888;-0.30000
1991666;-0.31000
1994444;-0.31000
1997222;-0.30500
1999999;-0.29000
2002777;-0.30000
2005555;-0.31500
2008333;-0.34500
2011111;-0.32500
2013888;-0.32000
2016666;-0.29500
2019444;-0.31000
2022222;-0.31500
2024999;-0.32000
2027777;-0.31000
2030555;-0.31000
2033333;-0.30500
2036111;-0.29500
2038888;-0.30000
2041666;-0.29500
2044444;-0.29000
2047222;-0.29500
2049999;-0.29000
2052777;-0.30000
2055555;-0.30500
2058333;-0.30500
2061111;-0.30500
2063888;-0.28000
2066666;-0.28000
2069444;-0.27500
2072222;-0.28500
2074999;-0.31000
2077777;-0.29000
2080555;-0.28500
2083333;-0.26500
2086111;-0.25500
2088888;-0.25000
2091666;-0.25500
2094444;-0.25000
2097222;-0.24500
2099999;-0.24000
2102777;-0.21500
2105555;-0.21000
2108333;-0.22500
2111111;-0.21500
2113888;-0.20500
2116666;-0.18500
2119444;-0.17500
2122222;-0.19500
2124999;-0.19000
2127777;-0.17500
2130555;-0.18000
2133333;-0.18000
2136111;-0.19000
2138888;-0.20500
2141666;-0.21500
2144444;-0.20000
2147222;-0.19000
2149999;-0.19500
2152777;-0.21500
2155555;-0.23000
2158333;-0.24000
2161111;-0.23000
2163888;-0.20500
2166666;-0.19000
2169444;-0.20500
2172222;-0.23000
2174999;-0.26000
2177777;-0.26500
2180555;-0.26000
2183333;-0.28500
2186110;-0.30500
2188888;-0.31000
2191666;-0.32500
2194444;-0.32500
2197222;-0.33000
2199999;-0.31500
2202777;-0.30500
2205555;-0.30000
2208333;-0.32000
2211110;-0.32500
2213888;-0.33000
2216666;-0.30500
2219444;-0.31000
2222222;-0.31500
2224999;-0.32500
2227777;-0.33000
2230555;-0.32000
2233333;-0.32000
2236110;-0.33000
2238888;-0.34500
2241666;-0.34500
2244444;-0.33500
2247222;-0.33000
2249999;-0.32500
2252777;-0.33000
2255555;-0.36000
2258333;-0.38500
2261110;-0.39500
2263888;-0.42000
2266666;-0.40500
2269444;-0.41500
2272222;-0.43000
2274999;-0.51000
2277777;-0.53500
2280555;-0.52500
2283333;-0.46000
2286110;-0.36500
2288888;-0.27000
2291666;-0.14000
2294444;0.05000
2297222;0.30000
2299999;0.55500
2302777;0.75500
2305555;0.86000
2308333;0.82000
2311110;0.62500
2313888;0.30500
2316666;-0.03500
2319444;-0.27500
2322222;-0.43000
2324999;-0.47000
2327777;-0.44000
2330555;-0.40000
2333333;-0.37500
2336110;-0.37500
2338888;-0.38500
2341666;-0.39500
2344444;-0.37000
2347222;-0.37000
2349999;-0.36500
2352777;-0.36500
2355555;-0.38000
2358333;-0.39000
2361110;-0.38000
2363888;-0.37000
2366666;-0.35500
2369444;-0.36000
2372222;-0.36500
2374999;-0.37000
2377777;-0.37500
2380555;-0.36500
2383333;-0.36000
2386110;-0.35500
2388888;-0.37500
2391666;-0.38500
2394444;-0.38500
2397222;-0.37500
2399999;-0.37000
2402777;-0.37500
2405555;-0.37500
2408333;-0.38000
2411110;-0.36500
2413888;-0.37000
2416666;-0.37000
2419444;-0.35500
2422222;-0.36500
2424999;-0.38000
2427777;-0.37500
2430555;-0.37000
2433333;-0.37500
2436110;-0.37500
2438888;-0.36000
2441666;-0.38500
2444444;-0.37000
2447222;-0.37000
2449999;-0.36500
2452777;-0.35500
2455555;-0.35000
2458333;-0.36500
2461110;-0.36000
2463888;-0.36000
2466666;-0.35500
2469444;-0.36000
2472222;-0.37500
2474999;-0.38500
2477777;-0.38500
2480555;-0.37000
2483333;-0.37000
2486110;-0.36500
2488888;-0.36500
2491666;-0.37000
2494444;-0.36500
2497222;-0.36000
2499999;-0.36000
2502777;-0.36500
2505555;-0.36500
2508333;-0.38000
2511110;-0.36500
2513888;-0.36500
2516666;-0.36500
2519444;-0.36500
2522222;-0.38500
2524999;-0.37500
2527777;-0.38500
2530555;-0.37500
2533333;-0.35500
2536110;-0.35500
2538888;-0.37500
2541666;-0.38500
2544444;-0.38500
2547222;-0.38000
2549999;-0.39500
2552777;-0.40500
2555555;-0.42000
2558333;-0.43000
2561110;-0.41500
2563888;-0.40500
2566666;-0.40500
2569444;-0.41000
2572222;-0.42500
2574999;-0.41500
2577777;-0.41500
2580555;-0.40500
2583333;-0.40500
2586110;-0.41000
2588888;-0.42500
2591666;-0.43000
2594444;-0.42500
2597221;-0.42000
2599999;-0.40500
2602777;-0.39000
2605555;-0.38000
2608333;-0.37500
2611110;-0.36500
2613888;-0.35000
2616666;-0.33500
2619444;-0.34000
2622221;-0.33000
2624999;-0.33500
2627777;-0.33500
2630555;-0.31000
2633333;-0.29500
2636110;-0.29000
2638888;-0.29500
2641666;-0.29000
2644444;-0.27500
2647221;-0.27000
2649999;-0.26500
2652777;-0.27000
2655555;-0.28000
2658333;-0.29500
2661110;-0.28500
2663888;-0.27000
2666666;-0.26000
2669444;-0.27000
2672221;-0.28500
2674999;-0.29000
2677777;-0.28000
2680555;-0.27000
2683333;-0.26500
2686110;-0.27000
2688888;-0.28000
2691666;-0.29000
2694444;-0.28500
2697221;-0.27500
2699999;-0.26500
2702777;-0.27000
2705555;-0.27000
2708333;-0.28000
2711110;-0.27500
2713888;-0.27500
2716666;-0.27000
2719444;-0.27500
2722221;-0.29000
2724999;-0.30000
2727777;-0.29500
2730555;-0.28500
2733333;-0.26500
2736110;-0.27500
2738888;-0.28500
2741666;-0.29500
2744444;-0.29000
2747221;-0.29500
2749999;-0.29500
2752777;-0.28500
2755555;-0.30000
2758333;-0.30500
2761110;-0.30500
2763888;-0.29500
2766666;-0.28500
2769444;-0.29500
2772221;-0.30000
2774999;-0.31000
2777777;-0.31000
2780555;-0.30000
2783333;-0.29500
2786110;-0.30000
2788888;-0.31500
2791666;-0.33000
2794444;-0.32500
2797221;-0.31500
2799999;-0.30000
2802777;-0.30500
2805555;-0.30000
2808333;-0.32000
2811110;-0.31000
2813888;-0.31000
2816666;-0.29500
2819444;-0.30500
2822221;-0.31500
2824999;-0.32000
2827777;-0.31500
2830555;-0.31500
2833333;-0.30500
2836110;-0.30500
2838888;-0.30500
2841666;-0.32000
2844444;-0.31500
2847221;-0.31500
2849999;-0.31000
2852777;-0.30000
2855555;-0.31500
2858333;-0.31500
2861110;-0.32000
2863888;-0.31000
2866666;-0.31000
2869444;-0.30000
2872221;-0.30500
2874999;-0.31500
2877777;-0.31500
2880555;-0.30000
2883333;-0.29500
2886110;-0.30000
2888888;-0.30500
2891666;-0.31500
2894444;-0.31500
2897221;-0.30000
2899999;-0.31000
2902777;-0.30500
2905555;-0.31000
2908333;-0.32500
2911110;-0.31500
2913888;-0.31500
2916666;-0.30000
2919444;-0.28500
2922221;-0.30000
2924999;-0.29000
2927777;-0.28500
2930555;-0.26000
2933333;-0.24000
2936110;-0.25500
2938888;-0.25000
2941666;-0.26000
2944444;-0.25000
2947221;-0.22500
2949999;-0.22000
2952777;-0.21500
2955555;-0.21000
2958333;-0.21500
2961110;-0.20500
2963888;-0.19000
2966666;-0.17500
2969444;-0.18500
2972221;-0.19500
2974999;-0.20000
2977777;-0.21000
2980555;-0.21000
2983332;-0.20000
2986110;-0.20000
2988888;-0.20500
2991666;-0.22500
2994444;-0.22000
2997221;-0.22000
2999999;-0.19500
3002777;-0.18500
3005555;-0.19500
3008332;-0.21500
3011110;-0.23500
3013888;-0.24500
3016666;-0.24500
3019444;-0.26000
3022221;-0.28500
3024999;-0.30000
3027777;-0.30000
3030555;-0.29500
3033332;-0.29500
3036110;-0.29500
3038888;-0.30500
3041666;-0.31000
3044444;-0.30500
3047221;-0.30500
3049999;-0.30000
3052777;-0.30000
3055555;-0.30500
3058332;-0.32000
3061110;-0.31000
3063888;-0.30500
3066666;-0.29000
3069444;-0.30500
3072221;-0.30000
3074999;-0.32000
3077777;-0.32000
3080555;-0.30500
3083332;-0.31000
3086110;-0.31500
3088888;-0.31500
3091666;-0.32000
3094444;-0.32000
3097221;-0.31500
3099999;-0.31500
3102777;-0.30500
3105555;-0.32000
3108332;-0.35000
3111110;-0.37000
3113888;-0.39000
3116666;-0.41000
3119444;-0.43000
3122221;-0.47500
3124999;-0.50500
3127777;-0.49000
3130555;-0.40500
3133332;-0.28000
3136110;-0.14500
3138888;0.00000
3141666;0.21500
3144444;0.47000
3147221;0.70500
3149999;0.87500
3152777;0.92500
3155555;0.81000
3158332;0.54500
3161110;0.18000
3163888;-0.13500
3166666;-0.33000
3169444;-0.40000
3172221;-0.42500
3174999;-0.39000
3177777;-0.35000
3180555;-0.33000
3183332;-0.32500
3186110;-0.31500
3188888;-0.32500
3191666;-0.33500
3194444;-0.33000
3197221;-0.32000
3199999;-0.32000
3202777;-0.32000
3205555;-0.33000
3208332;-0.34000
3211110;-0.34000
3213888;-0.33000
3216666;-0.32000
3219444;-0.32000
3222221;-0.32500
3224999;-0.34000
3227777;-0.34000
3230555;-0.33000
3233332;-0.33500
3236110;-0.32500
3238888;-0.33000
3241666;-0.34000
3244444;-0.33500
3247221;-0.34000
3249999;-0.31500
3252777;-0.31500
3255555;-0.32500
3258332;-0.33000
3261110;-0.32500
3263888;-0.32000
3266666;-0.31000
3269444;-0.31500
3272221;-0.32000
3274999;-0.33500
3277777;-0.33500
3280555;-0.32500
3283332;-0.32500
3286110;-0.31500
3288888;-0.33000
3291666;-0.33000
3294444;-0.33000
3297221;-0.32000
3299999;-0.31500
3302777;-0.32000
3305555;-0.32000
3308332;-0.32500
3311110;-0.32500
3313888;-0.32000
3316666;-0.30500
3319444;-0.31500
3322221;-0.32000
3324999;-0.32000
3327777;-0.32000
3330555;-0.31500
3333332;-0.30500
3336110;-0.31000
3338888;-0.32500
3341666;-0.33000
3344444;-0.32500
3347221;-0.32000
3349999;-0.31000
3352777;-0.32500
3355555;-0.32000
3358332;-0.33000
3361110;-0.33500
3363888;-0.32000
3366666;-0.32500
3369444;-0.32000
3372221;-0.32500
3374999;-0.33500
3377777;-0.34000
3380555;-0.33000
3383332;-0.32000
3386110;-0.32000
3388888;-0.33500
3391666;-0.35000
3394443;-0.33500
3397221;-0.33500
3399999;-0.33500
3402777;-0.34000
3405555;-0.35000
3408332;-0.35500
3411110;-0.36000
3413888;-0.35500
3416666;-0.34500
3419443;-0.34000
3422221;-0.36000
3424999;-0.37000
3427777;-0.37000
3430555;-0.36000
3433332;-0.36500
3436110;-0.36500
3438888;-0.36500
3441666;-0.37500
3444443;-0.38000
3447221;-0.36500
3449999;-0.36000
3452777;-0.36500
3455555;-0.36500
3458332;-0.35500
3461110;-0.34500
3463888;-0.33000
3466666;-0.32000
3469443;-0.31500
3472221;-0.31000
3474999;-0.30500
3477777;-0.29500
3480555;-0.28000
3483332;-0.26500
3486110;-0.25000
3488888;-0.26000
3491666;-0.25500
3494443;-0.26500
3497221;-0.25000
3499999;-0.23500
3502777;-0.23000
3505555;-0.23000
3508332;-0.24000
3511110;-0.24000
3513888;-0.23000
3516666;-0.22000
3519443;-0.21500
3522221;-0.22500
3524999;-0.23500
3527777;-0.22500
3530555;-0.23500
3533332;-0.21500
3536110;-0.22500
3538888;-0.23500
3541666;-0.24500
3544443;-0.24500
3547221;-0.24000
3549999;-0.22500
3552777;-0.23000
3555555;-0.23500
3558332;-0.25000
3561110;-0.25000
3563888;-0.24500
3566666;-0.23000
3569443;-0.23000
3572221;-0.24500
3574999;-0.25500
3577777;-0.25000
3580555;-0.25000
3583332;-0.23000
3586110;-0.24000
3588888;-0.24000
3591666;-0.24500
3594443;-0.24500
3597221;-0.23500
3599999;-0.24000
3602777;-0.23500
3605555;-0.24500
3608332;-0.25500
3611110;-0.25000
3613888;-0.24500
3616666;-0.24500
3619443;-0.24000
3622221;-0.25500
3624999;-0.27500
3627777;-0.27500
3630555;-0.26000
3633332;-0.27000
3636110;-0.26500
3638888;-0.26500
3641666;-0.27500
3644443;-0.27500
3647221;-0.26500
3649999;-0.26500
3652777;-0.26500
3655555;-0.27500
3658332;-0.28500
3661110;-0.27500
3663888;-0.28500
3666666;-0.26500
3669443;-0.26500
3672221;-0.26500
3674999;-0.27500
3677777;-0.28500
3680555;-0.27000
3683332;-0.27000
3686110;-0.27000
3688888;-0.26500
3691666;-0.28000
3694443;-0.27000
3697221;-0.27000
3699999;-0.27000
3702777;-0.26500
3705555;-0.27500
3708332;-0.28500
3711110;-0.28000
3713888;-0.27500
3716666;-0.27500
3719443;-0.27500
3722221;-0.29000
3724999;-0.29500
3727777;-0.30000
3730555;-0.28500
3733332;-0.27500
3736110;-0.28000
3738888;-0.28000
3741666;-0.29500
3744443;-0.30000
3747221;-0.29000
3749999;-0.28000
3752777;-0.27000
3755555;-0.28500
3758332;-0.30000
3761110;-0.29000
3763888;-0.28000
3766666;-0.27000
3769443;-0.26500
3772221;-0.27500
3774999;-0.28500
3777777;-0.28500
3780554;-0.26500
3783332;-0.26000
3786110;-0.26500
3788888;-0.28500
3791666;-0.28500
3794443;-0.28000
3797221;-0.26000
3799999;-0.24500
3802777;-0.23500
3805554;-0.22500
3808332;-0.22500
3811110;-0.22000
3813888;-0.22000
3816666;-0.20000
3819443;-0.20500
3822221;-0.21000
3824999;-0.21500
3827777;-0.20000
3830554;-0.18000
3833332;-0.18500
3836110;-0.17500
3838888;-0.18000
3841666;-0.18000
3844443;-0.17500
3847221;-0.16000
3849999;-0.15500
3852777;-0.15500
3855554;-0.18500
3858332;-0.19500
3861110;-0.19500
3863888;-0.19500
3866666;-0.18000
3869443;-0.19000
3872221;-0.19500
3874999;-0.21000
3877777;-0.20500
3880554;-0.17000
3883332;-0.15000
3886110;-0.17000
3888888;-0.20000
3891666;-0.24500
3894443;-0.25500
3897221;-0.25500
3899999;-0.25000
3902777;-0.25500
3905554;-0.28000
3908332;-0.30500
3911110;-0.31000
3913888;-0.30000
3916666;-0.29500
3919443;-0.30000
3922221;-0.31000
3924999;-0.31000
3927777;-0.31500
3930554;-0.31000
3933332;-0.31000
3936110;-0.31500
3938888;-0.32000
3941666;-0.32000
3944443;-0.32000
3947221;-0.31000
3949999;-0.30500
3952777;-0.31500
3955554;-0.32000
3958332;-0.32000
3961110;-0.32000
3963888;-0.31000
3966666;-0.31500
3969443;-0.31000
3972221;-0.33000
3974999;-0.37000
3977777;-0.41000
3980554;-0.42000
3983332;-0.42500
3986110;-0.44000
3988888;-0.48500
3991666;-0.53000
3994443;-0.54000
3997221;-0.46000
3999999;-0.34000
4002777;-0.20000
4005554;-0.07500
4008332;0.09000
4011110;0.33500
4013888;0.61000
4016666;0.83500
4019443;0.97000
4022221;1.03500
4024999;0.98000
4027777;0.75500
4030554;0.40000
4033332;0.04000
4036110;-0.26000
4038888;-0.41500
4041666;-0.45000
4044443;-0.41000
4047221;-0.35500
4049999;-0.32000
4052777;-0.33000
4055554;-0.35000
4058332;-0.36000
4061110;-0.35000
4063888;-0.34500
4066666;-0.35000
4069443;-0.34500
4072221;-0.35000
4074999;-0.37500
4077777;-0.36000
4080554;-0.37000
4083332;-0.35500
4086110;-0.35000
4088888;-0.36500
4091666;-0.37000
4094443;-0.37500
4097221;-0.36000
4099999;-0.36000
4102777;-0.35500
4105554;-0.36000
4108332;-0.37000
4111110;-0.36000
4113888;-0.35000
4116666;-0.35500
4119443;-0.35000
4122221;-0.36000
4124999;-0.37500
4127777;-0.37000
4130554;-0.35500
4133332;-0.34500
4136110;-0.35000
4138888;-0.36000
4141666;-0.37000
4144443;-0.37000
4147221;-0.37000
4149999;-0.35500
4152777;-0.35000
4155554;-0.36500
4158332;-0.37500
4161110;-0.36000
4163888;-0.37000
4166666;-0.35500
4169443;-0.34500
4172221;-0.35500
4174999;-0.36000
4177777;-0.37000
4180554;-0.35000
4183332;-0.34500
4186110;-0.34500
4188888;-0.35500
4191665;-0.36500
4194443;-0.36000
4197221;-0.35000
4199999;-0.34500
4202777;-0.35500
4205554;-0.35000
4208332;-0.36500
4211110;-0.37000
4213888;-0.35500
4216665;-0.35500
4219443;-0.36000
4222221;-0.36000
4224999;-0.36500
4227777;-0.35500
4230554;-0.35500
4233332;-0.35000
4236110;-0.35000
4238888;-0.36000
4241665;-0.38000
4244443;-0.37500
4247221;-0.36500
4249999;-0.35000
4252777;-0.35500
4255554;-0.36000
4258332;-0.36000
4261110;-0.37000
4263888;-0.36500
4266665;-0.36000
4269443;-0.35500
4272221;-0.36500
4274999;-0.37500
4277777;-0.39000
4280554;-0.37500
4283332;-0.36500
4286110;-0.37500
4288888;-0.37000
4291665;-0.37500
4294443;-0.38000
4297221;-0.38000
4299999;-0.36500
4302777;-0.36000
4305554;-0.36000
4308332;-0.35000
4311110;-0.35000
4313888;-0.33500
4316665;-0.32000
4319443;-0.32000
4322221;-0.30500
4324999;-0.29500
4327777;-0.30500
4330554;-0.28000
4333332;-0.26000
4336110;-0.26000
4338888;-0.25500
4341665;-0.26000
4344443;-0.27000
4347221;-0.25000
4349999;-0.24500
4352777;-0.25000
4355554;-0.26000
4358332;-0.27000
4361110;-0.26000
4363888;-0.25500
4366665;-0.25000
4369443;-0.26000
4372221;-0.26500
4374999;-0.27000
4377777;-0.27500
4380554;-0.26000
4383332;-0.25000
4386110;-0.25500
4388888;-0.27000
4391665;-0.27000
4394443;-0.27000
4397221;-0.26000
4399999;-0.25500
4402777;-0.25500
4405554;-0.26500
4408332;-0.27000
4411110;-0.27000
4413888;-0.27500
4416665;-0.26500
4419443;-0.26000
4422221;-0.26500
4424999;-0.28000
4427777;-0.28000
4430554;-0.27000
4433332;-0.26500
4436110;-0.27500
4438888;-0.27500
4441665;-0.28500
4444443;-0.28500
4447221;-0.28000
4449999;-0.27500
4452777;-0.28000
4455554;-0.29000
4458332;-0.29500
4461110;-0.29500
4463888;-0.28000
4466665;-0.28000
4469443;-0.29000
4472221;-0.29000
4474999;-0.30000
4477777;-0.29500
4480554;-0.28500
4483332;-0.27500
4486110;-0.28000
4488888;-0.28500
4491665;-0.30500
4494443;-0.29000
4497221;-0.30000
4499999;-0.30000
4502777;-0.29500
4505554;-0.30500
4508332;-0.31000
4511110;-0.31000
4513888;-0.30000
4516665;-0.29500
4519443;-0.29000
4522221;-0.31000
4524999;-0.31000
4527777;-0.32000
4530554;-0.30500
4533332;-0.30000
4536110;-0.29500
4538888;-0.30000
4541665;-0.31000
4544443;-0.30500
4547221;-0.30000
4549999;-0.28500
4552777;-0.29000
4555554;-0.30500
4558332;-0.31000
4561110;-0.31500
4563888;-0.30500
4566665;-0.30000
4569443;-0.29000
4572221;-0.29000
4574999;-0.30000
4577776;-0.30500
4580554;-0.31000
4583332;-0.28500
4586110;-0.28500
4588888;-0.29000
4591665;-0.30500
4594443;-0.30500
4597221;-0.29500
4599999;-0.28500
4602776;-0.28500
4605554;-0.29000
4608332;-0.30500
4611110;-0.30000
4613888;-0.29500
4616665;-0.28000
4619443;-0.28000
4622221;-0.28500
4624999;-0.28000
4627776;-0.27000
4630554;-0.25000
4633332;-0.23000
4636110;-0.22500
4638888;-0.22500
4641665;-0.24000
4644443;-0.23500
4647221;-0.21000
4649999;-0.18500
4652776;-0.18500
4655554;-0.19000
4658332;-0.18500
4661110;-0.19500
4663888;-0.18000
4666665;-0.17500
4669443;-0.18500
4672221;-0.20000
4674999;-0.21500
4677776;-0.21500
4680554;-0.20500
4683332;-0.19500
4686110;-0.20500
4688888;-0.22000
4691665;-0.21500
4694443;-0.20000
4697221;-0.17500
4699999;-0.18000
4702776;-0.20000
4705554;-0.23000
4708332;-0.26500
4711110;-0.26500
4713888;-0.27500
4716665;-0.28000
4719443;-0.29000
4722221;-0.31500
4724999;-0.32000
4727776;-0.32500
4730554;-0.31000
4733332;-0.30500
4736110;-0.31000
4738888;-0.31000
4741665;-0.32500
4744443;-0.32500
4747221;-0.31500
4749999;-0.31000
4752776;-0.31500
4755554;-0.32000
4758332;-0.32000
4761110;-0.33000
4763888;-0.33500
4766665;-0.31500
4769443;-0.32000
4772221;-0.32500
4774999;-0.33000
4777776;-0.33000
4780554;-0.33000
4783332;-0.32000
4786110;-0.33000
4788888;-0.33500
4791665;-0.35000
4794443;-0.37000
4797221;-0.40500
4799999;-0.43500
4802776;-0.44000
4805554;-0.50000
4808332;-0.54000
4811110;-0.54000
4813888;-0.46000
4816665;-0.31500
4819443;-0.16000
4822221;0.00000
4824999;0.24000
4827776;0.52000
4830554;0.75500
4833332;0.87000
4836110;0.82000
4838888;0.58500
4841665;0.20500
4844443;-0.18000
4847221;-0.41500
4849999;-0.45000
4852776;-0.42000
4855554;-0.38500
4858332;-0.37000
4861110;-0.36500
4863888;-0.35500
4866665;-0.33500
4869443;-0.34500
4872221;-0.34000
4874999;-0.36000
4877776;-0.36000
4880554;-0.35000
4883332;-0.35500
4886110;-0.36000
4888888;-0.36500
4891665;-0.37000
4894443;-0.37000
4897221;-0.36500
4899999;-0.35500
4902776;-0.36000
4905554;-0.36500
4908332;-0.37500
4911110;-0.37500
4913888;-0.36500
4916665;-0.34500
4919443;-0.37000
4922221;-0.37500
4924999;-0.37000
4927776;-0.37500
4930554;-0.36500
4933332;-0.35000
4936110;-0.34500
4938888;-0.34500
4941665;-0.35000
4944443;-0.36000
4947221;-0.36000
4949999;-0.35500
4952776;-0.36000
4955554;-0.35500
4958332;-0.36500
4961110;-0.37500
4963887;-0.36000
4966665;-0.35000
4969443;-0.36500
4972221;-0.35000
4974999;-0.36000
4977776;-0.38500
4980554;-0.36500
4983332;-0.35000
4986110;-0.34500
4988887;-0.36000
4991665;-0.38500
4994443;-0.38000
4997221;-0.37000
4999999;-0.36000
5002776;-0.35500
5005554;-0.35000
5008332;-0.36000
5011110;-0.35500
5013887;-0.34000
5016665;-0.33000
5019443;-0.34000
5022221;-0.34500
5024999;-0.35000
5027776;-0.36000
5030554;-0.35500
5033332;-0.35500
5036110;-0.35000
5038887;-0.36500
5041665;-0.37000
5044443;-0.38000
5047221;-0.36000
5049999;-0.35500
5052776;-0.36000
5055554;-0.37500
5058332;-0.37000
5061110;-0.37500
5063887;-0.36500
5066665;-0.37000
5069443;-0.37000
5072221;-0.37500
5074999;-0.39000
5077776;-0.38500
5080554;-0.38000
5083332;-0.36000
5086110;-0.36500
5088887;-0.37000
5091665;-0.37500
5094443;-0.39000
5097221;-0.37000
5099999;-0.35500
5102776;-0.37000
5105554;-0.37500
5108332;-0.37000
5111110;-0.37500
5113887;-0.35500
5116665;-0.34000
5119443;-0.34000
5122221;-0.33500
5124999;-0.33000
5127776;-0.32000
5130554;-0.31000
5133332;-0.30500
5136110;-0.31000
5138887;-0.30500
5141665;-0.31000
5144443;-0.30500
5147221;-0.28000
5149999;-0.27000
5152776;-0.28000
5155554;-0.27000
5158332;-0.27500
5161110;-0.28500
5163887;-0.29000
5166665;-0.28500
5169443;-0.30000
5172221;-0.28500
5174999;-0.29500
5177776;-0.30500
5180554;-0.30000
5183332;-0.30000
5186110;-0.30000
5188887;-0.30500
5191665;-0.32000
5194443;-0.31500
5197221;-0.30000
5199999;-0.27500
5202776;-0.29500
5205554;-0.30500
5208332;-0.31500
5211110;-0.31500
5213887;-0.30500
5216665;-0.30500
5219443;-0.31500
5222221;-0.31500
5224999;-0.32000
5227776;-0.31500
5230554;-0.32500
5233332;-0.31000
5236110;-0.32500
5238887;-0.32500
5241665;-0.32500
5244443;-0.32500
5247221;-0.32500
5249999;-0.31500
5252776;-0.33000
5255554;-0.34500
5258332;-0.35000
5261110;-0.35500
5263887;-0.34500
5266665;-0.32000
5269443;-0.33500
5272221;-0.33500
5274999;-0.33500
5277776;-0.34500
5280554;-0.33500
5283332;-0.33000
5286110;-0.33500
5288887;-0.34000
5291665;-0.35500
5294443;-0.35500
5297221;-0.35500
5299999;-0.33000
5302776;-0.33500
5305554;-0.34500
5308332;-0.35000
5311110;-0.34500
5313887;-0.35000
5316665;-0.34000
5319443;-0.35000
5322221;-0.36000
5324999;-0.36000
5327776;-0.36000
5330554;-0.34500
5333332;-0.34000
5336110;-0.34000
5338887;-0.34000
5341665;-0.34500
5344443;-0.35000
5347221;-0.34500
5349999;-0.33500
5352776;-0.34000
5355554;-0.35500
5358332;-0.36000
5361110;-0.36000
5363887;-0.33500
5366665;-0.34000
5369443;-0.33500
5372221;-0.34000
5374998;-0.35000
5377776;-0.36000
5380554;-0.35000
5383332;-0.34000
5386110;-0.34000
5388887;-0.35000
5391665;-0.33500
5394443;-0.32000
5397221;-0.30500
5399998;-0.29000
5402776;-0.29500
5405554;-0.29500
5408332;-0.29000
5411110;-0.28500
5413887;-0.27000
5416665;-0.26500
5419443;-0.25000
5422221;-0.24500
5424998;-0.25000
5427776;-0.24500
5430554;-0.23500
5433332;-0.22000
5436110;-0.23500
5438887;-0.23500
5441665;-0.24500
5444443;-0.24500
5447221;-0.25500
5449998;-0.24500
5452776;-0.26000
5455554;-0.26500
5458332;-0.27500
5461110;-0.29500
5463887;-0.28500
5466665;-0.25500
5469443;-0.24500
5472221;-0.25000
5474998;-0.27000
5477776;-0.30000
5480554;-0.30500
5483332;-0.31500
5486110;-0.34000
5488887;-0.35000
5491665;-0.36000
5494443;-0.37000
5497221;-0.36000
5499998;-0.35500
5502776;-0.36000
5505554;-0.37000
5508332;-0.38500
5511110;-0.38000
5513887;-0.36500
5516665;-0.36500
5519443;-0.37000
5522221;-0.37500
5524998;-0.38500
5527776;-0.38500
5530554;-0.39000
5533332;-0.39000
5536110;-0.37000
5538887;-0.37000
5541665;-0.39500
5544443;-0.40000
5547221;-0.38000
5549998;-0.38000
5552776;-0.37500
5555554;-0.39000
5558332;-0.40000
5561110;-0.41000
5563887;-0.42000
5566665;-0.44000
5569443;-0.47000
5572221;-0.50000
5574998;-0.53500
5577776;-0.57500
5580554;-0.58000
5583332;-0.50000
5586110;-0.39000
5588887;-0.26000
5591665;-0.10500
5594443;0.11500
5597221;0.40500
5599998;0.66500
5602776;0.83500
5605554;0.85500
5608332;0.67500
5611110;0.29000
5613887;-0.10500
5616665;-0.37500
5619443;-0.48500
5622221;-0.51000
5624998;-0.48000
5627776;-0.45000
5630554;-0.42000
5633332;-0.41500
5636110;-0.41500
5638887;-0.41500
5641665;-0.42000
5644443;-0.43000
5647221;-0.41000
5649998;-0.39000
5652776;-0.40000
5655554;-0.41000
5658332;-0.40500
5661110;-0.41500
5663887;-0.40500
5666665;-0.40500
5669443;-0.40500
5672221;-0.41000
5674998;-0.42000
5677776;-0.42000
5680554;-0.42000
5683332;-0.40000
5686110;-0.40500
5688887;-0.42000
5691665;-0.41500
5694443;-0.41500
5697221;-0.41500
5699998;-0.40000
5702776;-0.41000
5705554;-0.42000
5708332;-0.42500
5711110;-0.43500
5713887;-0.41000
5716665;-0.40000
5719443;-0.39000
5722221;-0.41000
5724998;-0.42000
5727776;-0.42500
5730554;-0.41000
5733332;-0.40000
5736110;-0.40500
5738887;-0.42500
5741665;-0.41500
5744443;-0.42000
5747221;-0.42000
5749998;-0.41500
5752776;-0.40500
5755554;-0.41500
5758332;-0.41000
5761109;-0.41000
5763887;-0.40500
5766665;-0.40500
5769443;-0.41000
5772221;-0.42000
5774998;-0.42500
5777776;-0.41500
5780554;-0.40500
5783332;-0.39500
5786109;-0.39000
5788887;-0.40500
5791665;-0.41500
5794443;-0.41500
5797221;-0.39500
5799998;-0.39000
5802776;-0.38500
5805554;-0.40000
5808332;-0.41500
5811109;-0.42000
5813887;-0.42500
5816665;-0.40500
5819443;-0.41500
5822221;-0.43500
5824998;-0.44000
5827776;-0.43500
5830554;-0.43500
5833332;-0.43000
5836109;-0.43000
5838887;-0.47000
5841665;-0.47000
5844443;-0.47000
5847221;-0.45500
5849998;-0.44500
5852776;-0.46000
5855554;-0.46000
5858332;-0.46500
5861109;-0.48000
5863887;-0.47000
5866665;-0.46000
5869443;-0.45000
5872221;-0.46000
5874998;-0.46500
5877776;-0.44000
5880554;-0.42000
5883332;-0.41000
5886109;-0.39500
5888887;-0.38500
5891665;-0.38000
5894443;-0.37500
5897221;-0.36500
5899998;-0.34000
5902776;-0.35500
5905554;-0.34500
5908332;-0.34500
5911109;-0.33000
5913887;-0.33500
5916665;-0.31500
5919443;-0.31500
5922221;-0.32000
5924998;-0.31500
5927776;-0.32000
5930554;-0.31000
5933332;-0.30500
5936109;-0.31000
5938887;-0.31500
5941665;-0.31000
5944443;-0.32500
5947221;-0.31500
5949998;-0.30000
5952776;-0.30000
5955554;-0.30500
5958332;-0.31000
5961109;-0.29500
5963887;-0.30000
5966665;-0.28000
5969443;-0.29000
5972221;-0.30000
5974998;-0.31500
5977776;-0.31000
5980554;-0.30000
5983332;-0.30000
5986109;-0.30500
5988887;-0.31500
5991665;-0.32500
5994443;-0.33000
5997221;-0.31500
5999998;-0.31500
6002776;-0.30500
6005554;-0.32000
6008332;-0.32500
6011109;-0.33000
6013887;-0.32000
6016665;-0.31000
6019443;-0.31000
6022221;-0.32000
6024998;-0.33000
6027776;-0.32500
6030554;-0.33000
6033332;-0.32000
6036109;-0.31500
6038887;-0.31500
6041665;-0.32000
6044443;-0.32500
6047221;-0.31500
6049998;-0.31000
6052776;-0.32000
6055554;-0.32000
6058332;-0.34000
6061109;-0.35000
6063887;-0.33000
6066665;-0.32000
6069443;-0.32000
6072221;-0.32500
6074998;-0.33500
6077776;-0.34000
6080554;-0.32500
6083332;-0.32500
6086109;-0.32000
6088887;-0.34500
6091665;-0.34000
6094443;-0.34000
6097221;-0.31500
6099998;-0.31500
6102776;-0.31500
6105554;-0.31500
6108332;-0.33000
6111109;-0.31500
6113887;-0.30500
6116665;-0.30000
6119443;-0.30000
6122221;-0.31000
6124998;-0.32000
6127776;-0.31500
6130554;-0.31500
6133332;-0.32000
6136109;-0.32500
6138887;-0.31000
6141665;-0.31500
6144443;-0.31500
6147221;-0.31000
6149998;-0.29500
6152776;-0.30500
6155554;-0.31000
6158332;-0.31500
6161109;-0.31500
6163887;-0.31500
6166665;-0.29500
6169443;-0.30000
6172220;-0.30500
6174998;-0.31000
6177776;-0.31500
6180554;-0.29500
6183332;-0.27500
6186109;-0.26500
6188887;-0.25500
6191665;-0.25500
6194443;-0.25000
6197220;-0.25000
6199998;-0.22500
6202776;-0.23000
6205554;-0.21500
6208332;-0.22000
6211109;-0.22000
6213887;-0.20500
6216665;-0.20000
6219443;-0.21000
6222220;-0.22000
6224998;-0.22500
6227776;-0.23500
6230554;-0.22500
6233332;-0.21500
6236109;-0.21500
6238887;-0.22000
6241665;-0.23000
6244443;-0.23000
6247220;-0.23500
6249998;-0.21000
6252776;-0.19500
6255554;-0.19500
6258332;-0.19500
6261109;-0.21500
6263887;-0.23500
6266665;-0.25000
6269443;-0.25500
6272220;-0.28500
6274998;-0.30000
6277776;-0.30500
6280554;-0.30000
6283332;-0.29000
6286109;-0.30500
6288887;-0.31000
6291665;-0.31500
6294443;-0.33000
6297220;-0.32000
6299998;-0.31000
6302776;-0.32000
6305554;-0.33000
6308332;-0.35000
6311109;-0.34000
6313887;-0.33500
6316665;-0.31500
6319443;-0.31500
6322220;-0.33000
6324998;-0.32500
6327776;-0.35000
6330554;-0.33500
6333332;-0.33000
6336109;-0.33500
6338887;-0.34000
6341665;-0.33000
6344443;-0.34000
6347220;-0.34500
6349998;-0.36500
6352776;-0.39500
6355554;-0.43500
6358332;-0.46500
6361109;-0.49000
6363887;-0.50500
6366665;-0.53000
6369443;-0.52500
6372220;-0.43000
6374998;-0.31500
6377776;-0.14500
6380554;0.05500
6383332;0.32000
6386109;0.60500
6388887;0.83000
6391665;0.92500
6394443;0.86000
6397220;0.59500
6399998;0.17000
6402776;-0.21000
6405554;-0.42500
6408332;-0.47500
6411109;-0.43500
6413887;-0.37000
6416665;-0.33500
6419443;-0.34000
6422220;-0.35000
6424998;-0.36500
6427776;-0.36500
6430554;-0.36000
6433332;-0.34500
6436109;-0.35500
6438887;-0.37000
6441665;-0.37000
6444443;-0.37500
6447220;-0.36500
6449998;-0.35000
6452776;-0.35500
6455554;-0.37000
6458332;-0.36500
6461109;-0.37000
6463887;-0.36500
6466665;-0.35000
6469443;-0.35000
6472220;-0.36000
6474998;-0.36000
6477776;-0.35000
6480554;-0.35000
6483332;-0.35000
6486109;-0.35000
6488887;-0.35500
6491665;-0.36000
6494443;-0.36500
6497220;-0.36000
6499998;-0.36500
6502776;-0.35500
6505554;-0.36000
6508332;-0.37000
6511109;-0.37500
6513887;-0.36000
6516665;-0.35000
6519443;-0.35000
6522220;-0.36500
6524998;-0.35500
6527776;-0.35000
6530554;-0.35500
6533332;-0.34000
6536109;-0.33500
6538887;-0.35000
6541665;-0.35500
6544443;-0.36500
6547220;-0.34500
6549998;-0.35000
6552776;-0.34500
6555554;-0.35500
6558331;-0.36000
6561109;-0.37000
6563887;-0.36000
6566665;-0.34000
6569443;-0.35000
6572220;-0.35500
6574998;-0.36000
6577776;-0.36500
6580554;-0.34000
6583331;-0.35000
6586109;-0.34500
6588887;-0.35000
6591665;-0.36000
6594443;-0.36500
6597220;-0.35500
6599998;-0.34500
6602776;-0.34000
6605554;-0.36000
6608331;-0.36500
6611109;-0.37000
6613887;-0.36500
6616665;-0.36500
6619443;-0.36500
6622220;-0.37500
6624998;-0.39500
6627776;-0.39000
6630554;-0.39000
6633331;-0.37500
6636109;-0.37000
6638887;-0.38500
6641665;-0.39000
6644443;-0.39500
6647220;-0.38500
6649998;-0.36500
6652776;-0.36000
6655554;-0.36000
6658331;-0.36500
6661109;-0.34500
6663887;-0.33500
6666665;-0.32500
6669443;-0.30500
6672220;-0.31000
6674998;-0.30500
6677776;-0.29500
6680554;-0.28000
6683331;-0.26000
6686109;-0.27500
6688887;-0.27000
6691665;-0.26000
6694443;-0.27000
6697220;-0.24500
6699998;-0.24000
6702776;-0.25000
6705554;-0.24500
6708331;-0.26000
6711109;-0.26500
6713887;-0.24000
6716665;-0.23500
6719443;-0.24500
6722220;-0.25500
6724998;-0.26000
6727776;-0.26000
6730554;-0.24500
6733331;-0.23500
6736109;-0.24500
6738887;-0.26500
6741665;-0.26000
6744443;-0.26000
6747220;-0.26000
6749998;-0.24000
6752776;-0.24500
6755554;-0.26000
6758331;-0.25500
6761109;-0.26500
6763887;-0.26000
6766665;-0.24500
6769443;-0.25500
6772220;-0.26000
6774998;-0.26500
6777776;-0.27000
6780554;-0.26500
6783331;-0.24000
6786109;-0.25500
6788887;-0.26500
6791665;-0.27500
6794443;-0.28000
6797220;-0.27000
6799998;-0.26000
6802776;-0.27500
6805554;-0.28500
6808331;-0.29000
6811109;-0.28500
6813887;-0.27500
6816665;-0.27500
6819443;-0.27000
6822220;-0.27500
6824998;-0.29000
6827776;-0.29000
6830554;-0.28500
6833331;-0.27500
6836109;-0.28500
6838887;-0.29000
6841665;-0.30000
6844443;-0.30000
6847220;-0.29000
6849998;-0.28500
6852776;-0.29000
6855554;-0.30000
6858331;-0.30500
6861109;-0.31000
6863887;-0.30000
6866665;-0.29500
6869443;-0.29500
6872220;-0.29500
6874998;-0.30500
6877776;-0.30500
6880554;-0.30500
6883331;-0.28500
6886109;-0.29500
6888887;-0.29000
6891665;-0.29500
6894443;-0.31000
6897220;-0.29500
6899998;-0.29000
6902776;-0.29000
6905554;-0.30000
6908331;-0.31500
6911109;-0.29500
6913887;-0.30000
6916665;-0.28000
6919443;-0.28000
6922220;-0.27500
6924998;-0.29000
6927776;-0.29000
6930554;-0.28500
6933331;-0.28000
6936109;-0.28000
6938887;-0.28500
6941665;-0.28500
6944442;-0.29500
6947220;-0.28500
6949998;-0.27500
6952776;-0.28500
6955554;-0.28000
6958331;-0.29500
6961109;-0.29500
6963887;-0.27500
6966665;-0.26500
6969442;-0.27000
6972220;-0.25000
6974998;-0.24000
6977776;-0.24000
6980554;-0.23000
6983331;-0.20500
6986109;-0.21000
6988887;-0.20000
6991665;-0.20500
6994442;-0.19500
6997220;-0.18500
6999998;-0.16000
7002776;-0.15500
7005554;-0.16000
7008331;-0.17000
7011109;-0.19500
7013887;-0.17500
7016665;-0.17000
7019442;-0.18000
7022220;-0.19500
7024998;-0.19500
7027776;-0.20000
7030554;-0.19500
7033331;-0.20000
7036109;-0.19500
7038887;-0.18500
7041665;-0.18000
7044442;-0.17000
7047220;-0.18000
7049998;-0.19500
7052776;-0.22000
7055554;-0.23500
7058331;-0.25500
7061109;-0.28500
7063887;-0.28500
7066665;-0.27000
7069442;-0.29000
7072220;-0.29500
7074998;-0.31500
7077776;-0.31500
7080554;-0.29500
7083331;-0.29000
7086109;-0.30500
7088887;-0.29500
7091665;-0.30500
7094442;-0.31000
7097220;-0.31000
7099998;-0.31500
7102776;-0.30000
7105554;-0.31000
7108331;-0.32000
7111109;-0.32500
7113887;-0.31500
7116665;-0.31000
7119442;-0.32000
7122220;-0.32000
7124998;-0.32000
7127776;-0.33000
7130554;-0.32500
7133331;-0.31000
7136109;-0.31000
7138887;-0.31500
7141665;-0.33000
7144442;-0.36000
7147220;-0.40500
7149998;-0.41500
7152776;-0.44000
7155554;-0.47000
7158331;-0.52500
7161109;-0.54000
7163887;-0.48000
7166665;-0.36000
7169442;-0.20500
7172220;-0.04000
7174998;0.17500
7177776;0.46500
7180554;0.74000
7183331;0.90500
7186109;0.95000
7188887;0.82000
7191665;0.47500
7194442;0.05500
7197220;-0.29500
7199998;-0.43500
7202776;-0.44000
7205554;-0.40000
7208331;-0.35500
7211109;-0.34500
7213887;-0.34000
7216665;-0.32500
7219442;-0.33000
7222220;-0.32500
7224998;-0.34500
7227776;-0.35500
7230554;-0.34500
7233331;-0.34000
7236109;-0.34500
7238887;-0.36500
7241665;-0.37000
7244442;-0.36000
7247220;-0.35000
7249998;-0.34500
7252776;-0.35500
7255554;-0.36000
7258331;-0.36500
7261109;-0.37000
7263887;-0.34500
7266665;-0.34500
7269442;-0.34500
7272220;-0.35500
7274998;-0.35000
7277776;-0.35500
7280554;-0.35500
7283331;-0.34500
7286109;-0.34000
7288887;-0.34000
7291665;-0.35000
7294442;-0.35000
7297220;-0.34000
7299998;-0.32500
7302776;-0.33000
7305554;-0.35000
7308331;-0.35500
7311109;-0.36000
7313887;-0.34500
7316665;-0.34500
7319442;-0.34500
7322220;-0.34500
7324998;-0.36000
7327776;-0.36500
7330554;-0.35000
7333331;-0.34500
7336109;-0.35000
7338887;-0.34500
7341665;-0.34500
7344442;-0.35500
7347220;-0.34000
7349998;-0.33000
7352776;-0.33500
7355553;-0.34500
7358331;-0.35000
7361109;-0.35500
7363887;-0.34000
7366665;-0.33000
7369442;-0.33000
7372220;-0.33500
7374998;-0.34500
7377776;-0.34500
7380553;-0.33500
7383331;-0.33000
7386109;-0.32500
7388887;-0.33500
7391665;-0.34000
7394442;-0.34500
7397220;-0.34000
7399998;-0.33000
7402776;-0.33000
7405553;-0.34000
7408331;-0.35500
7411109;-0.35500
7413887;-0.34500
7416665;-0.33500
7419442;-0.35000
7422220;-0.33500
7424998;-0.36000
7427776;-0.36000
7430553;-0.34500
7433331;-0.33000
7436109;-0.33500
7438887;-0.34500
7441665;-0.35500
7444442;-0.36000
7447220;-0.34500
7449998;-0.33500
7452776;-0.34500
7455553;-0.35000
7458331;-0.36000
7461109;-0.36500
7463887;-0.35000
7466665;-0.33000
7469442;-0.32000
7472220;-0.33500
7474998;-0.33000
7477776;-0.32500
7480553;-0.30500
7483331;-0.29000
7486109;-0.28500
7488887;-0.28000
7491665;-0.27500
7494442;-0.29000
7497220;-0.27000
7499998;-0.25000
7502776;-0.24500
7505553;-0.24500
7508331;-0.25500
7511109;-0.25500
7513887;-0.24000
7516665;-0.23500
7519442;-0.22500
7522220;-0.22500
7524998;-0.24500
7527776;-0.23500
7530553;-0.23500
7533331;-0.23000
7536109;-0.23000
7538887;-0.23000
7541665;-0.25000
7544442;-0.24500
7547220;-0.24500
7549998;-0.23500
7552776;-0.23000
7555553;-0.24000
7558331;-0.25000
7561109;-0.25000
7563887;-0.25000
7566665;-0.24000
7569442;-0.24500
7572220;-0.25500
7574998;-0.25500
7577776;-0.26000
7580553;-0.24500
7583331;-0.24000
7586109;-0.24000
7588887;-0.24500
7591665;-0.26500
7594442;-0.26500
7597220;-0.25500
7599998;-0.24500
7602776;-0.24000
7605553;-0.25000
7608331;-0.26000
7611109;-0.26000
7613887;-0.25000
7616665;-0.25500
7619442;-0.25000
7622220;-0.26000
7624998;-0.27000
7627776;-0.27500
7630553;-0.27000
7633331;-0.28000
7636109;-0.28000
7638887;-0.28000
7641665;-0.29000
7644442;-0.29500
7647220;-0.28500
7649998;-0.28500
7652776;-0.28500
7655553;-0.28500
7658331;-0.29500
7661109;-0.30500
7663887;-0.29000
7666665;-0.28000
7669442;-0.28500
7672220;-0.28500
7674998;-0.29500
7677776;-0.29500
7680553;-0.29000
7683331;-0.28000
7686109;-0.28000
7688887;-0.28500
7691665;-0.28500
7694442;-0.29000
7697220;-0.28000
7699998;-0.27500
7702776;-0.28000
7705553;-0.28500
7708331;-0.29500
7711109;-0.29500
7713887;-0.30000
7716665;-0.29000
7719442;-0.28000
7722220;-0.28500
7724998;-0.30000
7727776;-0.30500
7730553;-0.29500
7733331;-0.27500
7736109;-0.29000
7738887;-0.29500
7741664;-0.30500
7744442;-0.30500
7747220;-0.30000
7749998;-0.29500
7752776;-0.30000
7755553;-0.29000
7758331;-0.28500
7761109;-0.29500
7763887;-0.28500
7766664;-0.27500
7769442;-0.28000
7772220;-0.28000
7774998;-0.28500
7777776;-0.29000
7780553;-0.28000
7783331;-0.27000
7786109;-0.27000
7788887;-0.27500
7791664;-0.27000
7794442;-0.26000
7797220;-0.24000
7799998;-0.21500
7802776;-0.22500
7805553;-0.23000
7808331;-0.23500
7811109;-0.22000
7813887;-0.21000
7816664;-0.20500
7819442;-0.19000
7822220;-0.20500
7824998;-0.19000
7827776;-0.18000
7830553;-0.18500
7833331;-0.17000
7836109;-0.17500
7838887;-0.18500
7841664;-0.20000
7844442;-0.20500
7847220;-0.19500
7849998;-0.18000
7852776;-0.18500
7855553;-0.19500
7858331;-0.21000
7861109;-0.21000
7863887;-0.18500
7866664;-0.15500
7869442;-0.14500
7872220;-0.16000
7874998;-0.19000
7877776;-0.22000
7880553;-0.23000
7883331;-0.22500
7886109;-0.25000
7888887;-0.27000
7891664;-0.28000
7894442;-0.30000
7897220;-0.29000
7899998;-0.28500
7902776;-0.29000
7905553;-0.30000
7908331;-0.31500
7911109;-0.31000
7913887;-0.30500
7916664;-0.29500
7919442;-0.31500
7922220;-0.33000
7924998;-0.34000
7927776;-0.33500
7930553;-0.32000
7933331;-0.31000
7936109;-0.31500
7938887;-0.31000
7941664;-0.32000
7944442;-0.33000
7947220;-0.31000
7949998;-0.31500
7952776;-0.30500
7955553;-0.31000
7958331;-0.32000
7961109;-0.32000
7963887;-0.31500
7966664;-0.32000
7969442;-0.32000
7972220;-0.36500
7974998;-0.40500
7977776;-0.44000
7980553;-0.44500
7983331;-0.46000
7986109;-0.50500
7988887;-0.55000
7991664;-0.53000
7994442;-0.45500
7997220;-0.32000
7999998;-0.18000
8002776;-0.02000
8005553;0.23000
8008331;0.49000
8011109;0.70500
8013887;0.82500
8016664;0.82000
8019442;0.64000
8022220;0.31000
8024998;-0.05000
8027776;-0.32000
8030553;-0.44500
8033331;-0.45500
8036109;-0.42000
8038887;-0.39500
8041664;-0.37500
8044442;-0.38000
8047220;-0.37500
8049998;-0.36000
8052776;-0.34500
8055553;-0.34500
8058331;-0.37000
8061109;-0.37000
8063887;-0.35500
8066664;-0.35500
8069442;-0.34500
8072220;-0.36000
8074998;-0.37500
8077776;-0.37000
8080553;-0.37000
8083331;-0.37000
8086109;-0.36000
8088887;-0.38000
8091664;-0.38500
8094442;-0.39000
8097220;-0.38500
8099998;-0.36500
8102776;-0.36500
8105553;-0.37500
8108331;-0.38000
8111109;-0.38500
8113887;-0.37500
8116664;-0.36500
8119442;-0.36500
8122220;-0.37000
8124998;-0.38500
8127776;-0.39000
8130553;-0.37000
8133331;-0.37000
8136109;-0.36500
8138887;-0.37500
8141664;-0.39000
8144442;-0.38000
8147220;-0.38000
8149998;-0.37500
8152775;-0.38500
8155553;-0.38500
8158331;-0.39000
8161109;-0.39000
8163887;-0.38500
8166664;-0.37500
8169442;-0.37500
8172220;-0.39000
8174998;-0.39500
8177775;-0.39000
8180553;-0.38500
8183331;-0.37500
8186109;-0.38000
8188887;-0.37500
8191664;-0.39000
8194442;-0.38000
8197220;-0.38500
8199998;-0.37500
8202775;-0.37500
8205553;-0.38000
8208331;-0.40000
8211109;-0.40500
8213887;-0.39500
8216664;-0.38000
8219442;-0.38500
8222220;-0.38000
8224998;-0.39000
8227775;-0.40000
8230553;-0.39500
8233331;-0.39500
8236109;-0.38500
8238887;-0.38500
8241664;-0.39500
8244442;-0.39000
8247220;-0.38000
8249998;-0.38000
8252775;-0.38000
8255553;-0.39000
8258331;-0.40000
8261109;-0.41000
8263887;-0.40500
8266664;-0.39000
8269442;-0.40000
8272220;-0.39500
8274998;-0.40000
8277775;-0.41000
8280553;-0.40500
8283331;-0.40000
8286109;-0.40000
8288887;-0.41000
8291664;-0.41000
8294442;-0.42500
8297220;-0.41500
8299998;-0.40500
8302775;-0.41000
8305553;-0.39500
8308331;-0.41000
8311109;-0.41000
8313887;-0.40500
8316664;-0.39000
8319442;-0.38500
8322220;-0.38000
8324998;-0.38000
8327775;-0.37000
8330553;-0.36500
8333331;-0.35500
8336109;-0.36000
8338887;-0.34500
8341664;-0.35000
8344442;-0.34000
8347220;-0.32500
8349998;-0.32000
8352775;-0.31500
8355553;-0.31500
8358331;-0.32000
8361109;-0.31500
8363887;-0.31500
8366664;-0.30500
8369442;-0.30000
8372220;-0.30500
8374998;-0.31500
8377775;-0.31000
8380553;-0.29500
8383331;-0.28500
8386109;-0.28500
8388887;-0.29000
8391664;-0.30500
8394442;-0.31000
8397220;-0.30000
8399998;-0.29500
8402775;-0.29000
8405553;-0.30500
8408331;-0.31500
8411109;-0.33000
8413887;-0.31500
8416664;-0.31500
8419442;-0.31000
8422220;-0.31000
8424998;-0.32500
8427775;-0.32500
8430553;-0.31500
8433331;-0.30500
8436109;-0.30000
8438887;-0.31000
8441664;-0.32500
8444442;-0.33000
8447220;-0.32000
8449998;-0.32500
8452775;-0.32500
8455553;-0.33500
8458331;-0.34000
8461109;-0.34000
8463887;-0.34000
8466664;-0.33500
8469442;-0.33500
8472220;-0.34500
8474998;-0.34000
8477775;-0.34000
8480553;-0.33500
8483331;-0.33000
8486109;-0.34000
8488887;-0.35500
8491664;-0.35000
8494442;-0.35000
8497220;-0.33500
8499998;-0.34000
8502775;-0.34000
8505553;-0.36000
8508331;-0.36000
8511109;-0.36500
8513887;-0.36000
8516664;-0.34500
8519442;-0.34500
8522220;-0.35000
8524998;-0.36000
8527775;-0.36500
8530553;-0.37000
8533331;-0.35500
8536109;-0.34500
8538886;-0.35500
8541664;-0.35500
8544442;-0.36500
8547220;-0.34500
8549998;-0.33500
8552775;-0.34000
8555553;-0.35000
8558331;-0.36000
8561109;-0.36500
8563886;-0.36000
8566664;-0.33500
8569442;-0.34000
8572220;-0.35500
8574998;-0.37000
8577775;-0.37000
8580553;-0.36500
8583331;-0.35500
8586109;-0.34500
8588886;-0.35000
8591664;-0.35000
8594442;-0.35000
8597220;-0.35000
8599998;-0.35000
8602775;-0.35500
8605553;-0.34000
8608331;-0.34500
8611109;-0.35000
8613886;-0.34000
8616664;-0.32500
8619442;-0.31000
8622220;-0.31000
8624998;-0.29500
8627775;-0.30500
8630553;-0.29500
8633331;-0.28000
8636109;-0.27000
8638886;-0.28000
8641664;-0.27000
8644442;-0.28000
8647220;-0.26000
8649998;-0.25000
8652775;-0.24000
8655553;-0.24000
8658331;-0.25500
8661109;-0.26500
8663886;-0.25500
8666664;-0.25500
8669442;-0.25000
8672220;-0.25500
8674998;-0.27000
8677775;-0.27500
8680553;-0.27000
8683331;-0.26500
8686109;-0.27000
8688886;-0.26500
8691664;-0.27500
8694442;-0.29500
8697220;-0.29000
8699998;-0.28500
8702775;-0.27000
8705553;-0.25000
8708331;-0.26000
8711109;-0.26500
8713886;-0.29500
8716664;-0.30500
8719442;-0.32500
8722220;-0.34500
8724998;-0.36500
8727775;-0.37000
8730553;-0.36500
8733331;-0.36000
8736109;-0.36500
8738886;-0.37500
8741664;-0.39000
8744442;-0.40000
8747220;-0.40000
8749998;-0.38500
8752775;-0.39500
8755553;-0.38500
8758331;-0.38500
8761109;-0.38500
8763886;-0.38500
8766664;-0.39000
8769442;-0.39000
8772220;-0.39000
8774998;-0.40000
8777775;-0.39000
8780553;-0.39500
8783331;-0.38500
8786109;-0.38500
8788886;-0.39500
8791664;-0.40500
8794442;-0.41500
8797220;-0.42000
8799998;-0.44000
8802775;-0.47000
8805553;-0.49000
8808331;-0.51000
8811109;-0.55000
8813886;-0.58500
8816664;-0.60500
8819442;-0.56000
8822220;-0.46000
8824998;-0.37000
8827775;-0.26000
8830553;-0.07500
8833331;0.14000
8836109;0.39500
8838886;0.61500
8841664;0.77500
8844442;0.82000
8847220;0.74000
8849998;0.50000
8852775;0.15500
8855553;-0.16000
8858331;-0.40000
8861109;-0.51500
8863886;-0.54000
8866664;-0.50000
8869442;-0.45500
8872220;-0.44000
8874998;-0.43000
8877775;-0.43500
8880553;-0.43000
8883331;-0.41500
8886109;-0.42000
8888886;-0.42500
8891664;-0.44500
8894442;-0.44500
8897220;-0.44000
8899998;-0.42500
8902775;-0.42000
8905553;-0.42500
8908331;-0.43000
8911109;-0.43000
8913886;-0.43000
8916664;-0.42000
8919442;-0.42000
8922220;-0.41500
8924998;-0.42000
8927775;-0.43500
8930553;-0.44000
8933331;-0.42500
8936109;-0.43000
8938886;-0.41500
8941664;-0.42000
8944442;-0.44000
8947220;-0.43000
8949997;-0.41500
8952775;-0.41000
8955553;-0.41500
8958331;-0.41500
8961109;-0.43000
8963886;-0.41500
8966664;-0.41500
8969442;-0.40500
8972220;-0.41000
8974997;-0.44000
8977775;-0.44000
8980553;-0.43000
8983331;-0.42000
8986109;-0.42500
8988886;-0.42500
8991664;-0.44000
8994442;-0.44000
8997220;-0.43000
8999997;-0.43500
9002775;-0.41500
9005553;-0.41500
9008331;-0.43500
9011109;-0.43500
9013886;-0.43000
9016664;-0.42000
9019442;-0.43000
9022220;-0.43000
9024997;-0.44000
9027775;-0.44000
9030553;-0.43000
9033331;-0.41000
9036109;-0.41000
9038886;-0.42000
9041664;-0.42500
9044442;-0.43000
9047220;-0.41500
9049997;-0.41000
9052775;-0.42000
9055553;-0.43500
9058331;-0.45000
9061109;-0.44000
9063886;-0.44000
9066664;-0.43500
9069442;-0.43000
9072220;-0.44500
9074997;-0.44000
9077775;-0.46000
9080553;-0.44000
9083331;-0.43500
9086109;-0.44500
9088886;-0.44500
9091664;-0.47500
9094442;-0.48500
9097220;-0.46500
9099997;-0.47000
9102775;-0.46000
9105553;-0.46500
9108331;-0.48500
9111109;-0.49000
9113886;-0.48500
9116664;-0.47000
9119442;-0.48000
9122220;-0.47500
9124997;-0.48500
9127775;-0.49500
9130553;-0.49500
9133331;-0.48500
9136109;-0.47500
9138886;-0.47500
9141664;-0.46500
9144442;-0.46500
9147220;-0.45500
9149997;-0.44000
9152775;-0.41000
9155553;-0.42000
9158331;-0.42500
9161109;-0.42000
9163886;-0.40000
9166664;-0.38500
9169442;-0.37500
9172220;-0.37500
9174997;-0.39000
9177775;-0.39000
9180553;-0.35500
9183331;-0.33500
9186109;-0.33500
9188886;-0.32500
9191664;-0.33000
9194442;-0.32500
9197220;-0.32000
9199997;-0.31000
9202775;-0.30000
9205553;-0.31000
9208331;-0.31000
9211109;-0.32000
9213886;-0.31500
9216664;-0.30500
9219442;-0.31000
9222220;-0.31500
9224997;-0.32000
9227775;-0.32500
9230553;-0.31500
9233331;-0.31500
9236109;-0.31500
9238886;-0.31500
9241664;-0.32000
9244442;-0.33500
9247220;-0.32500
9249997;-0.31000
9252775;-0.31000
9255553;-0.32000
9258331;-0.31500
9261109;-0.32500
9263886;-0.32500
9266664;-0.31000
9269442;-0.31000
9272220;-0.32000
9274997;-0.33500
9277775;-0.33500
9280553;-0.32500
9283331;-0.32500
9286109;-0.32500
9288886;-0.33000
9291664;-0.34000
9294442;-0.34000
9297220;-0.34500
9299997;-0.34000
9302775;-0.32500
9305553;-0.33000
9308331;-0.34500
9311109;-0.34500
9313886;-0.34500
9316664;-0.33500
9319442;-0.33000
9322220;-0.33000
9324997;-0.33000
9327775;-0.33500
9330553;-0.32500
9333331;-0.32500
9336108;-0.33000
9338886;-0.33000
9341664;-0.33500
9344442;-0.33500
9347220;-0.33000
9349997;-0.33000
9352775;-0.32500
9355553;-0.32000
9358331;-0.34000
9361108;-0.34500
9363886;-0.35000
9366664;-0.33000
9369442;-0.34000
9372220;-0.33500
9374997;-0.35000
9377775;-0.35000
9380553;-0.33000
9383331;-0.33000
9386108;-0.32500
9388886;-0.32500
9391664;-0.34000
9394442;-0.34500
9397220;-0.33000
9399997;-0.34000
9402775;-0.33000
9405553;-0.33000
9408331;-0.34000
9411108;-0.34000
9413886;-0.32500
9416664;-0.32000
9419442;-0.32500
9422220;-0.31000
9424997;-0.32500
9427775;-0.33500
9430553;-0.32000
9433331;-0.31500
9436108;-0.31000
9438886;-0.33000
9441664;-0.33500
9444442;-0.33500
9447220;-0.32500
9449997;-0.31500
9452775;-0.32000
9455553;-0.32500
9458331;-0.33000
9461108;-0.30500
9463886;-0.28500
9466664;-0.27000
9469442;-0.26000
9472220;-0.26000
9474997;-0.26500
9477775;-0.26500
9480553;-0.25500
9483331;-0.23000
9486108;-0.23000
9488886;-0.22000
9491664;-0.23000
9494442;-0.22000
9497220;-0.20500
9499997;-0.20000
9502775;-0.20000
9505553;-0.21000
9508331;-0.23000
9511108;-0.25000
9513886;-0.25000
9516664;-0.23500
9519442;-0.23000
9522220;-0.24500
9524997;-0.25500
9527775;-0.26500
9530553;-0.23500
9533331;-0.20500
9536108;-0.20000
9538886;-0.21000
9541664;-0.24500
9544442;-0.27500
9547220;-0.28000
9549997;-0.28000
9552775;-0.30000
9555553;-0.31000
9558331;-0.33000
9561108;-0.34000
9563886;-0.33000
9566664;-0.32500
9569442;-0.32000
9572220;-0.33500
9574997;-0.34500
9577775;-0.35000
9580553;-0.34500
9583331;-0.33500
9586108;-0.33500
9588886;-0.34000
9591664;-0.35000
9594442;-0.36500
9597220;-0.36500
9599997;-0.35000
9602775;-0.36000
9605553;-0.36500
9608331;-0.36000
9611108;-0.36500
9613886;-0.35500
9616664;-0.34500
9619442;-0.34000
9622220;-0.35000
9624997;-0.35500
9627775;-0.36000
9630553;-0.35000
9633331;-0.35500
9636108;-0.38500
9638886;-0.43000
9641664;-0.47000
9644442;-0.49000
9647220;-0.51000
9649997;-0.55000
9652775;-0.55500
9655553;-0.48500
9658331;-0.38000
9661108;-0.23500
9663886;-0.06000
9666664;0.16000
9669442;0.43000
9672220;0.70000
9674997;0.87500
9677775;0.93500
9680553;0.84000
9683331;0.54000
9686108;0.12000
9688886;-0.27000
9691664;-0.46000
9694442;-0.50500
9697220;-0.46000
9699997;-0.41000
9702775;-0.38000
9705553;-0.37500
9708331;-0.37500
9711108;-0.38500
9713886;-0.38000
9716664;-0.37000
9719442;-0.37500
9722220;-0.39000
9724997;-0.39000
9727775;-0.40000
9730553;-0.39500
9733331;-0.39000
9736108;-0.38500
9738886;-0.38000
9741664;-0.40000
9744442;-0.40500
9747219;-0.39000
9749997;-0.37500
9752775;-0.38500
9755553;-0.38500
9758331;-0.39500
9761108;-0.39500
9763886;-0.38000
9766664;-0.38500
9769442;-0.37500
9772219;-0.37500
9774997;-0.39500
9777775;-0.38000
9780553;-0.39500
9783331;-0.37500
9786108;-0.37500
9788886;-0.38000
9791664;-0.38000
9794442;-0.40000
9797219;-0.38500
9799997;-0.37500
9802775;-0.37500
9805553;-0.38500
9808331;-0.39000
9811108;-0.38500
9813886;-0.38500
9816664;-0.38000
9819442;-0.38000
9822219;-0.38000
9824997;-0.38000
9827775;-0.40000
9830553;-0.37500
9833331;-0.36500
9836108;-0.38000
9838886;-0.39000
9841664;-0.38500
9844442;-0.39000
9847219;-0.37500
9849997;-0.37000
9852775;-0.37000
9855553;-0.37000
9858331;-0.37000
9861108;-0.37500
9863886;-0.38000
9866664;-0.37000
9869442;-0.36500
9872219;-0.37000
9874997;-0.36500
9877775;-0.38500
9880553;-0.38000
9883331;-0.36500
9886108;-0.37000
9888886;-0.36500
9891664;-0.37500
9894442;-0.39500
9897219;-0.38500
9899997;-0.37500
9902775;-0.37000
9905553;-0.37500
9908331;-0.38000
9911108;-0.39000
9913886;-0.38000
9916664;-0.38000
9919442;-0.37500
9922219;-0.38500
9924997;-0.40000
9927775;-0.39000
9930553;-0.38500
9933331;-0.38000
9936108;-0.38000
9938886;-0.38500
9941664;-0.38500
9944442;-0.39000
9947219;-0.39000
9949997;-0.39000
9952775;-0.39000
9955553;-0.39000
9958331;-0.40000
9961108;-0.41000
9963886;-0.39500
9966664;-0.38000
9969442;-0.38000
9972219;-0.37500
9974997;-0.36500
9977775;-0.37500
9980553;-0.36500
9983331;-0.34500
9986108;-0.33000
9988886;-0.33500
9991664;-0.33500
9994442;-0.33000
9997219;-0.32500
9999997;-0.30500
10002775;-0.29500
10005553;-0.29000
10008331;-0.29000
10011108;-0.29000
10013886;-0.27500
10016664;-0.26000
10019442;-0.26000
10022219;-0.26500
10024997;-0.27500
10027775;-0.28500
10030553;-0.27500
10033331;-0.26000
10036108;-0.25500
10038886;-0.25500
10041664;-0.27000
10044442;-0.28500
10047219;-0.28000
10049997;-0.26000
10052775;-0.27000
10055553;-0.27000
10058331;-0.28500
10061108;-0.28500
10063886;-0.27500
10066664;-0.27000
10069442;-0.27500
10072219;-0.28500
10074997;-0.28500
10077775;-0.29000
10080553;-0.29500
10083331;-0.28500
10086108;-0.28000
10088886;-0.28000
10091664;-0.29500
10094442;-0.29500
10097219;-0.29500
10099997;-0.27500
10102775;-0.29000
10105553;-0.29000
10108331;-0.29000
10111108;-0.31000
10113886;-0.29500
10116664;-0.29000
10119442;-0.30000
10122219;-0.29500
10124997;-0.31000
10127775;-0.32000
10130553;-0.31500
10133330;-0.30500
10136108;-0.29500
10138886;-0.30500
10141664;-0.31500
10144442;-0.31500
10147219;-0.31000
10149997;-0.31000
10152775;-0.31500
10155553;-0.31500
10158330;-0.33000
10161108;-0.32500
10163886;-0.31500
10166664;-0.31000
10169442;-0.29500
10172219;-0.31000
10174997;-0.32000
10177775;-0.32000
10180553;-0.33500
10183330;-0.31000
10186108;-0.29500
10188886;-0.31000
10191664;-0.32000
10194442;-0.32000
10197219;-0.33000
10199997;-0.33000
10202775;-0.32000
10205553;-0.32500
10208330;-0.33000
10211108;-0.32500
10213886;-0.32000
10216664;-0.32000
10219442;-0.33000
10222219;-0.32000
10224997;-0.33500
10227775;-0.33500
10230553;-0.32000
10233330;-0.32500
10236108;-0.31500
10238886;-0.33000
10241664;-0.32500
10244442;-0.33500
10247219;-0.32000
10249997;-0.31000
10252775;-0.31000
10255553;-0.30500
10258330;-0.32000
10261108;-0.32500
10263886;-0.31500
10266664;-0.30500
10269442;-0.30000
10272219;-0.31000
10274997;-0.31500
10277775;-0.32000
10280553;-0.31000
10283330;-0.31500
10286108;-0.31500
10288886;-0.32000
10291664;-0.32500
10294442;-0.32000
10297219;-0.31500
10299997;-0.31000
10302775;-0.30500
10305553;-0.28500
10308330;-0.27500
10311108;-0.26500
10313886;-0.25500
10316664;-0.25000
10319442;-0.25000
10322219;-0.25500
10324997;-0.25500
10327775;-0.24500
10330553;-0.23000
10333330;-0.22000
10336108;-0.20000
10338886;-0.19000
10341664;-0.19500
10344442;-0.21000
10347219;-0.22000
10349997;-0.20500
10352775;-0.21500
10355553;-0.22000
10358330;-0.23000
10361108;-0.23000
10363886;-0.23500
10366664;-0.23500
10369442;-0.23500
10372219;-0.24000
10374997;-0.23500
10377775;-0.22000
10380553;-0.19500
10383330;-0.19500
10386108;-0.22500
10388886;-0.25000
10391664;-0.28000
10394442;-0.28500
10397219;-0.29500
10399997;-0.30000
10402775;-0.30500
10405553;-0.32500
10408330;-0.34000
10411108;-0.33500
10413886;-0.33500
10416664;-0.32000
10419442;-0.32500
10422219;-0.33500
10424997;-0.32500
10427775;-0.33500
10430553;-0.33500
10433330;-0.33500
10436108;-0.33000
10438886;-0.33000
10441664;-0.33500
10444442;-0.34000
10447219;-0.33500
10449997;-0.33000
10452775;-0.33500
10455553;-0.34500
10458330;-0.34500
10461108;-0.35500
10463886;-0.34000
10466664;-0.34000
10469442;-0.33000
10472219;-0.34500
10474997;-0.35000
10477775;-0.36500
10480553;-0.35500
10483330;-0.36000
10486108;-0.39500
10488886;-0.44000
10491664;-0.48500
10494442;-0.50500
10497219;-0.52000
10499997;-0.55500
10502775;-0.54000
10505553;-0.45500
10508330;-0.33500
10511108;-0.19000
10513886;-0.01500
10516664;0.20500
10519441;0.48500
10522219;0.71500
10524997;0.88500
10527775;0.94000
10530553;0.84500
10533330;0.60000
10536108;0.20000
10538886;-0.19500
10541664;-0.43500
10544441;-0.49500
10547219;-0.45000
10549997;-0.40000
10552775;-0.38000
10555553;-0.38500
10558330;-0.40000
10561108;-0.39000
10563886;-0.37500
10566664;-0.37500
10569441;-0.36500
10572219;-0.37500
10574997;-0.38000
10577775;-0.39000
10580553;-0.39500
10583330;-0.38000
10586108;-0.37500
10588886;-0.36500
10591664;-0.37500
10594441;-0.38000
10597219;-0.39000
10599997;-0.37500
10602775;-0.36500
10605553;-0.38000
10608330;-0.38500
10611108;-0.38000
10613886;-0.38000
10616664;-0.36500
10619441;-0.36000
10622219;-0.37500
10624997;-0.37500
10627775;-0.38500
10630553;-0.38000
10633330;-0.37500
10636108;-0.37500
10638886;-0.37500
10641664;-0.37000
10644441;-0.38000
10647219;-0.37500
10649997;-0.37000
10652775;-0.36500
10655553;-0.37000
10658330;-0.38500
10661108;-0.38500
10663886;-0.38500
10666664;-0.37000
10669441;-0.37000
10672219;-0.36500
10674997;-0.37000
10677775;-0.38500
10680553;-0.37000
10683330;-0.36000
10686108;-0.35500
10688886;-0.36500
10691664;-0.37000
10694441;-0.38500
10697219;-0.38000
10699997;-0.37000
10702775;-0.37000
10705553;-0.37500
10708330;-0.38500
10711108;-0.39000
10713886;-0.38000
10716664;-0.37500
10719441;-0.36500
10722219;-0.37500
10724997;-0.37500
10727775;-0.38000
10730553;-0.38000
10733330;-0.36500
10736108;-0.36000
10738886;-0.37500
10741664;-0.36500
10744441;-0.38500
10747219;-0.36500
10749997;-0.35500
10752775;-0.36000
10755553;-0.36500
10758330;-0.37500
10761108;-0.38000
10763886;-0.37000
10766664;-0.36500
10769441;-0.37500
10772219;-0.38500
10774997;-0.38000
10777775;-0.39000
10780553;-0.39500
10783330;-0.38500
10786108;-0.38000
10788886;-0.39000
10791664;-0.39000
10794441;-0.39000
10797219;-0.38500
10799997;-0.38000
10802775;-0.38500
10805553;-0.39000
10808330;-0.38500
10811108;-0.39000
10813886;-0.38500
10816664;-0.36500
10819441;-0.35500
10822219;-0.34000
10824997;-0.34000
10827775;-0.34000
10830553;-0.33000
10833330;-0.30500
10836108;-0.30500
10838886;-0.30000
10841664;-0.31000
10844441;-0.31000
10847219;-0.30000
10849997;-0.29000
10852775;-0.28500
10855553;-0.28500
10858330;-0.29000
10861108;-0.30000
10863886;-0.29000
10866664;-0.28000
10869441;-0.27500
10872219;-0.27500
10874997;-0.29500
10877775;-0.28500
10880553;-0.28000
10883330;-0.27000
10886108;-0.27500
10888886;-0.28000
10891664;-0.28500
10894441;-0.28000
10897219;-0.28500
10899997;-0.27500
10902775;-0.26000
10905553;-0.28000
10908330;-0.28000
10911108;-0.29000
10913886;-0.28500
10916664;-0.28000
10919441;-0.28500
10922219;-0.29500
10924997;-0.30000
10927775;-0.29500
10930552;-0.29500
10933330;-0.29500
10936108;-0.28000
10938886;-0.28500
10941664;-0.29500
10944441;-0.31500
10947219;-0.31000
10949997;-0.30500
10952775;-0.29000
10955552;-0.30500
10958330;-0.30500
10961108;-0.31000
10963886;-0.31500
10966664;-0.30000
10969441;-0.30500
10972219;-0.30000
10974997;-0.31500
10977775;-0.32000
10980552;-0.31000
10983330;-0.31000
10986108;-0.31000
10988886;-0.33000
10991664;-0.32000
10994441;-0.33000
10997219;-0.33000
10999997;-0.32500
11002775;-0.33500
11005552;-0.33500
11008330;-0.34500
11011108;-0.33500
11013886;-0.32500
11016664;-0.32000
11019441;-0.32000
11022219;-0.33000
11024997;-0.32500
11027775;-0.32500
11030552;-0.32000
11033330;-0.32500
11036108;-0.32500
11038886;-0.31500
11041664;-0.32000
11044441;-0.32000
11047219;-0.33000
11049997;-0.32000
11052775;-0.30000
11055552;-0.31500
11058330;-0.32000
11061108;-0.32500
11063886;-0.33500
11066664;-0.32000
11069441;-0.31000
11072219;-0.31500
11074997;-0.32000
11077775;-0.33000
11080552;-0.33500
11083330;-0.32000
11086108;-0.30500
11088886;-0.31000
11091664;-0.31500
11094441;-0.32500
11097219;-0.32000
11099997;-0.31500
11102775;-0.30500
11105552;-0.31000
11108330;-0.31000
11111108;-0.31500
11113886;-0.31000
11116664;-0.31500
11119441;-0.31000
11122219;-0.31000
11124997;-0.31000
11127775;-0.32500
11130552;-0.31000
11133330;-0.30500
11136108;-0.29500
11138886;-0.29500
11141664;-0.29000
11144441;-0.27500
11147219;-0.27500
11149997;-0.25500
11152775;-0.24000
11155552;-0.25500
11158330;-0.25500
11161108;-0.25500
11163886;-0.24500
11166664;-0.22000
11169441;-0.20000
11172219;-0.19500
11174997;-0.20500
11177775;-0.22500
11180552;-0.22500
11183330;-0.21000
11186108;-0.21500
11188886;-0.22000
11191664;-0.22500
11194441;-0.24000
11197219;-0.22500
11199997;-0.23500
11202775;-0.22500
11205552;-0.20500
11208330;-0.19000
11211108;-0.20500
11213886;-0.23500
11216664;-0.25000
11219441;-0.27000
11222219;-0.29000
11224997;-0.32000
11227775;-0.33500
11230552;-0.32500
11233330;-0.34000
11236108;-0.33500
11238886;-0.32500
11241664;-0.33000
11244441;-0.35000
11247219;-0.34500
11249997;-0.33500
11252775;-0.35500
11255552;-0.36500
11258330;-0.35500
11261108;-0.35500
11263886;-0.35500
11266664;-0.35000
11269441;-0.34000
11272219;-0.35000
11274997;-0.36500
11277775;-0.37500
11280552;-0.36000
11283330;-0.35500
11286108;-0.35500
11288886;-0.36500
11291664;-0.36500
11294441;-0.39000
11297219;-0.39000
11299997;-0.41500
11302775;-0.45000
11305552;-0.49000
11308330;-0.50000
11311108;-0.54500
11313886;-0.58000
11316663;-0.57000
11319441;-0.47500
11322219;-0.35000
11324997;-0.21000
11327775;-0.01000
11330552;0.28000
11333330;0.56500
11336108;0.76500
11338886;0.82500
11341663;0.71500
11344441;0.41000
11347219;0.01000
11349997;-0.30000
11352775;-0.47000
11355552;-0.50500
11358330;-0.46500
11361108;-0.42500
11363886;-0.40000
11366663;-0.39000
11369441;-0.39000
11372219;-0.39500
11374997;-0.40000
11377775;-0.41500
11380552;-0.40500
11383330;-0.40500
11386108;-0.40000
11388886;-0.39500
11391663;-0.40000
11394441;-0.40000
11397219;-0.39500
11399997;-0.39000
11402775;-0.40000
11405552;-0.38500
11408330;-0.40000
11411108;-0.41500
11413886;-0.39000
11416663;-0.39500
11419441;-0.39000
11422219;-0.40500
11424997;-0.41500
11427775;-0.42000
11430552;-0.40500
11433330;-0.38500
11436108;-0.38500
11438886;-0.39500
11441663;-0.40000
11444441;-0.41000
11447219;-0.40500
11449997;-0.39500
11452775;-0.41000
11455552;-0.40000
11458330;-0.41500
11461108;-0.41500
11463886;-0.41500
11466663;-0.40000
11469441;-0.40000
11472219;-0.39500
11474997;-0.40500
11477775;-0.40000
11480552;-0.39000
11483330;-0.40000
11486108;-0.40000
11488886;-0.40000
11491663;-0.40000
11494441;-0.40500
11497219;-0.41000
11499997;-0.40000
11502775;-0.39500
11505552;-0.39000
11508330;-0.40500
11511108;-0.41000
11513886;-0.40000
11516663;-0.40000
11519441;-0.39500
11522219;-0.39000
11524997;-0.40500
11527775;-0.40000
11530552;-0.40000
11533330;-0.38500
11536108;-0.38000
11538886;-0.38500
11541663;-0.39000
11544441;-0.40500
11547219;-0.39000
11549997;-0.38500
11552775;-0.38500
11555552;-0.37500
11558330;-0.39000
11561108;-0.39000
11563886;-0.40000
11566663;-0.39000
11569441;-0.38500
11572219;-0.39500
11574997;-0.39500
11577775;-0.42000
11580552;-0.42000
11583330;-0.41500
11586108;-0.41500
11588886;-0.41000
11591663;-0.41500
11594441;-0.43000
11597219;-0.44000
11599997;-0.42000
11602775;-0.41500
11605552;-0.41500
11608330;-0.41000
11611108;-0.42000
11613886;-0.41500
11616663;-0.41000
11619441;-0.39500
11622219;-0.39000
11624997;-0.39500
11627775;-0.40500
11630552;-0.39000
11633330;-0.38000
11636108;-0.34500
11638886;-0.34000
11641663;-0.34500
11644441;-0.35000
11647219;-0.33500
11649997;-0.32000
11652775;-0.32000
11655552;-0.30000
11658330;-0.31000
11661108;-0.32000
11663886;-0.30500
11666663;-0.29500
11669441;-0.29000
11672219;-0.29000
11674997;-0.30000
11677775;-0.31000
11680552;-0.31500
11683330;-0.30500
11686108;-0.29500
11688886;-0.29500
11691663;-0.30500
11694441;-0.31500
11697219;-0.31000
11699997;-0.31000
11702775;-0.31000
11705552;-0.31500
11708330;-0.32500
11711108;-0.33500
11713886;-0.33000
11716663;-0.32000
11719441;-0.32500
11722219;-0.31000
11724997;-0.31500
11727774;-0.33500
11730552;-0.32000
11733330;-0.31500
11736108;-0.30500
11738886;-0.30500
11741663;-0.31000
11744441;-0.32500
11747219;-0.32500
11749997;-0.32500
11752774;-0.32000
11755552;-0.32000
11758330;-0.31500
11761108;-0.33500
11763886;-0.32500
11766663;-0.32000
11769441;-0.32000
11772219;-0.32000
11774997;-0.32500
11777774;-0.34000
11780552;-0.35000
11783330;-0.35000
11786108;-0.33500
11788886;-0.34000
11791663;-0.34500
11794441;-0.35000
11797219;-0.35000
11799997;-0.34500
11802774;-0.33500
11805552;-0.33500
11808330;-0.35000
11811108;-0.35500
11813886;-0.35500
11816663;-0.34500
11819441;-0.34500
11822219;-0.33000
11824997;-0.35500
11827774;-0.36000
11830552;-0.36000
11833330;-0.35000
11836108;-0.34500
11838886;-0.33000
11841663;-0.34000
11844441;-0.33500
11847219;-0.34000
11849997;-0.32500
11852774;-0.34000
11855552;-0.34000
11858330;-0.35500
11861108;-0.36500
11863886;-0.35000
11866663;-0.34000
11869441;-0.34000
11872219;-0.33500
11874997;-0.35000
11877774;-0.36000
11880552;-0.35500
11883330;-0.35500
11886108;-0.34500
11888886;-0.34000
11891663;-0.35000
11894441;-0.37000
11897219;-0.35000
11899997;-0.36500
11902774;-0.34500
11905552;-0.34000
11908330;-0.33000
11911108;-0.32000
11913886;-0.30000
11916663;-0.27500
11919441;-0.27000
11922219;-0.27500
11924997;-0.27500
11927774;-0.28500
11930552;-0.27500
11933330;-0.26000
11936108;-0.25000
11938886;-0.24000
11941663;-0.24500
11944441;-0.26000
11947219;-0.25000
11949997;-0.23500
11952774;-0.22000
11955552;-0.23000
11958330;-0.24500
11961108;-0.26500
11963886;-0.25500
11966663;-0.24000
11969441;-0.23000
11972219;-0.25500
11974997;-0.27000
11977774;-0.26500
11980552;-0.24000
11983330;-0.23000
11986108;-0.23000
11988886;-0.24500
11991663;-0.28000
11994441;-0.29500
11997219;-0.30000
11999997;-0.32000
12002774;-0.33000
12005552;-0.34000
12008330;-0.35000
12011108;-0.36000
12013886;-0.36500
12016663;-0.36000
12019441;-0.35500
12022219;-0.35000
12024997;-0.36000
12027774;-0.37000
12030552;-0.36500
12033330;-0.37500
12036108;-0.37500
12038886;-0.37500
12041663;-0.37000
12044441;-0.39000
12047219;-0.38000
12049997;-0.38000
12052774;-0.37500
12055552;-0.37000
12058330;-0.38500
12061108;-0.38000
12063886;-0.37500
12066663;-0.34500
12069441;-0.35500
12072219;-0.37500
12074997;-0.42000
12077774;-0.45000
12080552;-0.48000
12083330;-0.50000
12086108;-0.53000
12088886;-0.57000
12091663;-0.56500
12094441;-0.48500
12097219;-0.34000
12099997;-0.18000
12102774;0.02500
12105552;0.28500
12108330;0.54500
12111108;0.76500
12113885;0.87500
12116663;0.80000
12119441;0.50500
12122219;0.08500
12124997;-0.27000
12127774;-0.45500
12130552;-0.50500
12133330;-0.48500
12136108;-0.42500
12138885;-0.40000
12141663;-0.40000
12144441;-0.42500
12147219;-0.41500
12149997;-0.40500
12152774;-0.39000
12155552;-0.39000
12158330;-0.40500
12161108;-0.41000
12163885;-0.40500
12166663;-0.40000
12169441;-0.39000
12172219;-0.39500
12174997;-0.40000
12177774;-0.42500
12180552;-0.41000
12183330;-0.40000
12186108;-0.39500
12188885;-0.39500
12191663;-0.41000
12194441;-0.41500
12197219;-0.40500
12199997;-0.40500
12202774;-0.40000
12205552;-0.39500
12208330;-0.39500
12211108;-0.41000
12213885;-0.40500
12216663;-0.39500
12219441;-0.39000
12222219;-0.39500
12224997;-0.41000
12227774;-0.42500
12230552;-0.41500
12233330;-0.40500
12236108;-0.40500
12238885;-0.39500
12241663;-0.41000
12244441;-0.43000
12247219;-0.40500
12249997;-0.40000
12252774;-0.39000
12255552;-0.40500
12258330;-0.41500
12261108;-0.40500
12263885;-0.40000
12266663;-0.39500
12269441;-0.38000
12272219;-0.38000
12274997;-0.39500
12277774;-0.40500
12280552;-0.40000
12283330;-0.40000
12286108;-0.39000
12288885;-0.40500
12291663;-0.41000
12294441;-0.41000
12297219;-0.40000
12299997;-0.39000
12302774;-0.38500
12305552;-0.38000
12308330;-0.38500
12311108;-0.39000
12313885;-0.39500
12316663;-0.39000
12319441;-0.38500
12322219;-0.39000
12324997;-0.40000
12327774;-0.42500
12330552;-0.41500
12333330;-0.42000
12336108;-0.41500
12338885;-0.41500
12341663;-0.42500
12344441;-0.43500
12347219;-0.43500
12349997;-0.43000
12352774;-0.43000
12355552;-0.43000
12358330;-0.43000
12361108;-0.44500
12363885;-0.44000
12366663;-0.43500
12369441;-0.43000
12372219;-0.43500
12374997;-0.43500
12377774;-0.45500
12380552;-0.44000
12383330;-0.43000
12386108;-0.41500
12388885;-0.42000
12391663;-0.41500
12394441;-0.42000
12397219;-0.40000
12399997;-0.39000
12402774;-0.36500
12405552;-0.34500
12408330;-0.34500
12411108;-0.35000
12413885;-0.33500
12416663;-0.32500
12419441;-0.30500
12422219;-0.30000
12424997;-0.31000
12427774;-0.30000
12430552;-0.29500
12433330;-0.29000
12436108;-0.26500
12438885;-0.27500
12441663;-0.28000
12444441;-0.28500
12447219;-0.27000
12449997;-0.26000
12452774;-0.26000
12455552;-0.26000
12458330;-0.26000
12461108;-0.28500
12463885;-0.28000
12466663;-0.26000
12469441;-0.25000
12472219;-0.25000
12474997;-0.26000
12477774;-0.27500
12480552;-0.26500
12483330;-0.26000
12486108;-0.26000
12488885;-0.26500
12491663;-0.28000
12494441;-0.28500
12497219;-0.28500
12499996;-0.28000
12502774;-0.26500
12505552;-0.27500
12508330;-0.27500
12511108;-0.28500
12513885;-0.28500
12516663;-0.27000
12519441;-0.27000
12522219;-0.27000
12524996;-0.28000
12527774;-0.29000
12530552;-0.30000
12533330;-0.28500
12536108;-0.28500
12538885;-0.27000
12541663;-0.28500
12544441;-0.29500
12547219;-0.28500
12549996;-0.28000
12552774;-0.27500
12555552;-0.27500
12558330;-0.27500
12561108;-0.29500
12563885;-0.28500
12566663;-0.28000
12569441;-0.27500
12572219;-0.27500
12574996;-0.30000
12577774;-0.29000
12580552;-0.30000
12583330;-0.28000
12586108;-0.28000
12588885;-0.27000
12591663;-0.29000
12594441;-0.30000
12597219;-0.29500
12599996;-0.30500
12602774;-0.29500
12605552;-0.29000
12608330;-0.30000
12611108;-0.29500
12613885;-0.30000
12616663;-0.28000
12619441;-0.27500
12622219;-0.28000
12624996;-0.28000
12627774;-0.29500
12630552;-0.28500
12633330;-0.28500
12636108;-0.29000
12638885;-0.28000
12641663;-0.28000
12644441;-0.30500
12647219;-0.29500
12649996;-0.28500
12652774;-0.28500
12655552;-0.27000
12658330;-0.28500
12661108;-0.29500
12663885;-0.28500
12666663;-0.28000
12669441;-0.28500
12672219;-0.27500
12674996;-0.28000
12677774;-0.28000
12680552;-0.28000
12683330;-0.26500
12686108;-0.26500
12688885;-0.26000
12691663;-0.27500
12694441;-0.28000
12697219;-0.26500
12699996;-0.26000
12702774;-0.23500
12705552;-0.23500
12708330;-0.22000
12711108;-0.22500
12713885;-0.22000
12716663;-0.21000
12719441;-0.19500
12722219;-0.21000
12724996;-0.21000
12727774;-0.19000
12730552;-0.18000
12733330;-0.17500
12736108;-0.15500
12738885;-0.15500
12741663;-0.17000
12744441;-0.17500
12747219;-0.18000
12749996;-0.18000
12752774;-0.17500
12755552;-0.17500
12758330;-0.17500
12761108;-0.17000
12763885;-0.17000
12766663;-0.17000
12769441;-0.17000
12772219;-0.18000
12774996;-0.18000
12777774;-0.18000
12780552;-0.15500
12783330;-0.14000
12786108;-0.15000
12788885;-0.18500
12791663;-0.21500
12794441;-0.23000
12797219;-0.25000
12799996;-0.25500
12802774;-0.26500
12805552;-0.27000
12808330;-0.28000
12811108;-0.30000
12813885;-0.29000
12816663;-0.28500
12819441;-0.27500
12822219;-0.28000
12824996;-0.29000
12827774;-0.29000
12830552;-0.29500
12833330;-0.29000
12836108;-0.28000
12838885;-0.28500
12841663;-0.28500
12844441;-0.30500
12847219;-0.29000
12849996;-0.29000
12852774;-0.28500
12855552;-0.28500
12858330;-0.28000
12861108;-0.31000
12863885;-0.31000
12866663;-0.31500
12869441;-0.34000
12872219;-0.39000
12874996;-0.42000
12877774;-0.44500
12880552;-0.47500
12883330;-0.49000
12886108;-0.46000
12888885;-0.34500
12891663;-0.19500
12894441;-0.04500
12897219;0.16500
12899996;0.45000
12902774;0.75000
12905552;0.96500
12908330;1.08000
12911107;1.06500
12913885;0.90500
12916663;0.63000
12919441;0.28000
12922219;-0.05000
12924996;-0.27500
12927774;-0.42000
12930552;-0.47500
12933330;-0.46500
12936107;-0.43500
12938885;-0.38000
12941663;-0.34000
12944441;-0.32500
12947219;-0.33500
12949996;-0.33000
12952774;-0.31500
12955552;-0.30500
12958330;-0.31500
12961107;-0.33000
12963885;-0.31500
12966663;-0.33000
12969441;-0.32500
12972219;-0.31500
12974996;-0.32500
12977774;-0.33500
12980552;-0.33000
12983330;-0.31000
12986107;-0.30500
12988885;-0.31500
12991663;-0.32000
12994441;-0.33500
12997219;-0.32500
12999996;-0.31500
13002774;-0.30500
13005552;-0.30500
13008330;-0.33000
13011107;-0.32500
13013885;-0.32500
13016663;-0.33500
13019441;-0.32000
13022219;-0.32000
13024996;-0.33000
13027774;-0.34000
13030552;-0.33000
13033330;-0.31500
13036107;-0.30500
13038885;-0.30500
13041663;-0.30500
13044441;-0.32000
13047219;-0.31500
13049996;-0.31000
13052774;-0.30000
13055552;-0.29500
13058330;-0.31000
13061107;-0.30500
13063885;-0.31000
13066663;-0.31000
13069441;-0.31500
13072219;-0.31500
13074996;-0.31500
13077774;-0.33000
13080552;-0.31500
13083330;-0.30500
13086107;-0.31000
13088885;-0.30000
13091663;-0.31000
13094441;-0.33000
13097219;-0.33500
13099996;-0.32000
13102774;-0.30500
13105552;-0.30500
13108330;-0.32000
13111107;-0.32000
13113885;-0.31500
13116663;-0.30500
13119441;-0.29500
13122219;-0.29500
13124996;-0.30500
13127774;-0.32000
13130552;-0.31000
13133330;-0.30500
13136107;-0.30000
13138885;-0.31000
13141663;-0.32500
13144441;-0.33500
13147219;-0.34000
13149996;-0.32000
13152774;-0.32000
13155552;-0.31500
13158330;-0.32500
13161107;-0.33000
13163885;-0.33500
13166663;-0.33000
13169441;-0.31500
13172219;-0.32000
13174996;-0.32000
13177774;-0.34000
13180552;-0.33000
13183330;-0.33500
13186107;-0.32000
13188885;-0.32000
13191663;-0.32500
13194441;-0.32500
13197219;-0.31000
13199996;-0.29000
13202774;-0.28500
13205552;-0.27000
13208330;-0.27000
13211107;-0.26000
13213885;-0.25500
13216663;-0.25000
13219441;-0.24500
13222219;-0.22500
13224996;-0.23500
13227774;-0.23500
13230552;-0.23000
13233330;-0.22500
13236107;-0.21500
13238885;-0.19500
13241663;-0.20500
13244441;-0.20500
13247219;-0.21000
13249996;-0.20500
13252774;-0.20500
13255552;-0.21000
13258330;-0.21000
13261107;-0.22500
13263885;-0.21500
13266663;-0.21500
13269441;-0.20000
13272219;-0.21500
13274996;-0.22000
13277774;-0.22500
13280552;-0.23000
13283330;-0.22000
13286107;-0.20500
13288885;-0.20500
13291663;-0.22000
13294441;-0.23500
13297218;-0.23500
13299996;-0.22500
13302774;-0.21000
13305552;-0.22500
13308330;-0.22000
13311107;-0.23000
13313885;-0.22500
13316663;-0.22500
13319441;-0.22000
13322218;-0.23000
13324996;-0.23000
13327774;-0.24000
13330552;-0.23500
13333330;-0.23500
13336107;-0.23000
13338885;-0.23500
13341663;-0.24000
13344441;-0.25000
13347218;-0.25500
13349996;-0.25500
13352774;-0.24500
13355552;-0.25500
13358330;-0.26500
13361107;-0.28000
13363885;-0.26500
13366663;-0.26500
13369441;-0.25500
13372218;-0.25000
13374996;-0.27000
13377774;-0.27500
13380552;-0.27500
13383330;-0.26500
13386107;-0.25500
13388885;-0.26000
13391663;-0.26500
13394441;-0.28000
13397218;-0.28000
13399996;-0.27000
13402774;-0.25000
13405552;-0.26000
13408330;-0.27500
13411107;-0.28500
13413885;-0.28500
13416663;-0.27500
13419441;-0.27000
13422218;-0.27500
13424996;-0.28000
13427774;-0.28500
13430552;-0.29000
13433330;-0.28000
13436107;-0.27000
13438885;-0.28000
13441663;-0.28000
13444441;-0.29500
13447218;-0.29500
13449996;-0.27000
13452774;-0.27000
13455552;-0.27500
13458330;-0.27500
13461107;-0.27500
13463885;-0.28000
13466663;-0.28000
13469441;-0.26000
13472218;-0.26000
13474996;-0.28500
13477774;-0.29000
13480552;-0.28000
13483330;-0.27500
13486107;-0.27000
13488885;-0.26500
13491663;-0.27500
13494441;-0.29000
13497218;-0.28000
13499996;-0.28000
13502774;-0.26000
13505552;-0.27000
13508330;-0.26500
13511107;-0.27500
13513885;-0.26500
13516663;-0.23500
13519441;-0.21500
13522218;-0.21000
13524996;-0.22000
13527774;-0.22000
13530552;-0.20500
13533330;-0.21000
13536107;-0.21000
13538885;-0.19000
13541663;-0.19000
13544441;-0.20500
13547218;-0.18000
13549996;-0.17000
13552774;-0.15500
13555552;-0.16000
13558330;-0.17000
13561107;-0.20000
13563885;-0.20500
13566663;-0.18500
13569441;-0.19000
13572218;-0.18500
13574996;-0.18500
13577774;-0.20000
13580552;-0.20500
13583330;-0.20000
13586107;-0.18000
13588885;-0.16000
13591663;-0.15000
13594441;-0.17500
13597218;-0.20000
13599996;-0.21500
13602774;-0.23500
13605552;-0.23500
13608330;-0.24500
13611107;-0.28000
13613885;-0.29500
13616663;-0.28500
13619441;-0.27500
13622218;-0.29500
13624996;-0.31500
13627774;-0.32000
13630552;-0.31000
13633330;-0.30000
13636107;-0.30000
13638885;-0.31000
13641663;-0.30500
13644441;-0.32000
13647218;-0.32000
13649996;-0.30000
13652774;-0.29000
13655552;-0.30000
13658330;-0.30500
13661107;-0.32000
13663885;-0.31500
13666663;-0.31000
13669441;-0.31000
13672218;-0.31000
13674996;-0.32000
13677774;-0.33000
13680552;-0.33500
13683330;-0.34000
13686107;-0.34000
13688885;-0.37000
13691663;-0.40500
13694441;-0.47500
13697218;-0.48000
13699996;-0.51000
13702774;-0.53000
13705552;-0.51500
13708329;-0.42000
13711107;-0.29500
13713885;-0.12000
13716663;0.06500
13719441;0.34500
13722218;0.64000
13724996;0.84500
13727774;0.91500
13730552;0.82500
13733329;0.54500
13736107;0.12500
13738885;-0.26000
13741663;-0.45500
13744441;-0.48000
13747218;-0.41500
13749996;-0.36500
13752774;-0.34500
13755552;-0.35500
13758329;-0.36500
13761107;-0.37000
13763885;-0.37000
13766663;-0.35500
13769441;-0.36000
13772218;-0.36500
13774996;-0.36500
13777774;-0.38000
13780552;-0.37500
13783329;-0.37000
13786107;-0.35500
13788885;-0.35000
13791663;-0.36000
13794441;-0.37000
13797218;-0.36000
13799996;-0.35500
13802774;-0.34500
13805552;-0.34500
13808329;-0.33500
13811107;-0.36500
13813885;-0.36000
13816663;-0.35500
13819441;-0.34000
13822218;-0.35000
13824996;-0.36000
13827774;-0.36500
13830552;-0.35500
13833329;-0.36000
13836107;-0.35500
13838885;-0.36000
13841663;-0.36000
13844441;-0.37500
13847218;-0.38000
13849996;-0.35500
13852774;-0.35000
13855552;-0.35500
13858329;-0.35500
13861107;-0.37000
13863885;-0.36000
13866663;-0.35000
13869441;-0.34000
13872218;-0.35500
13874996;-0.35500
13877774;-0.36000
13880552;-0.36000
13883329;-0.35500
13886107;-0.35500
13888885;-0.35500
13891663;-0.36500
13894441;-0.36500
13897218;-0.35000
13899996;-0.34000
13902774;-0.33500
13905552;-0.35000
13908329;-0.34500
13911107;-0.35500
13913885;-0.34500
13916663;-0.34500
13919441;-0.33500
13922218;-0.34000
13924996;-0.35500
13927774;-0.36000
13930552;-0.35000
13933329;-0.34500
13936107;-0.33500
13938885;-0.34500
13941663;-0.34500
13944441;-0.35500
13947218;-0.36000
13949996;-0.36500
13952774;-0.35500
13955552;-0.35500
13958329;-0.35500
13961107;-0.37500
13963885;-0.35000
13966663;-0.35500
13969441;-0.34000
13972218;-0.34500
13974996;-0.34500
13977774;-0.37000
13980552;-0.35500
13983329;-0.35000
13986107;-0.34500
13988885;-0.35000
13991663;-0.36000
13994441;-0.37000
13997218;-0.37000
13999996;-0.36500
14002774;-0.36500
14005552;-0.35000
14008329;-0.37000
14011107;-0.37000
14013885;-0.37000
14016663;-0.36000
14019441;-0.34500
14022218;-0.34000
14024996;-0.34000
14027774;-0.34500
14030552;-0.34000
14033329;-0.32500
14036107;-0.30000
14038885;-0.30500
14041663;-0.28500
14044441;-0.30000
14047218;-0.28500
14049996;-0.27000
14052774;-0.26500
14055552;-0.26000
14058329;-0.26000
14061107;-0.26000
14063885;-0.26000
14066663;-0.26000
14069441;-0.26000
14072218;-0.25000
14074996;-0.26000
14077774;-0.27000
14080552;-0.27000
14083329;-0.26000
14086107;-0.26000
14088885;-0.27000
14091663;-0.27500
14094440;-0.28500
14097218;-0.27000
14099996;-0.27000
14102774;-0.26500
14105552;-0.26500
14108329;-0.26500
14111107;-0.29500
14113885;-0.28000
14116663;-0.28000
14119440;-0.26500
14122218;-0.25500
14124996;-0.26500
14127774;-0.28500
14130552;-0.27500
14133329;-0.28000
14136107;-0.27000
14138885;-0.28500
14141663;-0.27500
14144440;-0.29500
14147218;-0.28500
14149996;-0.28000
14152774;-0.26500
14155552;-0.26000
14158329;-0.27000
14161107;-0.28500
14163885;-0.29500
14166663;-0.29000
14169440;-0.28500
14172218;-0.31000
14174996;-0.30000
14177774;-0.31500
14180552;-0.30000
14183329;-0.29500
14186107;-0.30000
14188885;-0.30500
14191663;-0.30500
14194440;-0.31000
14197218;-0.31000
14199996;-0.31000
14202774;-0.29500
14205552;-0.29000
14208329;-0.29500
14211107;-0.31500
14213885;-0.31000
14216663;-0.31000
14219440;-0.30500
14222218;-0.31000
14224996;-0.32000
14227774;-0.33500
14230552;-0.33000
14233329;-0.32500
14236107;-0.32000
14238885;-0.31500
14241663;-0.33000
14244440;-0.34000
14247218;-0.34000
14249996;-0.33500
14252774;-0.33000
14255552;-0.34000
14258329;-0.34000
14261107;-0.35000
14263885;-0.34000
14266663;-0.32500
14269440;-0.32500
14272218;-0.31500
14274996;-0.32000
14277774;-0.33500
14280552;-0.33500
14283329;-0.32500
14286107;-0.31000
14288885;-0.32500
14291663;-0.33000
14294440;-0.35000
14297218;-0.33500
14299996;-0.33500
14302774;-0.32500
14305552;-0.32000
14308329;-0.31500
14311107;-0.33000
14313885;-0.33500
14316663;-0.33500
14319440;-0.33500
14322218;-0.33500
14324996;-0.34500
14327774;-0.35500
14330552;-0.34500
14333329;-0.33000
14336107;-0.32000
14338885;-0.30500
14341663;-0.30000
14344440;-0.29500
14347218;-0.28500
14349996;-0.26000
14352774;-0.25000
14355552;-0.26000
14358329;-0.27500
14361107;-0.28000
14363885;-0.26500
14366663;-0.26000
14369440;-0.23500
14372218;-0.24500
14374996;-0.24000
14377774;-0.25000
14380552;-0.25000
14383329;-0.24500
14386107;-0.22500
14388885;-0.23000
14391663;-0.24500
14394440;-0.25500
14397218;-0.25500
14399996;-0.26000
14402774;-0.24500
14405552;-0.24500
14408329;-0.25500
14411107;-0.27500
14413885;-0.28000
14416663;-0.27000
14419440;-0.25000
14422218;-0.23500
14424996;-0.24000
14427774;-0.25000
14430552;-0.27000
14433329;-0.28500
14436107;-0.28000
14438885;-0.30500
14441663;-0.33000
14444440;-0.35500
14447218;-0.35500
14449996;-0.35000
14452774;-0.35000
14455552;-0.36000
14458329;-0.38000
14461107;-0.38500
14463885;-0.37500
14466663;-0.37000
14469440;-0.36500
14472218;-0.36000
14474996;-0.36500
14477774;-0.38000
14480552;-0.38500
14483329;-0.37500
14486107;-0.36500
14488885;-0.38000
14491663;-0.38000
14494440;-0.39500
14497218;-0.39000
14499996;-0.38000
14502774;-0.37500
14505551;-0.38000
14508329;-0.39500
14511107;-0.39500
14513885;-0.37500
14516663;-0.36000
14519440;-0.36500
14522218;-0.36500
14524996;-0.39000
14527774;-0.42500
14530551;-0.47000
14533329;-0.49500
14536107;-0.49500
14538885;-0.53000
14541663;-0.57500
14544440;-0.61500
14547218;-0.58500
14549996;-0.50000
14552774;-0.36500
14555551;-0.23000
14558329;-0.06500
14561107;0.15000
14563885;0.43500
14566663;0.66000
14569440;0.79500
14572218;0.79500
14574996;0.62500
14577774;0.31500
14580551;-0.04500
14583329;-0.32000
14586107;-0.46000
14588885;-0.51500
14591663;-0.51000
14594440;-0.48000
14597218;-0.44000
14599996;-0.42500
14602774;-0.42500
14605551;-0.42000
14608329;-0.43500
14611107;-0.43000
14613885;-0.43000
14616663;-0.42000
14619440;-0.41500
14622218;-0.42500
14624996;-0.43000
14627774;-0.44500
14630551;-0.44000
14633329;-0.42500
14636107;-0.42500
14638885;-0.43000
14641663;-0.44000
14644440;-0.44500
14647218;-0.43000
14649996;-0.43500
14652774;-0.41500
14655551;-0.41500
14658329;-0.43000
14661107;-0.44500
14663885;-0.44000
14666663;-0.42000
14669440;-0.41000
14672218;-0.41000
14674996;-0.41500
14677774;-0.43500
14680551;-0.42500
14683329;-0.42500
14686107;-0.42500
14688885;-0.42500
14691663;-0.44000
14694440;-0.45500
14697218;-0.45500
14699996;-0.43500
14702774;-0.43000
14705551;-0.43500
14708329;-0.44500
14711107;-0.45500
14713885;-0.45000
14716663;-0.44500
14719440;-0.43500
14722218;-0.44000
14724996;-0.45000
14727774;-0.46000
14730551;-0.44000
14733329;-0.43500
14736107;-0.43000
14738885;-0.42500
14741663;-0.43000
14744440;-0.44500
14747218;-0.43500
14749996;-0.43000
14752774;-0.43000
14755551;-0.43500
14758329;-0.42500
14761107;-0.44500
14763885;-0.44500
14766663;-0.43000
14769440;-0.43000
14772218;-0.44000
14774996;-0.44000
14777774;-0.45500
14780551;-0.45500
14783329;-0.43500
14786107;-0.43500
14788885;-0.43000
14791663;-0.44000
14794440;-0.45000
14797218;-0.45000
14799996;-0.43000
14802774;-0.43000
14805551;-0.44000
14808329;-0.45000
14811107;-0.47500
14813885;-0.47000
14816663;-0.46500
14819440;-0.46000
14822218;-0.46000
14824996;-0.47500
14827774;-0.48500
14830551;-0.48500
14833329;-0.48000
14836107;-0.47500
14838885;-0.46500
14841663;-0.49000
14844440;-0.49500
14847218;-0.50000
14849996;-0.49500
14852774;-0.49500
14855551;-0.50000
14858329;-0.50000
14861107;-0.51000
14863885;-0.49000
14866663;-0.48000
14869440;-0.46500
14872218;-0.45000
14874996;-0.45500
14877774;-0.46000
14880551;-0.44000
14883329;-0.42000
14886107;-0.40500
14888885;-0.41000
14891662;-0.39500
14894440;-0.40500
14897218;-0.39000
14899996;-0.37000
14902774;-0.36500
14905551;-0.36500
14908329;-0.35500
14911107;-0.35000
14913885;-0.35000
14916662;-0.34000
14919440;-0.34500
14922218;-0.34500
14924996;-0.35000
14927774;-0.35500
14930551;-0.35500
14933329;-0.35000
14936107;-0.35500
14938885;-0.35500
14941662;-0.36500
14944440;-0.37500
14947218;-0.37000
14949996;-0.36000
14952774;-0.36500
14955551;-0.36000
14958329;-0.36000
14961107;-0.37000
14963885;-0.37000
14966662;-0.35000
14969440;-0.35000
14972218;-0.35500
14974996;-0.36000
14977774;-0.37000
14980551;-0.36500
14983329;-0.34500
14986107;-0.35500
14988885;-0.36000
14991662;-0.37000
14994440;-0.38000
14997218;-0.39000
14999996;-0.37000
15002774;-0.36500
15005551;-0.35000
15008329;-0.37000
15011107;-0.38000
15013885;-0.38000
15016662;-0.37000
15019440;-0.37500
15022218;-0.37500
15024996;-0.37500
15027774;-0.39500
15030551;-0.40000
15033329;-0.38500
15036107;-0.37500
15038885;-0.37500
15041662;-0.39000
15044440;-0.40500
15047218;-0.40000
15049996;-0.41000
15052774;-0.38500
15055551;-0.38500
15058329;-0.38500
15061107;-0.39500
15063885;-0.39500
15066662;-0.39500
15069440;-0.38000
15072218;-0.37500
15074996;-0.38500
15077774;-0.40500
15080551;-0.39500
15083329;-0.38500
15086107;-0.38000
15088885;-0.38000
15091662;-0.38500
15094440;-0.41000
15097218;-0.41000
15099996;-0.40500
15102774;-0.40500
15105551;-0.40500
15108329;-0.40500
15111107;-0.40500
15113885;-0.40000
15116662;-0.39500
15119440;-0.40500
15122218;-0.40500
15124996;-0.40500
15127774;-0.42500
15130551;-0.40500
15133329;-0.40000
15136107;-0.38500
15138885;-0.39000
15141662;-0.39500
15144440;-0.40000
15147218;-0.40500
15149996;-0.40000
15152774;-0.38500
15155551;-0.38000
15158329;-0.39000
15161107;-0.41000
15163885;-0.41500
15166662;-0.40000
15169440;-0.38500
15172218;-0.38500
15174996;-0.40000
15177774;-0.40000
15180551;-0.39500
15183329;-0.38000
15186107;-0.37000
15188885;-0.38000
15191662;-0.39500
15194440;-0.41000
15197218;-0.39500
15199996;-0.39000
15202774;-0.36500
15205551;-0.36000
15208329;-0.36000
15211107;-0.36000
15213885;-0.35000
15216662;-0.33000
15219440;-0.32500
15222218;-0.32500
15224996;-0.32500
15227774;-0.32000
15230551;-0.32000
15233329;-0.31500
15236107;-0.29000
15238885;-0.29000
15241662;-0.29500
15244440;-0.30500
15247218;-0.30500
15249996;-0.31000
15252774;-0.30500
15255551;-0.31000
15258329;-0.31500
15261107;-0.32500
15263885;-0.31500
15266662;-0.31000
15269440;-0.32000
15272218;-0.33000
15274996;-0.33500
15277774;-0.33500
15280551;-0.30000
15283329;-0.29000
15286107;-0.30000
15288885;-0.31000
15291662;-0.34500
15294440;-0.36500
15297218;-0.38000
15299996;-0.39000
15302773;-0.39500
15305551;-0.39000
15308329;-0.40000
15311107;-0.40500
15313885;-0.42000
15316662;-0.40000
15319440;-0.39500
15322218;-0.39500
15324996;-0.41000
15327773;-0.42500
15330551;-0.42500
15333329;-0.42500
15336107;-0.42000
15338885;-0.42000
15341662;-0.42000
15344440;-0.43500
15347218;-0.42500
15349996;-0.42000
15352773;-0.42000
15355551;-0.41500
15358329;-0.42500
15361107;-0.43000
15363885;-0.42500
15366662;-0.42500
15369440;-0.43500
15372218;-0.43500
15374996;-0.46000
15377773;-0.49500
15380551;-0.53000
15383329;-0.52000
15386107;-0.49000
15388885;-0.48500
15391662;-0.50000
15394440;-0.52000
15397218;-0.57000
15399996;-0.60000
15402773;-0.61500
15405551;-0.62000
15408329;-0.58000
15411107;-0.51000
15413885;-0.40500
15416662;-0.27500
15419440;-0.12000
15422218;0.09000
15424996;0.35000
15427773;0.58500
15430551;0.76500
15433329;0.84000
15436107;0.75500
15438885;0.45500
15441662;0.05000
15444440;-0.29000
15447218;-0.48500
15449996;-0.53500
15452773;-0.51000
15455551;-0.48500
15458329;-0.46000
15461107;-0.45000
15463885;-0.44500
15466662;-0.44000
15469440;-0.42000
15472218;-0.42500
15474996;-0.43000
15477773;-0.44500
15480551;-0.45000
15483329;-0.44000
15486107;-0.43500
15488885;-0.43500
15491662;-0.43500
15494440;-0.45500
15497218;-0.44500
15499996;-0.43500
15502773;-0.43500
15505551;-0.42500
15508329;-0.43500
15511107;-0.43000
15513885;-0.43500
15516662;-0.43000
15519440;-0.41500
15522218;-0.42500
15524996;-0.43000
15527773;-0.43000
15530551;-0.42000
15533329;-0.43000
15536107;-0.42000
15538885;-0.41500
15541662;-0.41500
15544440;-0.42500
15547218;-0.43500
15549996;-0.44000
15552773;-0.41500
15555551;-0.42500
15558329;-0.44500
15561107;-0.43500
15563885;-0.44500
15566662;-0.43000
15569440;-0.41500
15572218;-0.41500
15574996;-0.42000
15577773;-0.43000
15580551;-0.43000
15583329;-0.41500
15586107;-0.40500
15588885;-0.41500
15591662;-0.42000
15594440;-0.42000
15597218;-0.42500
15599996;-0.41000
15602773;-0.40500
15605551;-0.41000
15608329;-0.41500
15611107;-0.41500
15613885;-0.41000
15616662;-0.40000
15619440;-0.40000
15622218;-0.39000
15624996;-0.39000
15627773;-0.41000
15630551;-0.41500
15633329;-0.40500
15636107;-0.39000
15638885;-0.40000
15641662;-0.41500
15644440;-0.41500
15647218;-0.42500
15649996;-0.42000
15652773;-0.41500
15655551;-0.41500
15658329;-0.42000
15661107;-0.43500
15663885;-0.44500
15666662;-0.43500
15669440;-0.43000
15672218;-0.43000
15674996;-0.42500
15677773;-0.45500
15680551;-0.45000
15683329;-0.45000
15686107;-0.44000
15688884;-0.45000
15691662;-0.45500
15694440;-0.47000
15697218;-0.47000
15699996;-0.46000
15702773;-0.45500
15705551;-0.46000
15708329;-0.46000
15711107;-0.46000
15713884;-0.46000
15716662;-0.44500
15719440;-0.42500
15722218;-0.42500
15724996;-0.42000
15727773;-0.41000
15730551;-0.39500
15733329;-0.37500
15736107;-0.36000
15738884;-0.35500
15741662;-0.35000
15744440;-0.36000
15747218;-0.34500
15749996;-0.33000
15752773;-0.31000
15755551;-0.31000
15758329;-0.32000
15761107;-0.32000
15763884;-0.31500
15766662;-0.31000
15769440;-0.30000
15772218;-0.29500
15774996;-0.30000
15777773;-0.31000
15780551;-0.31000
15783329;-0.29500
15786107;-0.29000
15788884;-0.30000
15791662;-0.30500
15794440;-0.30500
15797218;-0.31000
15799996;-0.30500
15802773;-0.30000
15805551;-0.30000
15808329;-0.30000
15811107;-0.31500
15813884;-0.32000
15816662;-0.29500
15819440;-0.29500
15822218;-0.29000
15824996;-0.29500
15827773;-0.31000
15830551;-0.31000
15833329;-0.30000
15836107;-0.30000
15838884;-0.30000
15841662;-0.30000
15844440;-0.31500
15847218;-0.31500
15849996;-0.30500
15852773;-0.30000
15855551;-0.31500
15858329;-0.32000
15861107;-0.33000
15863884;-0.32500
15866662;-0.31000
15869440;-0.31000
15872218;-0.31500
15874996;-0.31500
15877773;-0.32500
15880551;-0.32000
15883329;-0.31500
15886107;-0.31000
15888884;-0.30500
15891662;-0.32500
15894440;-0.34500
15897218;-0.34500
15899996;-0.32000
15902773;-0.31000
15905551;-0.31500
15908329;-0.32500
15911107;-0.33000
15913884;-0.33500
15916662;-0.32500
15919440;-0.31500
15922218;-0.32000
15924996;-0.32500
15927773;-0.33000
15930551;-0.34000
15933329;-0.33000
15936107;-0.32500
15938884;-0.32500
15941662;-0.34000
15944440;-0.35000
15947218;-0.34500
15949996;-0.33000
15952773;-0.32500
15955551;-0.33000
15958329;-0.33500
15961107;-0.34000
15963884;-0.35500
15966662;-0.34000
15969440;-0.33000
15972218;-0.34000
15974996;-0.33000
15977773;-0.34000
15980551;-0.33000
15983329;-0.32500
15986107;-0.31000
15988884;-0.32000
15991662;-0.32500
15994440;-0.33500
15997218;-0.34500
15999996;-0.33500
16002773;-0.32500
16005551;-0.31500
16008329;-0.32500
16011107;-0.34000
16013884;-0.34500
16016662;-0.32500
16019440;-0.32000
16022218;-0.32000
16024996;-0.32500
16027773;-0.33000
16030551;-0.33000
16033329;-0.32500
16036107;-0.30000
16038884;-0.31000
16041662;-0.31000
16044440;-0.31500
16047218;-0.31000
16049996;-0.28500
16052773;-0.25000
16055551;-0.25500
16058329;-0.25500
16061107;-0.25000
16063884;-0.24500
16066662;-0.25000
16069440;-0.23000
16072218;-0.24000
16074995;-0.22500
16077773;-0.22500
16080551;-0.21500
16083329;-0.19500
16086107;-0.20000
16088884;-0.21000
16091662;-0.22000
16094440;-0.22500
16097218;-0.23000
16099995;-0.23000
16102773;-0.22500
16105551;-0.22500
16108329;-0.23000
16111107;-0.24500
16113884;-0.25000
16116662;-0.23500
16119440;-0.22000
16122218;-0.19000
16124995;-0.20000
16127773;-0.22000
16130551;-0.24500
16133329;-0.26500
16136107;-0.26000
16138884;-0.27500
16141662;-0.30000
16144440;-0.31500
16147218;-0.34000
16149995;-0.33000
16152773;-0.32500
16155551;-0.33000
16158329;-0.33500
16161107;-0.33500
16163884;-0.34500
16166662;-0.34000
16169440;-0.33500
16172218;-0.34000
16174995;-0.34500
16177773;-0.35000
16180551;-0.36500
16183329;-0.34500
16186107;-0.33000
16188884;-0.34500
16191662;-0.34000
16194440;-0.35500
16197218;-0.35500
16199995;-0.34500
16202773;-0.33000
16205551;-0.34500
16208329;-0.35500
16211107;-0.38000
16213884;-0.40000
16216662;-0.42500
16219440;-0.45500
16222218;-0.48500
16224995;-0.51500
16227773;-0.57000
16230551;-0.62000
16233329;-0.61000
16236107;-0.56000
16238884;-0.50000
16241662;-0.43500
16244440;-0.33500
16247218;-0.22000
16249995;-0.10000
16252773;0.08500
16255551;0.33500
16258329;0.60000
16261107;0.79500
16263884;0.94000
16266662;1.02500
16269440;1.02500
16272218;0.82500
16274995;0.43500
16277773;-0.01000
16280551;-0.34000
16283329;-0.47500
16286107;-0.45000
16288884;-0.40000
16291662;-0.36500
16294440;-0.35000
16297218;-0.37500
16299995;-0.37500
16302773;-0.36000
16305551;-0.36000
16308329;-0.38000
16311107;-0.38500
16313884;-0.39500
16316662;-0.39000
16319440;-0.37500
16322218;-0.39000
16324995;-0.40000
16327773;-0.39000
16330551;-0.41000
16333329;-0.38500
16336107;-0.38000
16338884;-0.38000
16341662;-0.38000
16344440;-0.39000
16347218;-0.40000
16349995;-0.38000
16352773;-0.36500
16355551;-0.37500
16358329;-0.37000
16361107;-0.37500
16363884;-0.37500
16366662;-0.38500
16369440;-0.36500
16372218;-0.37000
16374995;-0.39000
16377773;-0.38500
16380551;-0.38500
16383329;-0.37500
16386107;-0.37000
16388884;-0.36500
16391662;-0.38000
16394440;-0.38000
16397218;-0.37500
16399995;-0.37500
16402773;-0.36000
16405551;-0.37000
16408329;-0.37000
16411107;-0.37500
16413884;-0.37500
16416662;-0.36000
16419440;-0.36000
16422218;-0.37000
16424995;-0.37000
16427773;-0.37000
16430551;-0.37500
16433329;-0.36500
16436107;-0.35000
16438884;-0.36000
16441662;-0.35000
16444440;-0.37000
16447218;-0.36000
16449995;-0.36000
16452773;-0.34500
16455551;-0.36000
16458329;-0.35500
16461107;-0.36000
16463884;-0.36000
16466662;-0.35500
16469440;-0.35000
16472218;-0.36000
16474995;-0.36000
16477773;-0.36000
16480551;-0.37000
16483329;-0.36000
16486106;-0.35500
16488884;-0.36000
16491662;-0.36000
16494440;-0.36500
16497218;-0.37500
16499995;-0.35500
16502773;-0.35500
16505551;-0.36500
16508329;-0.36500
16511106;-0.37000
16513884;-0.37500
16516662;-0.37000
16519440;-0.36000
16522218;-0.36500
16524995;-0.36500
16527773;-0.37000
16530551;-0.38500
16533329;-0.36500
16536106;-0.36000
16538884;-0.36500
16541662;-0.36500
16544440;-0.38000
16547218;-0.36000
16549995;-0.35500
16552773;-0.33000
16555551;-0.32500
16558329;-0.33000
16561106;-0.32500
16563884;-0.33000
16566662;-0.31500
16569440;-0.29500
16572218;-0.29000
16574995;-0.29000
16577773;-0.28500
16580551;-0.27500
16583329;-0.25500
16586106;-0.24500
16588884;-0.24500
16591662;-0.26000
16594440;-0.26500
16597218;-0.26500
16599995;-0.25500
16602773;-0.25500
16605551;-0.24500
16608329;-0.26500
16611106;-0.26500
16613884;-0.26500
16616662;-0.26500
16619440;-0.25000
16622218;-0.26000
16624995;-0.28000
16627773;-0.27000
16630551;-0.27500
16633329;-0.26500
16636106;-0.26000
16638884;-0.26500
16641662;-0.26000
16644440;-0.26500
16647218;-0.27000
16649995;-0.27000
16652773;-0.26500
16655551;-0.25000
16658329;-0.27000
16661106;-0.27500
16663884;-0.27500
16666662;-0.27500
16669440;-0.26000
16672218;-0.26500
16674995;-0.27000
16677773;-0.28000
16680551;-0.28500
16683329;-0.27500
16686106;-0.27000
16688884;-0.28000
16691662;-0.29000
16694440;-0.29000
16697218;-0.30500
16699995;-0.29000
16702773;-0.28000
16705551;-0.28500
16708329;-0.29500
16711106;-0.30000
16713884;-0.30000
16716662;-0.29000
16719440;-0.28500
16722218;-0.28500
16724995;-0.30500
16727773;-0.31000
16730551;-0.30000
16733329;-0.29500
16736106;-0.28500
16738884;-0.29000
16741662;-0.29000
16744440;-0.29500
16747218;-0.29500
16749995;-0.30000
16752773;-0.27000
16755551;-0.29500
16758329;-0.31000
16761106;-0.30500
16763884;-0.31500
16766662;-0.30500
16769440;-0.30000
16772218;-0.29500
16774995;-0.30000
16777773;-0.29500
16780551;-0.31000
16783329;-0.30500
16786106;-0.29500
16788884;-0.29000
16791662;-0.29500
16794440;-0.31000
16797218;-0.30500
16799995;-0.29000
16802773;-0.28000
16805551;-0.28000
16808329;-0.29000
16811106;-0.28500
16813884;-0.29000
16816662;-0.28000
16819440;-0.27500
16822218;-0.28500
16824995;-0.29500
16827773;-0.29500
16830551;-0.30500
16833329;-0.28500
16836106;-0.27000
16838884;-0.27000
16841662;-0.26500
16844440;-0.25500
16847218;-0.24500
16849995;-0.22500
16852773;-0.22000
16855551;-0.22500
16858329;-0.22500
16861106;-0.22500
16863884;-0.22500
16866662;-0.21500
16869440;-0.20500
16872217;-0.22000
16874995;-0.21500
16877773;-0.21000
16880551;-0.20000
16883329;-0.18000
16886106;-0.17500
16888884;-0.16000
16891662;-0.17500
16894440;-0.18000
16897217;-0.19000
16899995;-0.19000
16902773;-0.19000
16905551;-0.18500
16908329;-0.20000
16911106;-0.20500
16913884;-0.19500
16916662;-0.19000
16919440;-0.19000
16922217;-0.18500
16924995;-0.16500
16927773;-0.16000
16930551;-0.17500
16933329;-0.19000
16936106;-0.21500
16938884;-0.22000
16941662;-0.24000
16944440;-0.26500
16947217;-0.29000
16949995;-0.28500
16952773;-0.28500
16955551;-0.28500
16958329;-0.30500
16961106;-0.30500
16963884;-0.30000
16966662;-0.29500
16969440;-0.29500
16972217;-0.30000
16974995;-0.30000
16977773;-0.31500
16980551;-0.33500
16983329;-0.30500
16986106;-0.29500
16988884;-0.30500
16991662;-0.31500
16994440;-0.30500
16997217;-0.30500
16999995;-0.31000
17002773;-0.29500
17005551;-0.30500
17008329;-0.30500
17011106;-0.32000
17013884;-0.36000
17016662;-0.39500
17019440;-0.41000
17022217;-0.46000
17024995;-0.48000
17027773;-0.54000
17030551;-0.54500
17033329;-0.48000
17036106;-0.35000
17038884;-0.21000
17041662;-0.06000
17044440;0.15000
17047217;0.43000
17049995;0.72500
17052773;0.88500
17055551;0.92000
17058329;0.80000
17061106;0.50500
17063884;0.08500
17066662;-0.25000
17069440;-0.43500
17072217;-0.45500
17074995;-0.42500
17077773;-0.38000
17080551;-0.35000
17083329;-0.34000
17086106;-0.34000
17088884;-0.34000
17091662;-0.35000
17094440;-0.35000
17097217;-0.36000
17099995;-0.36000
17102773;-0.35500
17105551;-0.35000
17108329;-0.35500
17111106;-0.35000
17113884;-0.36000
17116662;-0.34000
17119440;-0.33500
17122217;-0.34000
17124995;-0.35000
17127773;-0.36000
17130551;-0.35500
17133329;-0.34500
17136106;-0.34000
17138884;-0.34000
17141662;-0.34500
17144440;-0.35000
17147217;-0.37500
17149995;-0.34500
17152773;-0.34000
17155551;-0.34000
17158329;-0.34500
17161106;-0.34000
17163884;-0.35000
17166662;-0.35000
17169440;-0.33500
17172217;-0.33000
17174995;-0.34000
17177773;-0.34000
17180551;-0.34500
17183329;-0.35000
17186106;-0.33500
17188884;-0.34000
17191662;-0.35500
17194440;-0.35500
17197217;-0.35000
17199995;-0.34000
17202773;-0.33500
17205551;-0.33500
17208329;-0.34500
17211106;-0.34500
17213884;-0.36000
17216662;-0.34500
17219440;-0.32500
17222217;-0.34000
17224995;-0.34500
17227773;-0.33500
17230551;-0.34500
17233329;-0.33000
17236106;-0.33000
17238884;-0.32000
17241662;-0.32000
17244440;-0.33500
17247217;-0.34500
17249995;-0.33500
17252773;-0.33000
17255551;-0.32500
17258329;-0.35000
17261106;-0.35000
17263884;-0.34500
17266662;-0.34000
17269440;-0.32500
17272217;-0.33500
17274995;-0.34000
17277773;-0.34500
17280551;-0.35000
17283328;-0.34500
17286106;-0.33000
17288884;-0.33500
17291662;-0.34500
17294440;-0.34500
17297217;-0.33500
17299995;-0.34000
17302773;-0.32500
17305551;-0.34000
17308328;-0.35500
17311106;-0.35500
17313884;-0.36000
17316662;-0.35000
17319440;-0.33500
17322217;-0.34500
17324995;-0.35500
17327773;-0.37000
17330551;-0.37500
17333328;-0.36000
17336106;-0.35500
17338884;-0.36500
17341662;-0.36000
17344440;-0.36500
17347217;-0.36000
17349995;-0.35500
17352773;-0.34000
17355551;-0.34500
17358328;-0.33000
17361106;-0.32500
17363884;-0.32500
17366662;-0.30000
17369440;-0.27500
17372217;-0.28500
17374995;-0.27500
17377773;-0.28000
17380551;-0.27500
17383328;-0.27000
17386106;-0.27000
17388884;-0.27500
17391662;-0.28000
17394440;-0.28500
17397217;-0.28500
17399995;-0.27000
17402773;-0.27000
17405551;-0.26500
17408328;-0.28500
17411106;-0.29000
17413884;-0.29000
17416662;-0.28500
17419440;-0.27000
17422217;-0.27000
17424995;-0.28000
17427773;-0.28500
17430551;-0.28500
17433328;-0.26500
17436106;-0.26000
17438884;-0.26500
17441662;-0.26500
17444440;-0.28000
17447217;-0.28500
17449995;-0.29000
17452773;-0.27500
17455551;-0.28500
17458328;-0.30500
17461106;-0.29500
17463884;-0.30500
17466662;-0.30500
17469440;-0.29500
17472217;-0.29500
17474995;-0.30500
17477773;-0.31000
17480551;-0.32500
17483328;-0.32000
17486106;-0.30000
17488884;-0.32000
17491662;-0.32000
17494440;-0.32000
17497217;-0.33500
17499995;-0.32500
17502773;-0.31000
17505551;-0.30500
17508328;-0.30500
17511106;-0.32500
17513884;-0.34000
17516662;-0.32000
17519440;-0.30500
17522217;-0.31000
17524995;-0.31500
17527773;-0.32500
17530551;-0.33500
17533328;-0.33000
17536106;-0.32000
17538884;-0.33000
17541662;-0.34000
17544440;-0.35000
17547217;-0.36500
17549995;-0.35500
17552773;-0.34000
17555551;-0.33500
17558328;-0.33500
17561106;-0.35000
17563884;-0.35000
17566662;-0.34000
17569440;-0.33000
17572217;-0.34000
17574995;-0.34500
17577773;-0.35000
17580551;-0.34500
17583328;-0.34000
17586106;-0.33500
17588884;-0.32000
17591662;-0.33500
17594440;-0.34500
17597217;-0.35500
17599995;-0.35000
17602773;-0.35000
17605551;-0.34000
17608328;-0.34500
17611106;-0.36000
17613884;-0.36000
17616662;-0.34000
17619440;-0.33000
17622217;-0.33500
17624995;-0.33500
17627773;-0.34500
17630551;-0.35000
17633328;-0.35000
17636106;-0.33000
17638884;-0.31500
17641662;-0.31500
17644440;-0.30500
17647217;-0.29000
17649995;-0.27000
17652773;-0.26500
17655551;-0.26000
17658328;-0.27500
17661106;-0.29000
17663884;-0.29500
17666662;-0.27000
17669439;-0.25500
17672217;-0.24500
17674995;-0.25000
17677773;-0.25500
17680551;-0.25500
17683328;-0.23500
17686106;-0.23000
17688884;-0.24000
17691662;-0.25500
17694439;-0.27000
17697217;-0.27500
17699995;-0.27000
17702773;-0.26000
17705551;-0.25500
17708328;-0.27000
17711106;-0.28000
17713884;-0.29000
17716662;-0.27000
17719439;-0.24500
17722217;-0.23500
17724995;-0.26500
17727773;-0.29000
17730551;-0.31500
17733328;-0.31500
17736106;-0.32000
17738884;-0.34500
17741662;-0.36500
17744439;-0.39500
17747217;-0.40000
17749995;-0.39000
17752773;-0.37000
17755551;-0.38000
17758328;-0.38000
17761106;-0.39000
17763884;-0.39500
17766662;-0.37500
17769439;-0.37500
17772217;-0.38000
17774995;-0.39500
17777773;-0.39500
17780551;-0.40000
17783328;-0.40000
17786106;-0.39500
17788884;-0.39500
17791662;-0.40500
17794439;-0.40500
17797217;-0.40500
17799995;-0.40500
17802773;-0.39500
17805551;-0.39500
17808328;-0.40000
17811106;-0.43000
17813884;-0.45000
17816662;-0.47000
17819439;-0.49500
17822217;-0.52500
17824995;-0.55500
17827773;-0.61000
17830551;-0.59500
17833328;-0.51000
17836106;-0.38500
17838884;-0.25000
17841662;-0.09000
17844439;0.13500
17847217;0.41000
17849995;0.67000
17852773;0.79500
17855551;0.79500
17858328;0.59500
17861106;0.24000
17863884;-0.13500
17866662;-0.38500
17869439;-0.49500
17872217;-0.51000
17874995;-0.48000
17877773;-0.45500
17880551;-0.43500
17883328;-0.42000
17886106;-0.41000
17888884;-0.41500
17891662;-0.44000
17894439;-0.43000
17897217;-0.44000
17899995;-0.44500
17902773;-0.44500
17905551;-0.44000
17908328;-0.44500
17911106;-0.45000
17913884;-0.46500
17916662;-0.45000
17919439;-0.43500
17922217;-0.44000
17924995;-0.43500
17927773;-0.44000
17930551;-0.44000
17933328;-0.43000
17936106;-0.43000
17938884;-0.42500
17941662;-0.43000
17944439;-0.44000
17947217;-0.44500
17949995;-0.43500
17952773;-0.42000
17955551;-0.42000
17958328;-0.42000
17961106;-0.43500
17963884;-0.44500
17966662;-0.43500
17969439;-0.43500
17972217;-0.43500
17974995;-0.44500
17977773;-0.45500
17980551;-0.45500
17983328;-0.44000
17986106;-0.43000
17988884;-0.42500
17991662;-0.43000
17994439;-0.44500
17997217;-0.45500
17999995;-0.44500
18002773;-0.44000
18005551;-0.42500
18008328;-0.43000
18011106;-0.44500
18013884;-0.44500
18016662;-0.42000
18019439;-0.42000
18022217;-0.42000
18024995;-0.42000
18027773;-0.43000
18030551;-0.44000
18033328;-0.43500
18036106;-0.44000
18038884;-0.44000
18041662;-0.45000
18044439;-0.45000
18047217;-0.45500
18049995;-0.45000
18052773;-0.43500
18055550;-0.43500
18058328;-0.43000
18061106;-0.43500
18063884;-0.44000
18066662;-0.44000
18069439;-0.42500
18072217;-0.43000
18074995;-0.43000
18077773;-0.45000
18080550;-0.46000
18083328;-0.45000
18086106;-0.43500
18088884;-0.44500
18091662;-0.46500
18094439;-0.46000
18097217;-0.46000
18099995;-0.46000
18102773;-0.46000
18105550;-0.46500
18108328;-0.46500
18111106;-0.48500
18113884;-0.49000
18116662;-0.48500
18119439;-0.48000
18122217;-0.48000
18124995;-0.48500
18127773;-0.50500
18130550;-0.50500
18133328;-0.49000
18136106;-0.50000
18138884;-0.48500
18141662;-0.50000
18144439;-0.50000
18147217;-0.49000
18149995;-0.47500
18152773;-0.46000
18155550;-0.44000
18158328;-0.44000
18161106;-0.44000
18163884;-0.43000
18166662;-0.42000
18169439;-0.39000
18172217;-0.38500
18174995;-0.37500
18177773;-0.40000
18180550;-0.38500
18183328;-0.38000
18186106;-0.36000
18188884;-0.36000
18191662;-0.36500
18194439;-0.35500
18197217;-0.36500
18199995;-0.35500
18202773;-0.34500
18205550;-0.33500
18208328;-0.34000
18211106;-0.35500
18213884;-0.36000
18216662;-0.34500
18219439;-0.31500
18222217;-0.32500
18224995;-0.34000
18227773;-0.36500
18230550;-0.36500
18233328;-0.35500
18236106;-0.34500
18238884;-0.33500
18241662;-0.33500
18244439;-0.35000
18247217;-0.36000
18249995;-0.35000
18252773;-0.33500
18255550;-0.35000
18258328;-0.34500
18261106;-0.36500
18263884;-0.36500
18266662;-0.36000
18269439;-0.35500
18272217;-0.35500
18274995;-0.36500
18277773;-0.36500
18280550;-0.37500
18283328;-0.36500
18286106;-0.36000
18288884;-0.38000
18291662;-0.37000
18294439;-0.38500
18297217;-0.37500
18299995;-0.37000
18302773;-0.37000
18305550;-0.36500
18308328;-0.37500
18311106;-0.39000
18313884;-0.39500
18316662;-0.38000
18319439;-0.36500
18322217;-0.38000
18324995;-0.37500
18327773;-0.38500
18330550;-0.38500
18333328;-0.38000
18336106;-0.37500
18338884;-0.37500
18341662;-0.38000
18344439;-0.39000
18347217;-0.39000
18349995;-0.39500
18352773;-0.38500
18355550;-0.38000
18358328;-0.38500
18361106;-0.38500
18363884;-0.40000
18366662;-0.39500
18369439;-0.38500
18372217;-0.38000
18374995;-0.39500
18377773;-0.39000
18380550;-0.39000
18383328;-0.38500
18386106;-0.37500
18388884;-0.38500
18391662;-0.38000
18394439;-0.38500
18397217;-0.39000
18399995;-0.38000
18402773;-0.38000
18405550;-0.38000
18408328;-0.38500
18411106;-0.39000
18413884;-0.39500
18416662;-0.38500
18419439;-0.38000
18422217;-0.39000
18424995;-0.38500
18427773;-0.38500
18430550;-0.37500
18433328;-0.36000
18436106;-0.33000
18438884;-0.32500
18441662;-0.32000
18444439;-0.33000
18447217;-0.32500
18449995;-0.31500
18452773;-0.30000
18455550;-0.30000
18458328;-0.30000
18461106;-0.30000
18463884;-0.30500
18466661;-0.28000
18469439;-0.27000
18472217;-0.27500
18474995;-0.26500
18477773;-0.27500
18480550;-0.28000
18483328;-0.27500
18486106;-0.28500
18488884;-0.28000
18491661;-0.28500
18494439;-0.29000
18497217;-0.30000
18499995;-0.29500
18502773;-0.28500
18505550;-0.27500
18508328;-0.25500
18511106;-0.27500
18513884;-0.30500
18516661;-0.32000
18519439;-0.34000
18522217;-0.35000
18524995;-0.36500
18527773;-0.38000
18530550;-0.39500
18533328;-0.38500
18536106;-0.38500
18538884;-0.38000
18541661;-0.38500
18544439;-0.40500
18547217;-0.40500
18549995;-0.39000
18552773;-0.38000
18555550;-0.39000
18558328;-0.38500
18561106;-0.39000
18563884;-0.39000
18566661;-0.38000
18569439;-0.38000
18572217;-0.38000
18574995;-0.38500
18577773;-0.40000
18580550;-0.39500
18583328;-0.40500
18586106;-0.38500
18588884;-0.39000
18591661;-0.39000
18594439;-0.40500
18597217;-0.41000
18599995;-0.42000
18602773;-0.43500
18605550;-0.47500
18608328;-0.51000
18611106;-0.53500
18613884;-0.58000
18616661;-0.61000
18619439;-0.58500
18622217;-0.48500
18624995;-0.33500
18627773;-0.17500
18630550;0.04000
18633328;0.34500
18636106;0.62000
18638884;0.81500
18641661;0.88000
18644439;0.76500
18647217;0.45000
18649995;0.03500
18652773;-0.29500
18655550;-0.49000
18658328;-0.52500
18661106;-0.50000
18663884;-0.45500
18666661;-0.42500
18669439;-0.42500
18672217;-0.42000
18674995;-0.42000
18677773;-0.42500
18680550;-0.43000
18683328;-0.42000
18686106;-0.41000
18688884;-0.41500
18691661;-0.42500
18694439;-0.42500
18697217;-0.42500
18699995;-0.42000
18702773;-0.40500
18705550;-0.41500
18708328;-0.42000
18711106;-0.42000
18713884;-0.42500
18716661;-0.41500
18719439;-0.41000
18722217;-0.40500
18724995;-0.40000
18727773;-0.42000
18730550;-0.43000
18733328;-0.40500
18736106;-0.40500
18738884;-0.40500
18741661;-0.40500
18744439;-0.42000
18747217;-0.42000
18749995;-0.41500
18752773;-0.41500
18755550;-0.41000
18758328;-0.40500
18761106;-0.43000
18763884;-0.43000
18766661;-0.42000
18769439;-0.40000
18772217;-0.41000
18774995;-0.40500
18777773;-0.41000
18780550;-0.42000
18783328;-0.40500
18786106;-0.40500
18788884;-0.40000
18791661;-0.40500
18794439;-0.41500
18797217;-0.41000
18799995;-0.40500
18802773;-0.39500
18805550;-0.39500
18808328;-0.40000
18811106;-0.41000
18813884;-0.41000
18816661;-0.40000
18819439;-0.39500
18822217;-0.40500
18824995;-0.40500
18827773;-0.41000
18830550;-0.41500
18833328;-0.39000
18836106;-0.39500
18838884;-0.39500
18841661;-0.40000
18844439;-0.40500
18847217;-0.41000
18849995;-0.39500
18852772;-0.39000
18855550;-0.39500
18858328;-0.39500
18861106;-0.40500
18863884;-0.41500
18866661;-0.41000
18869439;-0.42000
18872217;-0.42000
18874995;-0.42000
18877772;-0.43000
18880550;-0.43000
18883328;-0.43500
18886106;-0.42000
18888884;-0.43500
18891661;-0.43000
18894439;-0.44500
18897217;-0.45500
18899995;-0.45000
18902772;-0.43500
18905550;-0.44000
18908328;-0.44000
18911106;-0.45500
18913884;-0.45500
18916661;-0.45500
18919439;-0.42500
18922217;-0.42000
18924995;-0.42000
18927772;-0.42000
18930550;-0.42500
18933328;-0.38500
18936106;-0.38000
18938884;-0.36000
18941661;-0.36000
18944439;-0.36000
18947217;-0.34500
18949995;-0.34500
18952772;-0.32500
18955550;-0.30500
18958328;-0.31000
18961106;-0.31000
18963884;-0.32000
18966661;-0.30500
18969439;-0.29500
18972217;-0.29500
18974995;-0.28500
18977772;-0.28500
18980550;-0.30000
18983328;-0.30000
18986106;-0.29500
18988884;-0.28500
18991661;-0.29000
18994439;-0.31000
18997217;-0.30000
18999995;-0.30500
19002772;-0.30000
19005550;-0.29500
19008328;-0.29000
19011106;-0.30000
19013884;-0.29500
19016661;-0.29500
19019439;-0.28500
19022217;-0.28000
19024995;-0.29500
19027772;-0.30500
19030550;-0.30500
19033328;-0.28000
19036106;-0.27000
19038884;-0.26000
19041661;-0.24000
19044439;-0.22500
19047217;-0.22000
19049995;-0.21500
19052772;-0.18500
19055550;-0.18000
19058328;-0.18000
19061106;-0.17500
19063884;-0.18500
19066661;-0.18500
19069439;-0.18500
19072217;-0.17500
19074995;-0.17500
19077772;-0.18000
19080550;-0.19500
19083328;-0.20500
19086106;-0.20500
19088884;-0.20500
19091661;-0.21000
19094439;-0.23000
19097217;-0.24000
19099995;-0.22500
19102772;-0.21500
19105550;-0.23500
19108328;-0.24500
19111106;-0.26500
19113884;-0.29000
19116661;-0.28500
19119439;-0.30500
19122217;-0.31500
19124995;-0.33500
19127772;-0.33500
19130550;-0.33500
19133328;-0.34500
19136106;-0.32500
19138884;-0.35000
19141661;-0.35500
19144439;-0.36000
19147217;-0.38000
19149995;-0.37000
19152772;-0.36000
19155550;-0.36500
19158328;-0.36500
