time_ms;ecg_value
0;0.93500
2778;1.01000
5556;1.00500
8333;0.86500
11111;0.57000
13889;0.16000
16667;-0.20000
19444;-0.41500
22222;-0.49500
25000;-0.49000
27778;-0.45000
30556;-0.41000
33333;-0.41000
36111;-0.41500
38889;-0.42500
41667;-0.41000
44444;-0.40500
47222;-0.40000
50000;-0.41500
52778;-0.41000
55556;-0.41500
58333;-0.41000
61111;-0.40500
63889;-0.40000
66667;-0.40500
69444;-0.42000
72222;-0.41500
75000;-0.41500
77778;-0.41500
80556;-0.42500
83333;-0.42000
86111;-0.42500
88889;-0.42000
91667;-0.41000
94444;-0.40500
97222;-0.40000
100000;-0.41000
102778;-0.41500
105556;-0.42000
108333;-0.41500
111111;-0.40500
113889;-0.40500
116667;-0.42000
119444;-0.43000
122222;-0.41000
125000;-0.41500
127778;-0.39500
130556;-0.41000
133333;-0.41000
136111;-0.43000
138889;-0.42000
141667;-0.41500
144444;-0.40000
147222;-0.40500
150000;-0.41500
152778;-0.42500
155556;-0.42500
158333;-0.41000
161111;-0.41500
163889;-0.41500
166667;-0.41500
169444;-0.42500
172222;-0.41500
175000;-0.41500
177778;-0.39500
180556;-0.40000
183333;-0.40000
186111;-0.42000
188889;-0.42500
191667;-0.41500
194444;-0.41000
197222;-0.41000
200000;-0.42500
202778;-0.42000
205555;-0.42500
208333;-0.42000
211111;-0.40500
213889;-0.41000
216667;-0.42500
219444;-0.43000
222222;-0.42500
225000;-0.42000
227778;-0.41500
230555;-0.41500
233333;-0.43000
236111;-0.43000
238889;-0.44000
241667;-0.43000
244444;-0.43500
247222;-0.43500
250000;-0.44000
252778;-0.45000
255555;-0.46000
258333;-0.45500
261111;-0.44000
263889;-0.44500
266667;-0.45000
269444;-0.46000
272222;-0.47000
275000;-0.47000
277778;-0.46500
280555;-0.46000
283333;-0.46000
286111;-0.47000
288889;-0.46500
291667;-0.45500
294444;-0.44000
297222;-0.43500
300000;-0.44000
302778;-0.42500
305555;-0.41500
308333;-0.38500
311111;-0.37000
313889;-0.36000
316667;-0.35000
319444;-0.34500
322222;-0.34000
325000;-0.33500
327778;-0.32000
330555;-0.32500
333333;-0.31000
336111;-0.31500
338889;-0.31000
341667;-0.30500
344444;-0.28500
347222;-0.29000
350000;-0.29500
352778;-0.31500
355555;-0.29500
358333;-0.28000
361111;-0.27500
363889;-0.27500
366667;-0.28000
369444;-0.29000
372222;-0.28500
375000;-0.28500
377778;-0.27000
380555;-0.27500
383333;-0.28500
386111;-0.29500
388889;-0.30000
391667;-0.28000
394444;-0.27500
397222;-0.28500
400000;-0.29500
402778;-0.29000
405555;-0.29500
408333;-0.28000
411111;-0.27500
413889;-0.28000
416667;-0.28500
419444;-0.29500
422222;-0.29000
425000;-0.27500
427778;-0.27000
430555;-0.27500
433333;-0.28500
436111;-0.28500
438889;-0.28500
441667;-0.28500
444444;-0.27000
447222;-0.27500
450000;-0.28500
452778;-0.28000
455555;-0.28500
458333;-0.27500
461111;-0.27500
463889;-0.28000
466667;-0.28000
469444;-0.30000
472222;-0.30000
475000;-0.30000
477778;-0.29500
480555;-0.29500
483333;-0.29500
486111;-0.30500
488889;-0.31000
491667;-0.30000
494444;-0.29000
497222;-0.30000
500000;-0.30500
502778;-0.30500
505555;-0.32000
508333;-0.30500
511111;-0.29000
513889;-0.29500
516667;-0.30500
519444;-0.31000
522222;-0.31000
525000;-0.30000
527778;-0.29500
530555;-0.29500
533333;-0.29500
536111;-0.29000
538889;-0.30000
541667;-0.30000
544444;-0.30000
547222;-0.30500
550000;-0.30000
552778;-0.30000
555555;-0.29500
558333;-0.27500
561111;-0.26000
563889;-0.26000
566667;-0.26500
569444;-0.26500
572222;-0.24500
575000;-0.24000
577778;-0.20500
580555;-0.21000
583333;-0.21500
586111;-0.21500
588889;-0.20000
591667;-0.19500
594444;-0.18000
597222;-0.17500
600000;-0.17500
602778;-0.18000
605555;-0.18000
608333;-0.16000
611111;-0.17000
613889;-0.20500
616666;-0.20000
619444;-0.20500
622222;-0.19500
625000;-0.19000
627778;-0.18000
630555;-0.18000
633333;-0.16500
636111;-0.15500
638889;-0.16000
641666;-0.18000
644444;-0.20500
647222;-0.22500
650000;-0.24000
652778;-0.26000
655555;-0.28000
658333;-0.28500
661111;-0.29500
663889;-0.30000
666666;-0.31500
669444;-0.31500
672222;-0.31000
675000;-0.30500
677778;-0.29000
680555;-0.30500
683333;-0.30500
686111;-0.30500
688889;-0.31000
691666;-0.31000
694444;-0.30500
697222;-0.31000
700000;-0.33500
702778;-0.33000
705555;-0.34000
708333;-0.32500
711111;-0.31500
713889;-0.31500
716666;-0.32500
719444;-0.33000
722222;-0.33000
725000;-0.32000
727778;-0.31000
730555;-0.31500
733333;-0.31500
736111;-0.34500
738889;-0.33500
741666;-0.33500
744444;-0.36000
747222;-0.40000
750000;-0.43500
752778;-0.45000
755555;-0.48500
758333;-0.51000
761111;-0.51000
763889;-0.44500
766666;-0.33000
769444;-0.21000
772222;-0.03500
775000;0.17500
777778;0.44000
780555;0.70000
783333;0.89000
786111;0.95500
788889;0.84000
791666;0.54000
794444;0.14500
797222;-0.24000
800000;-0.46000
802778;-0.49000
805555;-0.43500
808333;-0.37500
811111;-0.34500
813889;-0.35000
816666;-0.35500
819444;-0.36500
822222;-0.36000
825000;-0.34500
827778;-0.34500
830555;-0.34500
833333;-0.35000
836111;-0.36000
838889;-0.36000
841666;-0.35000
844444;-0.35000
847222;-0.36000
850000;-0.35500
852778;-0.36500
855555;-0.36500
858333;-0.35500
861111;-0.35000
863889;-0.35000
866666;-0.36000
869444;-0.35000
872222;-0.36000
875000;-0.35500
877778;-0.34000
880555;-0.34000
883333;-0.35000
886111;-0.35000
888889;-0.35500
891666;-0.35000
894444;-0.33500
897222;-0.34000
900000;-0.34000
902778;-0.35000
905555;-0.35500
908333;-0.36000
911111;-0.33000
913889;-0.33000
916666;-0.34500
919444;-0.36500
922222;-0.37000
925000;-0.35000
927778;-0.34000
930555;-0.35000
933333;-0.35000
936111;-0.35500
938889;-0.36000
941666;-0.35000
944444;-0.34500
947222;-0.35000
950000;-0.35000
952778;-0.36500
955555;-0.36000
958333;-0.35000
961111;-0.34000
963889;-0.34500
966666;-0.35000
969444;-0.36000
972222;-0.36000
975000;-0.34500
977778;-0.33500
980555;-0.34000
983333;-0.34000
986111;-0.35000
988889;-0.35500
991666;-0.34500
994444;-0.33000
997222;-0.33000
1000000;-0.35500
1002777;-0.35000
1005555;-0.36000
1008333;-0.35500
1011111;-0.34000
1013889;-0.35000
1016666;-0.35500
1019444;-0.37000
1022222;-0.36500
1025000;-0.36000
1027777;-0.34500
1030555;-0.34500
1033333;-0.36000
1036111;-0.37000
1038889;-0.37000
1041666;-0.35000
1044444;-0.34500
1047222;-0.35000
1050000;-0.35500
1052777;-0.37000
1055555;-0.36500
1058333;-0.35500
1061111;-0.33500
1063889;-0.34000
1066666;-0.33500
1069444;-0.34000
1072222;-0.34000
1075000;-0.33000
1077777;-0.30000
1080555;-0.30000
1083333;-0.29500
1086111;-0.31000
1088889;-0.30500
1091666;-0.29000
1094444;-0.27000
1097222;-0.27000
1100000;-0.27000
1102777;-0.27500
1105555;-0.27500
1108333;-0.25500
1111111;-0.25000
1113889;-0.25500
1116666;-0.25500
1119444;-0.27500
1122222;-0.26500
1125000;-0.26000
1127777;-0.24500
1130555;-0.25500
1133333;-0.25500
1136111;-0.26500
1138889;-0.25500
1141666;-0.25500
1144444;-0.25000
1147222;-0.24000
1150000;-0.24000
1152777;-0.26500
1155555;-0.26000
1158333;-0.25500
1161111;-0.24500
1163889;-0.25500
1166666;-0.25500
1169444;-0.25500
1172222;-0.26000
1175000;-0.25500
1177777;-0.26000
1180555;-0.26500
1183333;-0.27000
1186111;-0.27500
1188889;-0.28000
1191666;-0.26500
1194444;-0.26500
1197222;-0.26500
1200000;-0.27000
1202777;-0.26500
1205555;-0.28000
1208333;-0.27000
1211111;-0.25500
1213889;-0.27000
1216666;-0.26500
1219444;-0.27000
1222222;-0.27000
1225000;-0.27500
1227777;-0.25500
1230555;-0.26500
1233333;-0.27000
1236111;-0.28000
1238889;-0.28500
1241666;-0.27000
1244444;-0.26500
1247222;-0.27500
1250000;-0.28500
1252777;-0.29500
1255555;-0.30000
1258333;-0.28500
1261111;-0.27500
1263889;-0.27000
1266666;-0.28500
1269444;-0.29500
1272222;-0.30500
1275000;-0.29000
1277777;-0.27500
1280555;-0.28500
1283333;-0.28500
1286111;-0.29500
1288889;-0.30000
1291666;-0.29000
1294444;-0.28500
1297222;-0.28500
1300000;-0.28000
1302777;-0.29000
1305555;-0.29500
1308333;-0.28500
1311111;-0.26500
1313889;-0.27500
1316666;-0.27000
1319444;-0.28500
1322222;-0.28000
1325000;-0.26000
1327777;-0.24500
1330555;-0.24500
1333333;-0.25000
1336111;-0.25500
1338889;-0.24500
1341666;-0.21500
1344444;-0.20500
1347222;-0.19000
1350000;-0.20500
1352777;-0.21000
1355555;-0.20000
1358333;-0.18500
1361111;-0.16500
1363889;-0.15500
1366666;-0.16000
1369444;-0.15000
1372222;-0.16500
1375000;-0.15000
1377777;-0.15500
1380555;-0.16500
1383333;-0.17000
1386111;-0.17500
1388888;-0.17000
1391666;-0.16000
1394444;-0.15000
1397222;-0.13500
1400000;-0.13500
1402777;-0.18000
1405555;-0.22000
1408333;-0.22000
1411111;-0.22500
1413888;-0.24000
1416666;-0.26000
1419444;-0.28500
1422222;-0.30000
1425000;-0.30500
1427777;-0.30000
1430555;-0.29500
1433333;-0.29500
1436111;-0.28500
1438888;-0.29500
1441666;-0.28500
1444444;-0.26500
1447222;-0.27500
1450000;-0.28500
1452777;-0.29500
1455555;-0.29500
1458333;-0.30000
1461111;-0.30000
1463888;-0.30500
1466666;-0.30500
1469444;-0.32000
1472222;-0.32500
1475000;-0.32000
1477777;-0.30500
1480555;-0.31500
1483333;-0.32500
1486111;-0.33000
1488888;-0.33000
1491666;-0.32000
1494444;-0.30500
1497222;-0.34000
1500000;-0.37000
1502777;-0.41000
1505555;-0.44500
1508333;-0.47500
1511111;-0.49500
1513888;-0.49500
1516666;-0.41000
1519444;-0.28500
1522222;-0.12500
1525000;0.06000
1527777;0.32500
1530555;0.60000
1533333;0.79000
1536111;0.84000
1538888;0.71500
1541666;0.42000
1544444;0.03000
1547222;-0.33500
1550000;-0.51500
1552777;-0.51000
1555555;-0.44000
1558333;-0.38500
1561111;-0.35000
1563888;-0.36000
1566666;-0.36000
1569444;-0.36500
1572222;-0.36000
1575000;-0.35000
1577777;-0.34500
1580555;-0.35000
1583333;-0.35500
1586111;-0.36000
1588888;-0.38000
1591666;-0.36500
1594444;-0.36500
1597222;-0.36500
1600000;-0.37000
1602777;-0.38000
1605555;-0.37500
1608333;-0.36000
1611111;-0.35500
1613888;-0.36000
1616666;-0.37000
1619444;-0.39000
1622222;-0.38000
1625000;-0.38500
1627777;-0.37000
1630555;-0.37000
1633333;-0.36000
1636111;-0.38000
1638888;-0.38000
1641666;-0.36500
1644444;-0.36500
1647222;-0.36500
1650000;-0.37500
1652777;-0.38500
1655555;-0.38000
1658333;-0.38000
1661111;-0.37000
1663888;-0.38500
1666666;-0.38000
1669444;-0.38500
1672222;-0.38000
1675000;-0.37000
1677777;-0.36000
1680555;-0.36000
1683333;-0.37000
1686111;-0.37000
1688888;-0.38000
1691666;-0.36500
1694444;-0.35500
1697222;-0.37000
1700000;-0.37500
1702777;-0.39000
1705555;-0.38500
1708333;-0.38500
1711111;-0.38000
1713888;-0.37500
1716666;-0.37500
1719444;-0.39000
1722222;-0.38000
1725000;-0.36500
1727777;-0.36000
1730555;-0.37000
1733333;-0.37500
1736111;-0.38500
1738888;-0.39000
1741666;-0.38500
1744444;-0.38500
1747222;-0.38500
1750000;-0.38500
1752777;-0.39000
1755555;-0.39000
1758333;-0.38500
1761111;-0.37000
1763888;-0.38500
1766666;-0.40000
1769444;-0.40500
1772222;-0.41500
1775000;-0.40000
1777777;-0.39500
1780555;-0.40000
1783333;-0.40000
1786111;-0.40500
1788888;-0.40500
1791666;-0.40000
1794444;-0.38000
1797222;-0.38500
1799999;-0.39000
1802777;-0.40000
1805555;-0.41000
1808333;-0.40000
1811111;-0.37500
1813888;-0.39000
1816666;-0.37500
1819444;-0.37500
1822222;-0.36000
1824999;-0.34500
1827777;-0.32000
1830555;-0.32000
1833333;-0.32000
1836111;-0.32500
1838888;-0.32000
1841666;-0.31000
1844444;-0.30000
1847222;-0.30000
1849999;-0.29000
1852777;-0.31500
1855555;-0.32000
1858333;-0.30000
1861111;-0.28500
1863888;-0.28500
1866666;-0.29000
1869444;-0.29500
1872222;-0.31000
1874999;-0.31500
1877777;-0.31000
1880555;-0.30500
1883333;-0.30500
1886111;-0.31000
1888888;-0.32000
1891666;-0.31000
1894444;-0.30000
1897222;-0.30500
1899999;-0.30500
1902777;-0.31500
1905555;-0.31000
1908333;-0.30500
1911111;-0.30000
1913888;-0.30000
1916666;-0.31500
1919444;-0.32000
1922222;-0.33000
1924999;-0.32500
1927777;-0.31000
1930555;-0.31500
1933333;-0.33500
1936111;-0.34000
1938888;-0.34000
1941666;-0.32000
1944444;-0.30500
1947222;-0.31500
1949999;-0.33000
1952777;-0.34500
1955555;-0.35000
1958333;-0.35500
1961111;-0.34000
1963888;-0.33500
1966666;-0.35000
1969444;-0.35500
1972222;-0.36000
1974999;-0.34500
1977777;-0.33500
1980555;-0.34000
1983333;-0.33500
1986111;-0.34500
1988888;-0.35500
1991666;-0.36500
1994444;-0.35500
1997222;-0.35500
1999999;-0.34500
2002777;-0.35000
2005555;-0.35000
2008333;-0.35000
2011111;-0.34000
2013888;-0.34000
2016666;-0.35000
2019444;-0.36500
2022222;-0.36500
2024999;-0.36500
2027777;-0.35000
2030555;-0.35500
2033333;-0.36000
2036111;-0.35500
2038888;-0.33000
2041666;-0.31500
2044444;-0.30000
2047222;-0.30000
2049999;-0.31000
2052777;-0.31000
2055555;-0.31000
2058333;-0.29500
2061111;-0.27500
2063888;-0.27000
2066666;-0.26500
2069444;-0.26500
2072222;-0.25500
2074999;-0.24500
2077777;-0.24000
2080555;-0.24500
2083333;-0.24500
2086111;-0.25500
2088888;-0.24500
2091666;-0.24500
2094444;-0.24000
2097222;-0.24000
2099999;-0.24500
2102777;-0.24500
2105555;-0.25000
2108333;-0.24000
2111111;-0.23500
2113888;-0.22500
2116666;-0.22500
2119444;-0.21000
2122222;-0.22000
2124999;-0.22500
2127777;-0.25000
2130555;-0.25500
2133333;-0.29000
2136111;-0.30000
2138888;-0.33000
2141666;-0.34500
2144444;-0.37000
2147222;-0.37500
2149999;-0.38000
2152777;-0.38000
2155555;-0.39000
2158333;-0.36500
2161111;-0.36000
2163888;-0.35500
2166666;-0.35500
2169444;-0.37500
2172222;-0.40000
2174999;-0.40000
2177777;-0.39000
2180555;-0.37000
2183333;-0.38000
2186110;-0.39500
2188888;-0.39500
2191666;-0.38500
2194444;-0.37500
2197222;-0.38000
2199999;-0.38500
2202777;-0.40500
2205555;-0.41500
2208333;-0.44000
2211110;-0.47000
2213888;-0.49000
2216666;-0.52000
2219444;-0.57000
2222222;-0.58500
2224999;-0.52500
2227777;-0.39500
2230555;-0.24500
2233333;-0.08000
2236110;0.15000
2238888;0.45000
2241666;0.72500
2244444;0.93000
2247222;1.00000
2249999;0.90000
2252777;0.63000
2255555;0.22500
2258333;-0.14500
2261110;-0.38500
2263888;-0.48500
2266666;-0.55500
2269444;-0.55500
2272222;-0.52000
2274999;-0.45500
2277777;-0.43000
2280555;-0.43000
2283333;-0.42500
2286110;-0.44500
2288888;-0.45000
2291666;-0.43500
2294444;-0.44500
2297222;-0.44500
2299999;-0.45500
2302777;-0.45500
2305555;-0.43500
2308333;-0.42500
2311110;-0.41000
2313888;-0.40500
2316666;-0.42500
2319444;-0.43500
2322222;-0.44500
2324999;-0.43000
2327777;-0.43500
2330555;-0.43500
2333333;-0.44000
2336110;-0.45000
2338888;-0.46000
2341666;-0.45500
2344444;-0.45000
2347222;-0.43500
2349999;-0.44000
2352777;-0.46500
2355555;-0.46000
2358333;-0.43500
2361110;-0.45000
2363888;-0.45500
2366666;-0.45000
2369444;-0.46000
2372222;-0.46500
2374999;-0.46000
2377777;-0.43500
2380555;-0.44000
2383333;-0.45000
2386110;-0.46500
2388888;-0.47000
2391666;-0.47500
2394444;-0.47000
2397222;-0.45500
2399999;-0.44500
2402777;-0.45500
2405555;-0.44500
2408333;-0.43500
2411110;-0.44000
2413888;-0.44000
2416666;-0.44000
2419444;-0.45500
2422222;-0.47500
2424999;-0.46000
2427777;-0.45500
2430555;-0.45000
2433333;-0.46500
2436110;-0.47000
2438888;-0.47000
2441666;-0.47000
2444444;-0.46000
2447222;-0.47000
2449999;-0.47000
2452777;-0.48000
2455555;-0.49000
2458333;-0.46500
2461110;-0.47000
2463888;-0.47000
2466666;-0.48000
2469444;-0.48500
2472222;-0.49500
2474999;-0.49500
2477777;-0.49000
2480555;-0.49000
2483333;-0.50500
2486110;-0.50500
2488888;-0.49500
2491666;-0.51000
2494444;-0.49500
2497222;-0.50500
2499999;-0.51500
2502777;-0.52000
2505555;-0.52000
2508333;-0.50500
2511110;-0.49500
2513888;-0.48500
2516666;-0.48500
2519444;-0.49500
2522222;-0.47500
2524999;-0.45000
2527777;-0.43000
2530555;-0.40000
2533333;-0.40500
2536110;-0.40500
2538888;-0.41000
2541666;-0.37500
2544444;-0.35000
2547222;-0.34500
2549999;-0.33500
2552777;-0.33500
2555555;-0.32500
2558333;-0.31500
2561110;-0.31000
2563888;-0.30500
2566666;-0.31000
2569444;-0.32000
2572222;-0.31500
2574999;-0.29500
2577777;-0.29500
2580555;-0.28500
2583333;-0.29000
2586110;-0.32000
2588888;-0.32000
2591666;-0.32000
2594444;-0.31000
2597221;-0.31000
2599999;-0.30500
2602777;-0.31000
2605555;-0.32000
2608333;-0.31000
2611110;-0.30000
2613888;-0.30000
2616666;-0.32000
2619444;-0.31500
2622221;-0.32000
2624999;-0.31500
2627777;-0.30000
2630555;-0.29000
2633333;-0.30500
2636110;-0.31000
2638888;-0.32000
2641666;-0.30500
2644444;-0.29500
2647221;-0.29000
2649999;-0.29500
2652777;-0.31500
2655555;-0.31500
2658333;-0.31500
2661110;-0.30500
2663888;-0.31000
2666666;-0.32000
2669444;-0.32000
2672221;-0.33000
2674999;-0.32000
2677777;-0.31000
2680555;-0.32000
2683333;-0.34500
2686110;-0.34000
2688888;-0.33500
2691666;-0.32000
2694444;-0.32500
2697221;-0.31500
2699999;-0.33000
2702777;-0.34000
2705555;-0.33500
2708333;-0.33500
2711110;-0.31500
2713888;-0.31000
2716666;-0.32000
2719444;-0.33000
2722221;-0.34000
2724999;-0.33500
2727777;-0.32000
2730555;-0.32500
2733333;-0.32000
2736110;-0.32500
2738888;-0.33000
2741666;-0.32500
2744444;-0.30500
2747221;-0.31000
2749999;-0.31000
2752777;-0.31000
2755555;-0.30000
2758333;-0.28500
2761110;-0.27500
2763888;-0.27500
2766666;-0.27000
2769444;-0.27500
2772221;-0.26000
2774999;-0.25000
2777777;-0.23000
2780555;-0.23000
2783333;-0.23500
2786110;-0.23000
2788888;-0.22500
2791666;-0.19500
2794444;-0.18500
2797221;-0.19000
2799999;-0.19000
2802777;-0.20000
2805555;-0.21000
2808333;-0.21500
2811110;-0.21000
2813888;-0.20000
2816666;-0.20500
2819444;-0.20500
2822221;-0.21500
2824999;-0.20000
2827777;-0.15500
2830555;-0.15500
2833333;-0.17500
2836110;-0.21000
2838888;-0.24500
2841666;-0.25500
2844444;-0.25000
2847221;-0.26000
2849999;-0.29000
2852777;-0.31000
2855555;-0.32000
2858333;-0.32000
2861110;-0.31500
2863888;-0.31500
2866666;-0.32000
2869444;-0.32000
2872221;-0.34000
2874999;-0.32000
2877777;-0.31000
2880555;-0.31500
2883333;-0.33000
2886110;-0.34500
2888888;-0.33000
2891666;-0.32500
2894444;-0.32000
2897221;-0.31500
2899999;-0.32500
2902777;-0.33500
2905555;-0.34500
2908333;-0.34000
2911110;-0.33000
2913888;-0.32500
2916666;-0.33500
2919444;-0.33500
2922221;-0.34500
2924999;-0.33500
2927777;-0.35500
2930555;-0.37500
2933333;-0.42500
2936110;-0.45000
2938888;-0.46500
2941666;-0.50500
2944444;-0.51000
2947221;-0.50500
2949999;-0.39500
2952777;-0.25500
2955555;-0.08500
2958333;0.12000
2961110;0.36500
2963888;0.66000
2966666;0.88500
2969444;1.00500
2972221;0.97500
2974999;0.74500
2977777;0.32500
2980555;-0.14000
2983332;-0.44500
2986110;-0.52000
2988888;-0.46500
2991666;-0.38500
2994444;-0.34500
2997221;-0.36000
2999999;-0.37500
3002777;-0.38000
3005555;-0.38000
3008332;-0.37000
3011110;-0.36500
3013888;-0.36500
3016666;-0.39000
3019444;-0.39000
3022221;-0.39000
3024999;-0.38000
3027777;-0.37000
3030555;-0.38500
3033332;-0.39000
3036110;-0.39000
3038888;-0.38500
3041666;-0.37500
3044444;-0.38000
3047221;-0.38000
3049999;-0.39000
3052777;-0.38500
3055555;-0.39500
3058332;-0.38000
3061110;-0.36500
3063888;-0.37000
3066666;-0.37000
3069444;-0.38000
3072221;-0.38000
3074999;-0.38500
3077777;-0.36500
3080555;-0.38000
3083332;-0.38500
3086110;-0.40000
3088888;-0.39500
3091666;-0.37500
3094444;-0.37000
3097221;-0.37000
3099999;-0.37500
3102777;-0.38500
3105555;-0.37500
3108332;-0.38000
3111110;-0.36000
3113888;-0.36500
3116666;-0.37000
3119444;-0.37000
3122221;-0.38500
3124999;-0.38000
3127777;-0.36500
3130555;-0.35000
3133332;-0.36500
3136110;-0.38000
3138888;-0.38500
3141666;-0.37500
3144444;-0.35500
3147221;-0.35500
3149999;-0.36500
3152777;-0.38000
3155555;-0.39000
3158332;-0.39500
3161110;-0.36500
3163888;-0.36000
3166666;-0.37000
3169444;-0.38500
3172221;-0.38000
3174999;-0.38500
3177777;-0.37000
3180555;-0.37500
3183332;-0.38500
3186110;-0.39500
3188888;-0.40000
3191666;-0.37500
3194444;-0.36500
3197221;-0.37500
3199999;-0.37500
3202777;-0.38000
3205555;-0.40000
3208332;-0.37500
3211110;-0.37000
3213888;-0.37000
3216666;-0.37500
3219444;-0.38000
3222221;-0.38500
3224999;-0.37500
3227777;-0.36500
3230555;-0.36500
3233332;-0.36500
3236110;-0.38000
3238888;-0.38000
3241666;-0.35000
3244444;-0.32500
3247221;-0.32500
3249999;-0.31500
3252777;-0.32000
3255555;-0.31500
3258332;-0.29000
3261110;-0.27500
3263888;-0.27000
3266666;-0.28000
3269444;-0.27000
3272221;-0.26000
3274999;-0.25500
3277777;-0.24000
3280555;-0.24000
3283332;-0.25000
3286110;-0.25500
3288888;-0.26000
3291666;-0.24000
3294444;-0.24500
3297221;-0.24500
3299999;-0.25000
3302777;-0.25500
3305555;-0.25000
3308332;-0.25000
3311110;-0.25000
3313888;-0.24000
3316666;-0.24500
3319444;-0.25000
3322221;-0.26000
3324999;-0.25000
3327777;-0.24500
3330555;-0.24500
3333332;-0.25000
3336110;-0.25500
3338888;-0.27500
3341666;-0.24000
3344444;-0.23000
3347221;-0.24000
3349999;-0.24000
3352777;-0.25500
3355555;-0.26000
3358332;-0.24000
3361110;-0.25000
3363888;-0.25500
3366666;-0.26500
3369444;-0.28000
3372221;-0.27500
3374999;-0.26500
3377777;-0.25500
3380555;-0.26500
3383332;-0.27500
3386110;-0.29500
3388888;-0.28500
3391666;-0.27000
3394443;-0.26500
3397221;-0.27000
3399999;-0.27000
3402777;-0.27500
3405555;-0.28500
3408332;-0.26500
3411110;-0.26500
3413888;-0.25500
3416666;-0.26500
3419443;-0.27500
3422221;-0.28500
3424999;-0.27000
3427777;-0.26500
3430555;-0.27000
3433332;-0.27000
3436110;-0.27000
3438888;-0.27500
3441666;-0.24500
3444443;-0.23500
3447221;-0.22500
3449999;-0.22500
3452777;-0.22500
3455555;-0.21000
3458332;-0.19500
3461110;-0.19000
3463888;-0.18000
3466666;-0.17000
3469443;-0.18500
3472221;-0.17500
3474999;-0.16000
3477777;-0.13500
3480555;-0.14000
3483332;-0.15000
3486110;-0.15000
3488888;-0.15500
3491666;-0.14500
3494443;-0.16000
3497221;-0.15500
3499999;-0.17000
3502777;-0.17500
3505555;-0.19500
3508332;-0.18000
3511110;-0.16000
3513888;-0.15500
3516666;-0.16500
3519443;-0.16500
3522221;-0.16000
3524999;-0.14500
3527777;-0.11000
3530555;-0.10500
3533332;-0.14500
3536110;-0.19500
3538888;-0.21000
3541666;-0.22000
3544443;-0.20500
3547221;-0.22000
3549999;-0.25000
3552777;-0.26500
3555555;-0.28000
3558332;-0.27500
3561110;-0.28000
3563888;-0.27500
3566666;-0.27000
3569443;-0.29000
3572221;-0.29000
3574999;-0.29000
3577777;-0.29000
3580555;-0.30500
3583332;-0.30500
3586110;-0.30000
3588888;-0.31000
3591666;-0.30000
3594443;-0.29500
3597221;-0.29500
3599999;-0.29500
3602777;-0.30500
3605555;-0.31000
3608332;-0.30500
3611110;-0.29500
3613888;-0.29500
3616666;-0.31000
3619443;-0.31000
3622221;-0.32500
3624999;-0.34000
3627777;-0.37500
3630555;-0.40000
3633332;-0.42500
3636110;-0.47000
3638888;-0.51000
3641666;-0.51000
3644443;-0.44500
3647221;-0.33000
3649999;-0.22000
3652777;-0.13000
3655555;-0.02000
3658332;0.13500
3661110;0.37000
3663888;0.63500
3666666;0.82000
3669443;0.94500
3672221;0.95500
3674999;0.80500
3677777;0.49000
3680555;0.07000
3683332;-0.28000
3686110;-0.45000
3688888;-0.46500
3691666;-0.39500
3694443;-0.33000
3697221;-0.31500
3699999;-0.32000
3702777;-0.33500
3705555;-0.33500
3708332;-0.33000
3711110;-0.31500
3713888;-0.32000
3716666;-0.33500
3719443;-0.35500
3722221;-0.35000
3724999;-0.34000
3727777;-0.33000
3730555;-0.33500
3733332;-0.33000
3736110;-0.34000
3738888;-0.34000
3741666;-0.34500
3744443;-0.32000
3747221;-0.32000
3749999;-0.34000
3752777;-0.33500
3755555;-0.34500
3758332;-0.34000
3761110;-0.32000
3763888;-0.33000
3766666;-0.33000
3769443;-0.34500
3772221;-0.35000
3774999;-0.35000
3777777;-0.33000
3780554;-0.33500
3783332;-0.34500
3786110;-0.35500
3788888;-0.35500
3791666;-0.35500
3794443;-0.35000
3797221;-0.33500
3799999;-0.34000
3802777;-0.34500
3805554;-0.34000
3808332;-0.34500
3811110;-0.34000
3813888;-0.34000
3816666;-0.34000
3819443;-0.34000
3822221;-0.33500
3824999;-0.34000
3827777;-0.33000
3830554;-0.33500
3833332;-0.33500
3836110;-0.35500
3838888;-0.35000
3841666;-0.33500
3844443;-0.32000
3847221;-0.33000
3849999;-0.34000
3852777;-0.34500
3855554;-0.34000
3858332;-0.33000
3861110;-0.32500
3863888;-0.32000
3866666;-0.33000
3869443;-0.34000
3872221;-0.34000
3874999;-0.32500
3877777;-0.33000
3880554;-0.33500
3883332;-0.33000
3886110;-0.34500
3888888;-0.35000
3891666;-0.34000
3894443;-0.33500
3897221;-0.32500
3899999;-0.33500
3902777;-0.35000
3905554;-0.34000
3908332;-0.34000
3911110;-0.33000
3913888;-0.33500
3916666;-0.33500
3919443;-0.35000
3922221;-0.35500
3924999;-0.33500
3927777;-0.32500
3930554;-0.33500
3933332;-0.35000
3936110;-0.35000
3938888;-0.35500
3941666;-0.33500
3944443;-0.33000
3947221;-0.32000
3949999;-0.31500
3952777;-0.32000
3955554;-0.31500
3958332;-0.30000
3961110;-0.27000
3963888;-0.28000
3966666;-0.27500
3969443;-0.28500
3972221;-0.28500
3974999;-0.26500
3977777;-0.26000
3980554;-0.25000
3983332;-0.25000
3986110;-0.26000
3988888;-0.26500
3991666;-0.25000
3994443;-0.23500
3997221;-0.24500
3999999;-0.25000
4002777;-0.26500
4005554;-0.26500
4008332;-0.26500
4011110;-0.25500
4013888;-0.26500
4016666;-0.26500
4019443;-0.27000
4022221;-0.27000
4024999;-0.27000
4027777;-0.25500
4030554;-0.26500
4033332;-0.27000
4036110;-0.27000
4038888;-0.27500
4041666;-0.26500
4044443;-0.26000
4047221;-0.26000
4049999;-0.27000
4052777;-0.26500
4055554;-0.28000
4058332;-0.27500
4061110;-0.25500
4063888;-0.27000
4066666;-0.28000
4069443;-0.29000
4072221;-0.29500
4074999;-0.28000
4077777;-0.27500
4080554;-0.28000
4083332;-0.28500
4086110;-0.29000
4088888;-0.29500
4091666;-0.28000
4094443;-0.27500
4097221;-0.27000
4099999;-0.28500
4102777;-0.28000
4105554;-0.29000
4108332;-0.29500
4111110;-0.28000
4113888;-0.29500
4116666;-0.29000
4119443;-0.29500
4122221;-0.30000
4124999;-0.30000
4127777;-0.29000
4130554;-0.28500
4133332;-0.30500
4136110;-0.33000
4138888;-0.31000
4141666;-0.30000
4144443;-0.29500
4147221;-0.29500
4149999;-0.29500
4152777;-0.30500
4155554;-0.31500
4158332;-0.30000
4161110;-0.30000
4163888;-0.29000
4166666;-0.29500
4169443;-0.28500
4172221;-0.27500
4174999;-0.27000
4177777;-0.24500
4180554;-0.24000
4183332;-0.24000
4186110;-0.24000
4188888;-0.24000
4191665;-0.23500
4194443;-0.22000
4197221;-0.22000
4199999;-0.22000
4202777;-0.21500
4205554;-0.21000
4208332;-0.19500
4211110;-0.18000
4213888;-0.17500
4216665;-0.18500
4219443;-0.19500
4222221;-0.21000
4224999;-0.21000
4227777;-0.19000
4230554;-0.19000
4233332;-0.18500
4236110;-0.18500
4238888;-0.19000
4241665;-0.16500
4244443;-0.14000
4247221;-0.12500
4249999;-0.13500
4252777;-0.15500
4255554;-0.19500
4258332;-0.21500
4261110;-0.22500
4263888;-0.23500
4266665;-0.25000
4269443;-0.28000
4272221;-0.30000
4274999;-0.31000
4277777;-0.30000
4280554;-0.32000
4283332;-0.32500
4286110;-0.33500
4288888;-0.33500
4291665;-0.32500
4294443;-0.30500
4297221;-0.31500
4299999;-0.32500
4302777;-0.34000
4305554;-0.34000
4308332;-0.33000
4311110;-0.31500
4313888;-0.32500
4316665;-0.34000
4319443;-0.34500
4322221;-0.35000
4324999;-0.35500
4327777;-0.35000
4330554;-0.35500
4333332;-0.35000
4336110;-0.35500
4338888;-0.36500
4341665;-0.35500
4344443;-0.34000
4347221;-0.35500
4349999;-0.39500
4352777;-0.43500
4355554;-0.46500
4358332;-0.47000
4361110;-0.49000
4363888;-0.52500
4366665;-0.52000
4369443;-0.44500
4372221;-0.32500
4374999;-0.18000
4377777;-0.02500
4380554;0.20500
4383332;0.47000
4386110;0.67500
4388888;0.81500
4391665;0.85500
4394443;0.71500
4397221;0.39000
4399999;-0.01500
4402777;-0.34500
4405554;-0.52000
4408332;-0.53500
4411110;-0.46500
4413888;-0.40500
4416665;-0.38500
4419443;-0.39500
4422221;-0.39000
4424999;-0.39500
4427777;-0.37000
4430554;-0.37000
4433332;-0.37000
4436110;-0.37000
4438888;-0.39000
4441665;-0.36500
4444443;-0.36500
4447221;-0.37500
4449999;-0.38500
4452777;-0.39500
4455554;-0.40500
4458332;-0.41000
4461110;-0.39500
4463888;-0.39500
4466665;-0.40000
4469443;-0.39500
4472221;-0.40000
4474999;-0.39000
4477777;-0.38500
4480554;-0.40000
4483332;-0.40500
4486110;-0.42500
4488888;-0.42000
4491665;-0.41000
4494443;-0.41000
4497221;-0.40000
4499999;-0.40500
4502777;-0.40500
4505554;-0.41500
4508332;-0.40000
4511110;-0.39000
4513888;-0.40000
4516665;-0.40500
4519443;-0.40500
4522221;-0.40500
4524999;-0.39500
4527777;-0.40000
4530554;-0.40000
4533332;-0.41000
4536110;-0.41000
4538888;-0.41500
4541665;-0.40500
4544443;-0.39000
4547221;-0.39500
4549999;-0.41000
4552777;-0.42000
4555554;-0.41000
4558332;-0.41000
4561110;-0.42000
4563888;-0.41000
4566665;-0.41500
4569443;-0.42500
4572221;-0.42500
4574999;-0.42500
4577776;-0.41500
4580554;-0.42000
4583332;-0.41500
4586110;-0.42500
4588888;-0.41500
4591665;-0.41000
4594443;-0.41000
4597221;-0.40500
4599999;-0.40500
4602776;-0.41000
4605554;-0.41000
4608332;-0.41000
4611110;-0.39500
4613888;-0.40000
4616665;-0.41000
4619443;-0.41500
4622221;-0.41000
4624999;-0.41000
4627776;-0.39500
4630554;-0.40500
4633332;-0.41000
4636110;-0.41500
4638888;-0.42000
4641665;-0.42500
4644443;-0.41500
4647221;-0.41500
4649999;-0.40500
4652776;-0.42500
4655554;-0.44000
4658332;-0.43500
4661110;-0.42000
4663888;-0.42500
4666665;-0.42500
4669443;-0.43000
4672221;-0.43500
4674999;-0.42500
4677776;-0.43500
4680554;-0.43500
4683332;-0.43000
4686110;-0.42500
4688888;-0.41000
4691665;-0.39500
4694443;-0.38000
4697221;-0.38000
4699999;-0.38000
4702776;-0.39000
4705554;-0.37500
4708332;-0.35500
4711110;-0.34500
4713888;-0.34500
4716665;-0.34000
4719443;-0.34000
4722221;-0.34000
4724999;-0.33500
4727776;-0.32500
4730554;-0.32500
4733332;-0.33500
4736110;-0.34000
4738888;-0.36000
4741665;-0.34500
4744443;-0.33000
4747221;-0.32500
4749999;-0.32000
4752776;-0.33500
4755554;-0.34000
4758332;-0.34000
4761110;-0.33000
4763888;-0.32500
4766665;-0.33000
4769443;-0.34000
4772221;-0.35000
4774999;-0.34500
4777776;-0.34500
4780554;-0.33500
4783332;-0.35500
4786110;-0.36000
4788888;-0.35500
4791665;-0.35500
4794443;-0.33500
4797221;-0.33500
4799999;-0.34000
4802776;-0.37500
4805554;-0.38500
4808332;-0.37500
4811110;-0.36000
4813888;-0.36000
4816665;-0.36500
4819443;-0.37500
4822221;-0.37500
4824999;-0.36500
4827776;-0.35000
4830554;-0.35500
4833332;-0.36500
4836110;-0.37500
4838888;-0.38500
4841665;-0.37500
4844443;-0.36500
4847221;-0.37000
4849999;-0.37500
4852776;-0.38500
4855554;-0.39000
4858332;-0.38500
4861110;-0.37000
4863888;-0.38500
4866665;-0.38500
4869443;-0.40000
4872221;-0.39500
4874999;-0.38500
4877776;-0.38000
4880554;-0.39000
4883332;-0.41000
4886110;-0.41500
4888888;-0.41000
4891665;-0.40000
4894443;-0.39500
4897221;-0.40000
4899999;-0.39500
4902776;-0.39500
4905554;-0.39000
4908332;-0.37000
4911110;-0.34000
4913888;-0.34000
4916665;-0.35000
4919443;-0.36000
4922221;-0.35000
4924999;-0.35000
4927776;-0.34000
4930554;-0.33500
4933332;-0.32500
4936110;-0.34500
4938888;-0.33500
4941665;-0.31000
4944443;-0.29500
4947221;-0.29000
4949999;-0.29000
4952776;-0.28500
4955554;-0.29500
4958332;-0.28000
4961110;-0.27500
4963887;-0.28500
4966665;-0.30000
4969443;-0.29000
4972221;-0.29500
4974999;-0.28000
4977776;-0.28000
4980554;-0.27000
4983332;-0.27000
4986110;-0.26000
4988887;-0.24500
4991665;-0.25500
4994443;-0.30500
4997221;-0.33000
4999999;-0.35000
5002776;-0.36000
5005554;-0.37500
5008332;-0.39500
5011110;-0.40000
5013887;-0.40500
5016665;-0.43500
5019443;-0.45000
5022221;-0.44000
5024999;-0.42000
5027776;-0.42000
5030554;-0.41500
5033332;-0.40500
5036110;-0.40500
5038887;-0.41500
5041665;-0.42500
5044443;-0.41000
5047221;-0.41500
5049999;-0.43500
5052776;-0.43000
5055554;-0.43500
5058332;-0.42000
5061110;-0.42000
5063887;-0.41500
5066665;-0.43000
5069443;-0.44500
5072221;-0.44000
5074999;-0.43500
5077776;-0.41500
5080554;-0.44000
5083332;-0.45000
5086110;-0.45500
5088887;-0.50500
5091665;-0.52500
5094443;-0.53500
5097221;-0.55000
5099999;-0.58500
5102776;-0.63000
5105554;-0.60500
5108332;-0.51500
5111110;-0.38000
5113887;-0.26500
5116665;-0.11000
5119443;0.08000
5122221;0.34000
5124999;0.62000
5127776;0.83000
5130554;0.97000
5133332;1.01500
5136110;0.97000
5138887;0.76000
5141665;0.48500
5144443;0.21500
5147221;-0.05000
5149999;-0.26500
5152776;-0.41000
5155554;-0.54000
5158332;-0.59500
5161110;-0.61500
5163887;-0.60000
5166665;-0.54000
5169443;-0.51500
5172221;-0.49500
5174999;-0.49500
5177776;-0.48500
5180554;-0.48000
5183332;-0.47500
5186110;-0.47500
5188887;-0.49000
5191665;-0.48500
5194443;-0.47500
5197221;-0.47500
5199999;-0.48500
5202776;-0.49500
5205554;-0.50500
5208332;-0.50000
5211110;-0.47500
5213887;-0.47000
5216665;-0.49000
5219443;-0.49000
5222221;-0.48000
5224999;-0.48000
5227776;-0.47000
5230554;-0.48000
5233332;-0.49500
5236110;-0.50500
5238887;-0.50000
5241665;-0.48500
5244443;-0.47000
5247221;-0.47000
5249999;-0.47500
5252776;-0.49000
5255554;-0.50000
5258332;-0.50000
5261110;-0.49500
5263887;-0.50000
5266665;-0.49500
5269443;-0.50000
5272221;-0.50500
5274999;-0.49000
5277776;-0.49000
5280554;-0.48500
5283332;-0.49500
5286110;-0.49000
5288887;-0.49500
5291665;-0.48500
5294443;-0.49000
5297221;-0.48500
5299999;-0.48500
5302776;-0.49000
5305554;-0.50000
5308332;-0.48500
5311110;-0.47500
5313887;-0.48500
5316665;-0.49000
5319443;-0.49500
5322221;-0.49500
5324999;-0.48000
5327776;-0.47500
5330554;-0.48500
5333332;-0.50000
5336110;-0.50500
5338887;-0.50500
5341665;-0.49000
5344443;-0.49500
5347221;-0.49500
5349999;-0.51500
5352776;-0.51500
5355554;-0.50500
5358332;-0.50500
5361110;-0.49500
5363887;-0.50500
5366665;-0.52000
5369443;-0.53500
5372221;-0.54500
5374998;-0.54500
5377776;-0.54500
5380554;-0.53000
5383332;-0.54500
5386110;-0.54000
5388887;-0.55000
5391665;-0.55500
5394443;-0.55000
5397221;-0.54000
5399998;-0.55000
5402776;-0.56500
5405554;-0.58000
5408332;-0.57000
5411110;-0.57000
5413887;-0.56500
5416665;-0.56000
5419443;-0.56500
5422221;-0.55500
5424998;-0.54000
5427776;-0.52000
5430554;-0.50500
5433332;-0.49500
5436110;-0.48000
5438887;-0.48500
5441665;-0.46000
5444443;-0.44000
5447221;-0.43000
5449998;-0.43000
5452776;-0.44500
5455554;-0.43000
5458332;-0.39500
5461110;-0.38500
5463887;-0.36500
5466665;-0.37500
5469443;-0.37500
5472221;-0.37500
5474998;-0.36500
5477776;-0.36000
5480554;-0.35500
5483332;-0.36000
5486110;-0.37000
5488887;-0.37500
5491665;-0.37000
5494443;-0.36500
5497221;-0.35500
5499998;-0.36500
5502776;-0.37000
5505554;-0.36500
5508332;-0.35000
5511110;-0.34500
5513887;-0.34500
5516665;-0.35500
5519443;-0.36000
5522221;-0.38000
5524998;-0.35500
5527776;-0.33000
5530554;-0.33500
5533332;-0.34000
5536110;-0.35500
5538887;-0.36500
5541665;-0.36000
5544443;-0.35000
5547221;-0.35000
5549998;-0.36000
5552776;-0.37000
5555554;-0.37000
5558332;-0.35500
5561110;-0.35000
5563887;-0.35000
5566665;-0.36500
5569443;-0.36500
5572221;-0.36500
5574998;-0.36000
5577776;-0.35000
5580554;-0.35000
5583332;-0.37500
5586110;-0.38500
5588887;-0.39500
5591665;-0.38000
5594443;-0.37500
5597221;-0.38000
5599998;-0.38500
5602776;-0.39000
5605554;-0.40000
5608332;-0.39000
5611110;-0.38000
5613887;-0.39000
5616665;-0.39500
5619443;-0.40000
5622221;-0.40000
5624998;-0.38500
5627776;-0.37500
5630554;-0.38000
5633332;-0.39000
5636110;-0.39500
5638887;-0.39500
5641665;-0.38500
5644443;-0.38000
5647221;-0.38500
5649998;-0.38500
5652776;-0.39500
5655554;-0.40000
5658332;-0.38000
5661110;-0.36500
5663887;-0.36000
5666665;-0.36000
5669443;-0.35000
5672221;-0.35500
5674998;-0.33500
5677776;-0.31500
5680554;-0.31500
5683332;-0.32000
5686110;-0.32000
5688887;-0.31500
5691665;-0.30000
5694443;-0.28000
5697221;-0.28000
5699998;-0.27000
5702776;-0.27500
5705554;-0.25500
5708332;-0.25500
5711110;-0.24500
5713887;-0.24500
5716665;-0.25000
5719443;-0.27500
5722221;-0.29500
5724998;-0.27000
5727776;-0.26000
5730554;-0.25000
5733332;-0.25000
5736110;-0.26000
5738887;-0.26000
5741665;-0.23000
5744443;-0.20500
5747221;-0.20000
5749998;-0.22000
5752776;-0.27000
5755554;-0.30000
5758332;-0.30500
5761109;-0.30500
5763887;-0.30500
5766665;-0.33000
5769443;-0.34500
5772221;-0.36500
5774998;-0.35500
5777776;-0.37000
5780554;-0.38000
5783332;-0.39500
5786109;-0.39500
5788887;-0.39500
5791665;-0.39000
5794443;-0.39500
5797221;-0.40000
5799998;-0.40500
5802776;-0.40000
5805554;-0.41500
5808332;-0.40500
5811109;-0.39500
5813887;-0.40500
5816665;-0.41000
5819443;-0.42500
5822221;-0.42500
5824998;-0.41500
5827776;-0.40000
5830554;-0.40000
5833332;-0.40000
5836109;-0.41500
5838887;-0.40000
5841665;-0.39500
5844443;-0.40000
5847221;-0.39000
5849998;-0.40000
5852776;-0.42500
5855554;-0.45000
5858332;-0.48500
5861109;-0.51500
5863887;-0.53000
5866665;-0.54500
5869443;-0.57500
5872221;-0.60000
5874998;-0.56000
5877776;-0.43000
5880554;-0.27000
5883332;-0.11000
5886109;0.07500
5888887;0.33500
5891665;0.62500
5894443;0.85000
5897221;0.97000
5899998;0.96500
5902776;0.76000
5905554;0.36000
5908332;-0.10000
5911109;-0.40500
5913887;-0.53500
5916665;-0.54000
5919443;-0.48500
5922221;-0.44000
5924998;-0.42000
5927776;-0.41500
5930554;-0.43000
5933332;-0.43000
5936109;-0.43500
5938887;-0.44000
5941665;-0.43000
5944443;-0.42500
5947221;-0.43000
5949998;-0.44000
5952776;-0.44000
5955554;-0.45500
5958332;-0.43500
5961109;-0.43000
5963887;-0.44000
5966665;-0.43500
5969443;-0.44000
5972221;-0.44500
5974998;-0.44000
5977776;-0.44000
5980554;-0.42000
5983332;-0.43500
5986109;-0.43500
5988887;-0.44000
5991665;-0.43500
5994443;-0.42500
5997221;-0.41500
5999998;-0.42500
6002776;-0.44500
6005554;-0.44000
6008332;-0.43500
6011109;-0.42000
6013887;-0.43000
6016665;-0.42500
6019443;-0.44000
6022221;-0.44000
6024998;-0.44000
6027776;-0.43500
6030554;-0.43500
6033332;-0.43000
6036109;-0.44500
6038887;-0.45000
6041665;-0.43000
6044443;-0.42500
6047221;-0.42000
6049998;-0.43000
6052776;-0.43500
6055554;-0.44000
6058332;-0.43000
6061109;-0.42000
6063887;-0.42000
6066665;-0.43500
6069443;-0.44500
6072221;-0.43000
6074998;-0.43500
6077776;-0.42000
6080554;-0.41000
6083332;-0.43000
6086109;-0.42500
6088887;-0.44500
6091665;-0.41500
6094443;-0.41000
6097221;-0.41000
6099998;-0.42000
6102776;-0.43000
6105554;-0.42500
6108332;-0.42000
6111109;-0.41000
6113887;-0.41000
6116665;-0.42000
6119443;-0.43500
6122221;-0.43500
6124998;-0.42500
6127776;-0.41500
6130554;-0.42500
6133332;-0.44000
6136109;-0.45000
6138887;-0.45500
6141665;-0.44000
6144443;-0.43000
6147221;-0.44000
6149998;-0.44000
6152776;-0.45000
6155554;-0.45000
6158332;-0.43000
6161109;-0.42000
6163887;-0.42000
6166665;-0.43000
6169443;-0.43000
6172220;-0.44000
6174998;-0.41500
6177776;-0.40500
6180554;-0.40500
6183332;-0.40000
6186109;-0.40000
6188887;-0.38500
6191665;-0.36500
6194443;-0.35500
6197220;-0.34500
6199998;-0.34000
6202776;-0.34500
6205554;-0.35000
6208332;-0.33500
6211109;-0.31500
6213887;-0.32000
6216665;-0.31000
6219443;-0.32500
6222220;-0.32500
6224998;-0.31500
6227776;-0.30500
6230554;-0.31000
6233332;-0.31500
6236109;-0.32500
6238887;-0.32000
6241665;-0.30500
6244443;-0.30500
6247220;-0.30500
6249998;-0.31000
6252776;-0.31000
6255554;-0.31000
6258332;-0.31000
6261109;-0.30000
6263887;-0.30000
6266665;-0.30000
6269443;-0.30000
6272220;-0.31000
6274998;-0.31000
6277776;-0.29500
6280554;-0.30000
6283332;-0.31500
6286109;-0.32000
6288887;-0.32500
6291665;-0.31500
6294443;-0.31500
6297220;-0.31500
6299998;-0.32000
6302776;-0.33000
6305554;-0.34000
6308332;-0.33500
6311109;-0.32000
6313887;-0.32000
6316665;-0.33000
6319443;-0.33500
6322220;-0.34000
6324998;-0.33500
6327776;-0.33000
6330554;-0.32500
6333332;-0.34000
6336109;-0.34500
6338887;-0.35000
6341665;-0.34500
6344443;-0.33500
6347220;-0.33000
6349998;-0.34500
6352776;-0.34500
6355554;-0.35000
6358332;-0.34500
6361109;-0.33500
6363887;-0.33500
6366665;-0.34000
6369443;-0.35500
6372220;-0.35500
6374998;-0.34500
6377776;-0.34000
6380554;-0.34500
6383332;-0.34500
6386109;-0.35500
6388887;-0.33500
6391665;-0.33000
6394443;-0.31500
6397220;-0.29500
6399998;-0.29500
6402776;-0.30000
6405554;-0.28500
6408332;-0.27500
6411109;-0.25500
6413887;-0.24500
6416665;-0.25000
6419443;-0.24500
6422220;-0.25000
6424998;-0.25000
6427776;-0.22000
6430554;-0.22500
6433332;-0.23000
6436109;-0.21500
6438887;-0.23000
6441665;-0.22000
6444443;-0.21500
6447220;-0.22000
6449998;-0.22500
6452776;-0.24000
6455554;-0.24000
6458332;-0.24000
6461109;-0.23500
6463887;-0.22500
6466665;-0.24000
6469443;-0.23000
6472220;-0.22500
6474998;-0.21500
6477776;-0.19500
6480554;-0.17500
6483332;-0.19000
6486109;-0.23500
6488887;-0.27000
6491665;-0.28000
6494443;-0.28000
6497220;-0.29500
6499998;-0.31500
6502776;-0.34000
6505554;-0.35500
6508332;-0.35500
6511109;-0.35000
6513887;-0.35000
6516665;-0.34500
6519443;-0.35000
6522220;-0.36500
6524998;-0.34500
6527776;-0.34500
6530554;-0.36000
6533332;-0.35500
6536109;-0.37500
6538887;-0.37000
6541665;-0.38000
6544443;-0.36500
6547220;-0.37000
6549998;-0.38000
6552776;-0.39500
6555554;-0.38500
6558331;-0.38000
6561109;-0.37000
6563887;-0.37000
6566665;-0.37500
6569443;-0.38000
6572220;-0.38500
6574998;-0.38000
6577776;-0.38000
6580554;-0.39500
6583331;-0.43500
6586109;-0.48000
6588887;-0.49000
6591665;-0.52500
6594443;-0.54500
6597220;-0.54000
6599998;-0.49500
6602776;-0.39000
6605554;-0.26500
6608331;-0.10000
6611109;0.08000
6613887;0.34500
6616665;0.61500
6619443;0.81500
6622220;0.91500
6624998;0.90500
6627776;0.72000
6630554;0.34000
6633331;-0.08500
6636109;-0.39000
6638887;-0.54000
6641665;-0.53500
6644443;-0.46500
6647220;-0.41000
6649998;-0.40000
6652776;-0.41500
6655554;-0.42500
6658331;-0.41500
6661109;-0.41000
6663887;-0.40000
6666665;-0.40000
6669443;-0.42500
6672220;-0.42000
6674998;-0.42000
6677776;-0.41000
6680554;-0.41000
6683331;-0.42000
6686109;-0.43000
6688887;-0.43000
6691665;-0.42500
6694443;-0.40500
6697220;-0.41500
6699998;-0.42000
6702776;-0.42500
6705554;-0.42500
6708331;-0.41000
6711109;-0.41000
6713887;-0.39500
6716665;-0.40500
6719443;-0.42000
6722220;-0.41000
6724998;-0.40500
6727776;-0.39000
6730554;-0.40000
6733331;-0.40000
6736109;-0.41500
6738887;-0.42500
6741665;-0.39500
6744443;-0.39000
6747220;-0.40000
6749998;-0.40500
6752776;-0.41500
6755554;-0.41000
6758331;-0.41000
6761109;-0.40500
6763887;-0.41500
6766665;-0.40500
6769443;-0.41500
6772220;-0.42500
6774998;-0.41000
6777776;-0.41000
6780554;-0.40500
6783331;-0.41000
6786109;-0.41000
6788887;-0.40500
6791665;-0.40500
6794443;-0.40000
6797220;-0.39500
6799998;-0.39000
6802776;-0.40500
6805554;-0.40500
6808331;-0.40000
6811109;-0.39500
6813887;-0.39000
6816665;-0.38500
6819443;-0.39500
6822220;-0.40000
6824998;-0.38500
6827776;-0.38000
6830554;-0.38500
6833331;-0.39000
6836109;-0.38500
6838887;-0.39500
6841665;-0.40000
6844443;-0.39000
6847220;-0.38500
6849998;-0.39500
6852776;-0.40500
6855554;-0.40500
6858331;-0.39000
6861109;-0.38500
6863887;-0.39000
6866665;-0.39000
6869443;-0.40000
6872220;-0.40500
6874998;-0.40000
6877776;-0.39000
6880554;-0.39000
6883331;-0.38500
6886109;-0.40500
6888887;-0.40500
6891665;-0.40000
6894443;-0.38500
6897220;-0.38500
6899998;-0.38500
6902776;-0.39500
6905554;-0.39500
6908331;-0.37500
6911109;-0.37000
6913887;-0.36000
6916665;-0.36000
6919443;-0.35500
6922220;-0.35500
6924998;-0.34000
6927776;-0.32000
6930554;-0.31500
6933331;-0.33000
6936109;-0.32000
6938887;-0.31500
6941665;-0.30000
6944442;-0.29000
6947220;-0.28500
6949998;-0.30500
6952776;-0.31000
6955554;-0.31500
6958331;-0.30000
6961109;-0.28500
6963887;-0.27500
6966665;-0.29500
6969442;-0.29000
6972220;-0.29000
6974998;-0.28000
6977776;-0.28500
6980554;-0.28000
6983331;-0.29500
6986109;-0.31000
6988887;-0.31000
6991665;-0.30500
6994442;-0.28500
6997220;-0.29000
6999998;-0.29000
7002776;-0.28500
7005554;-0.30000
7008331;-0.28500
7011109;-0.29000
7013887;-0.30000
7016665;-0.29500
7019442;-0.29500
7022220;-0.31000
7024998;-0.30000
7027776;-0.29000
7030554;-0.29000
7033331;-0.30000
7036109;-0.31000
7038887;-0.31500
7041665;-0.31000
7044442;-0.30000
7047220;-0.30500
7049998;-0.30000
7052776;-0.30500
7055554;-0.31500
7058331;-0.30000
7061109;-0.31000
7063887;-0.32000
7066665;-0.33500
7069442;-0.32500
7072220;-0.34000
7074998;-0.32000
7077776;-0.32500
7080554;-0.32500
7083331;-0.33000
7086109;-0.33500
7088887;-0.34000
7091665;-0.32000
7094442;-0.32000
7097220;-0.32000
7099998;-0.32500
7102776;-0.34500
7105554;-0.34500
7108331;-0.31500
7111109;-0.32000
7113887;-0.31500
7116665;-0.32000
7119442;-0.33000
7122220;-0.34500
7124998;-0.32500
7127776;-0.32000
7130554;-0.31000
7133331;-0.31500
7136109;-0.32000
7138887;-0.32000
7141665;-0.30000
7144442;-0.28500
7147220;-0.28000
7149998;-0.27500
7152776;-0.28500
7155554;-0.28500
7158331;-0.27000
7161109;-0.25000
7163887;-0.23500
7166665;-0.23500
7169442;-0.25000
7172220;-0.23500
7174998;-0.22000
7177776;-0.20000
7180554;-0.20500
7183331;-0.20000
7186109;-0.19000
7188887;-0.20500
7191665;-0.19000
7194442;-0.18500
7197220;-0.19500
7199998;-0.22500
7202776;-0.23000
7205554;-0.22500
7208331;-0.21500
7211109;-0.19500
7213887;-0.19500
7216665;-0.19000
7219442;-0.19500
7222220;-0.21500
7224998;-0.19000
7227776;-0.18500
7230554;-0.18000
7233331;-0.16500
7236109;-0.16500
7238887;-0.18000
7241665;-0.22000
7244442;-0.24000
7247220;-0.26500
7249998;-0.27000
7252776;-0.29500
7255554;-0.30500
7258331;-0.31000
7261109;-0.30500
7263887;-0.32000
7266665;-0.33000
7269442;-0.34000
7272220;-0.34000
7274998;-0.33000
7277776;-0.32000
7280554;-0.32500
7283331;-0.33000
7286109;-0.35000
7288887;-0.35500
7291665;-0.34500
7294442;-0.33500
7297220;-0.33500
7299998;-0.33500
7302776;-0.35000
7305554;-0.35000
7308331;-0.34000
7311109;-0.33500
7313887;-0.33000
7316665;-0.33500
7319442;-0.34000
7322220;-0.35500
7324998;-0.34500
7327776;-0.34500
7330554;-0.36500
7333331;-0.40000
7336109;-0.43500
7338887;-0.46500
7341665;-0.47000
7344442;-0.48000
7347220;-0.51500
7349998;-0.53000
7352776;-0.49500
7355553;-0.39000
7358331;-0.23500
7361109;-0.07500
7363887;0.14500
7366665;0.42500
7369442;0.68000
7372220;0.85000
7374998;0.90000
7377776;0.79000
7380553;0.48000
7383331;0.08500
7386109;-0.25500
7388887;-0.46500
7391665;-0.53000
7394442;-0.50000
7397220;-0.44000
7399998;-0.40500
7402776;-0.39000
7405553;-0.39500
7408331;-0.39500
7411109;-0.39500
7413887;-0.38000
7416665;-0.38500
7419442;-0.39500
7422220;-0.39000
7424998;-0.38500
7427776;-0.37500
7430553;-0.38500
7433331;-0.37500
7436109;-0.38500
7438887;-0.38500
7441665;-0.37500
7444442;-0.38000
7447220;-0.39000
7449998;-0.39000
7452776;-0.39500
7455553;-0.39000
7458331;-0.38500
7461109;-0.37000
7463887;-0.37000
7466665;-0.38500
7469442;-0.39500
7472220;-0.41000
7474998;-0.40000
7477776;-0.39500
7480553;-0.39000
7483331;-0.39500
7486109;-0.40500
7488887;-0.40500
7491665;-0.40000
7494442;-0.39500
7497220;-0.38500
7499998;-0.39500
7502776;-0.40000
7505553;-0.40500
7508331;-0.40500
7511109;-0.39000
7513887;-0.38000
7516665;-0.38500
7519442;-0.40000
7522220;-0.40000
7524998;-0.39000
7527776;-0.38500
7530553;-0.40000
7533331;-0.39000
7536109;-0.40000
7538887;-0.39000
7541665;-0.39500
7544442;-0.38500
7547220;-0.39000
7549998;-0.40500
7552776;-0.40000
7555553;-0.41500
7558331;-0.39500
7561109;-0.39000
7563887;-0.38500
7566665;-0.39500
7569442;-0.40000
7572220;-0.40000
7574998;-0.39500
7577776;-0.39000
7580553;-0.38500
7583331;-0.40000
7586109;-0.39500
7588887;-0.40000
7591665;-0.40500
7594442;-0.39500
7597220;-0.39500
7599998;-0.40000
7602776;-0.40000
7605553;-0.39500
7608331;-0.38500
7611109;-0.39500
7613887;-0.40000
7616665;-0.40000
7619442;-0.42000
7622220;-0.42500
7624998;-0.42500
7627776;-0.41500
7630553;-0.41000
7633331;-0.40500
7636109;-0.41500
7638887;-0.41500
7641665;-0.41000
7644442;-0.40000
7647220;-0.40000
7649998;-0.41000
7652776;-0.41000
7655553;-0.42000
7658331;-0.40500
7661109;-0.39500
7663887;-0.38000
7666665;-0.37000
7669442;-0.36500
7672220;-0.37000
7674998;-0.35500
7677776;-0.33000
7680553;-0.32500
7683331;-0.31500
7686109;-0.33000
7688887;-0.34000
7691665;-0.33000
7694442;-0.31500
7697220;-0.30500
7699998;-0.30500
7702776;-0.32000
7705553;-0.31000
7708331;-0.30500
7711109;-0.29000
7713887;-0.31000
7716665;-0.29500
7719442;-0.31000
7722220;-0.31000
7724998;-0.30000
7727776;-0.30000
7730553;-0.29000
7733331;-0.29500
7736109;-0.30500
7738887;-0.31500
7741664;-0.30000
7744442;-0.30000
7747220;-0.30500
7749998;-0.30500
7752776;-0.30500
7755553;-0.29500
7758331;-0.29000
7761109;-0.30000
7763887;-0.29500
7766664;-0.29500
7769442;-0.30500
7772220;-0.31000
7774998;-0.29500
7777776;-0.29500
7780553;-0.30500
7783331;-0.32000
7786109;-0.33000
7788887;-0.33000
7791664;-0.32500
7794442;-0.32000
7797220;-0.33500
7799998;-0.33500
7802776;-0.33500
7805553;-0.34000
7808331;-0.33000
7811109;-0.31500
7813887;-0.32000
7816664;-0.33500
7819442;-0.34000
7822220;-0.35500
7824998;-0.34000
7827776;-0.33500
7830553;-0.33500
7833331;-0.33500
7836109;-0.35000
7838887;-0.36000
7841664;-0.34000
7844442;-0.35000
7847220;-0.35500
7849998;-0.35500
7852776;-0.35500
7855553;-0.35500
7858331;-0.34500
7861109;-0.33000
7863887;-0.33000
7866664;-0.33500
7869442;-0.34000
7872220;-0.36000
7874998;-0.35500
7877776;-0.34500
7880553;-0.34500
7883331;-0.35000
7886109;-0.34000
7888887;-0.35000
7891664;-0.33000
7894442;-0.30500
7897220;-0.30000
7899998;-0.31500
7902776;-0.31500
7905553;-0.31500
7908331;-0.30000
7911109;-0.28500
7913887;-0.27000
7916664;-0.26500
7919442;-0.27000
7922220;-0.27500
7924998;-0.26500
7927776;-0.26000
7930553;-0.25500
7933331;-0.24000
7936109;-0.23000
7938887;-0.22000
7941664;-0.22000
7944442;-0.22500
7947220;-0.23500
7949998;-0.24500
7952776;-0.25000
7955553;-0.24500
7958331;-0.24000
7961109;-0.22500
7963887;-0.21000
7966664;-0.20500
7969442;-0.21000
7972220;-0.24500
7974998;-0.27000
7977776;-0.28500
7980553;-0.29500
7983331;-0.31500
7986109;-0.33500
7988887;-0.36000
7991664;-0.36000
7994442;-0.36500
7997220;-0.35500
7999998;-0.36500
8002776;-0.36000
8005553;-0.34500
8008331;-0.35000
8011109;-0.35500
8013887;-0.36500
8016664;-0.38500
8019442;-0.39500
8022220;-0.40500
8024998;-0.39500
8027776;-0.38500
8030553;-0.38000
8033331;-0.38000
8036109;-0.39000
8038887;-0.39500
8041664;-0.38500
8044442;-0.39000
8047220;-0.39500
8049998;-0.39500
8052776;-0.40500
8055553;-0.39000
8058331;-0.38500
8061109;-0.39500
8063887;-0.40000
8066664;-0.41500
8069442;-0.45500
8072220;-0.49000
8074998;-0.50000
8077776;-0.51000
8080553;-0.55000
8083331;-0.59000
8086109;-0.58500
8088887;-0.51500
8091664;-0.37000
8094442;-0.21500
8097220;-0.04000
8099998;0.18000
8102776;0.44000
8105553;0.69500
8108331;0.88000
8111109;0.94000
8113887;0.83000
8116664;0.52000
8119442;0.08000
8122220;-0.31000
8124998;-0.52000
8127776;-0.56500
8130553;-0.53500
8133331;-0.48000
8136109;-0.45500
8138887;-0.44500
8141664;-0.44000
8144442;-0.45000
8147220;-0.43000
8149998;-0.42500
8152775;-0.44500
8155553;-0.45000
8158331;-0.45000
8161109;-0.45500
8163887;-0.45000
8166664;-0.44500
8169442;-0.46000
8172220;-0.45500
8174998;-0.45000
8177775;-0.44500
8180553;-0.45000
8183331;-0.46000
8186109;-0.46500
8188887;-0.45500
8191664;-0.45500
8194442;-0.44500
8197220;-0.44000
8199998;-0.43500
8202775;-0.44500
8205553;-0.44000
8208331;-0.43500
8211109;-0.42500
8213887;-0.44000
8216664;-0.45000
8219442;-0.46500
8222220;-0.47000
8224998;-0.45000
8227775;-0.44500
8230553;-0.44500
8233331;-0.46000
8236109;-0.46500
8238887;-0.46000
8241664;-0.45000
8244442;-0.44500
8247220;-0.45500
8249998;-0.46000
8252775;-0.48500
8255553;-0.49500
8258331;-0.47000
8261109;-0.45000
8263887;-0.45000
8266664;-0.44000
8269442;-0.46000
8272220;-0.47500
8274998;-0.48000
8277775;-0.48500
8280553;-0.49000
8283331;-0.48500
8286109;-0.48000
8288887;-0.47000
8291664;-0.45500
8294442;-0.45500
8297220;-0.45500
8299998;-0.46000
8302775;-0.48500
8305553;-0.49500
8308331;-0.48000
8311109;-0.46500
8313887;-0.46000
8316664;-0.46500
8319442;-0.48000
8322220;-0.48500
8324998;-0.48000
8327775;-0.48500
8330553;-0.49000
8333331;-0.50000
8336109;-0.52000
8338887;-0.52000
8341664;-0.51000
8344442;-0.49500
8347220;-0.50500
8349998;-0.50500
8352775;-0.51500
8355553;-0.52500
8358331;-0.51500
8361109;-0.51000
8363887;-0.52000
8366664;-0.51500
8369442;-0.53000
8372220;-0.54500
8374998;-0.52500
8377775;-0.51500
8380553;-0.51000
8383331;-0.52000
8386109;-0.51000
8388887;-0.50500
8391664;-0.48000
8394442;-0.46000
8397220;-0.45000
8399998;-0.43000
8402775;-0.42000
8405553;-0.42500
8408331;-0.40500
8411109;-0.37500
8413887;-0.36500
8416664;-0.35500
8419442;-0.37000
8422220;-0.36000
8424998;-0.34500
8427775;-0.34000
8430553;-0.34500
8433331;-0.33000
8436109;-0.34000
8438887;-0.34500
8441664;-0.33000
8444442;-0.32000
8447220;-0.31500
8449998;-0.32000
8452775;-0.32500
8455553;-0.34000
8458331;-0.32500
8461109;-0.32000
8463887;-0.30500
8466664;-0.30500
8469442;-0.33000
8472220;-0.33000
8474998;-0.31500
8477775;-0.32500
8480553;-0.32000
8483331;-0.31500
8486109;-0.32500
8488887;-0.35000
8491664;-0.33500
8494442;-0.31500
8497220;-0.31500
8499998;-0.31500
8502775;-0.33500
8505553;-0.33500
8508331;-0.35000
8511109;-0.32500
8513887;-0.33000
8516664;-0.33000
8519442;-0.33500
8522220;-0.35000
8524998;-0.34000
8527775;-0.33000
8530553;-0.33000
8533331;-0.33500
8536109;-0.33500
8538886;-0.35500
8541664;-0.34500
8544442;-0.33500
8547220;-0.35000
8549998;-0.35000
8552775;-0.35500
8555553;-0.37500
8558331;-0.36000
8561109;-0.35000
8563886;-0.35000
8566664;-0.35500
8569442;-0.37000
8572220;-0.37000
8574998;-0.37000
8577775;-0.35500
8580553;-0.35500
8583331;-0.36500
8586109;-0.36000
8588886;-0.37000
8591664;-0.37000
8594442;-0.35000
8597220;-0.34500
8599998;-0.34500
8602775;-0.35500
8605553;-0.35000
8608331;-0.33000
8611109;-0.33000
8613886;-0.32500
8616664;-0.31000
8619442;-0.32000
8622220;-0.31500
8624998;-0.29500
8627775;-0.28000
8630553;-0.28500
8633331;-0.28500
8636109;-0.28000
8638886;-0.28000
8641664;-0.27500
8644442;-0.25500
8647220;-0.25000
8649998;-0.24500
8652775;-0.25000
8655553;-0.26000
8658331;-0.24500
8661109;-0.24000
8663886;-0.23500
8666664;-0.22000
8669442;-0.22500
8672220;-0.22500
8674998;-0.21500
8677775;-0.21500
8680553;-0.21500
8683331;-0.22500
8686109;-0.23500
8688886;-0.23000
8691664;-0.24000
8694442;-0.21500
8697220;-0.19500
8699998;-0.17500
8702775;-0.18500
8705553;-0.22500
8708331;-0.26000
8711109;-0.27500
8713886;-0.28000
8716664;-0.30500
8719442;-0.31500
8722220;-0.34500
8724998;-0.35000
8727775;-0.35000
8730553;-0.35000
8733331;-0.35000
8736109;-0.36000
8738886;-0.37000
8741664;-0.35500
8744442;-0.34500
8747220;-0.36000
8749998;-0.36000
8752775;-0.36000
8755553;-0.37000
8758331;-0.36000
8761109;-0.36000
8763886;-0.36000
8766664;-0.36500
8769442;-0.38000
8772220;-0.37000
8774998;-0.36500
8777775;-0.36500
8780553;-0.36500
8783331;-0.37500
8786109;-0.39500
8788886;-0.45000
8791664;-0.47000
8794442;-0.48000
8797220;-0.51000
8799998;-0.54500
8802775;-0.55000
8805553;-0.46500
8808331;-0.29500
8811109;-0.10500
8813886;0.11000
8816664;0.39500
8819442;0.69500
8822220;0.93500
8824998;1.07000
8827775;1.02000
8830553;0.72000
8833331;0.26000
8836109;-0.20000
8838886;-0.50000
8841664;-0.59500
8844442;-0.55500
8847220;-0.51500
8849998;-0.45500
8852775;-0.42500
8855553;-0.41000
8858331;-0.41000
8861109;-0.40500
8863886;-0.40500
8866664;-0.41000
8869442;-0.43000
8872220;-0.41500
8874998;-0.40000
8877775;-0.39500
8880553;-0.41000
8883331;-0.40500
8886109;-0.41000
8888886;-0.41000
8891664;-0.41500
8894442;-0.39500
8897220;-0.39500
8899998;-0.41000
8902775;-0.42000
8905553;-0.42000
8908331;-0.41500
8911109;-0.40500
8913886;-0.40000
8916664;-0.41000
8919442;-0.41000
8922220;-0.41500
8924998;-0.41000
8927775;-0.40000
8930553;-0.40000
8933331;-0.40000
8936109;-0.40000
8938886;-0.41000
8941664;-0.39500
8944442;-0.40500
8947220;-0.40500
8949997;-0.40000
8952775;-0.40000
8955553;-0.40000
8958331;-0.39500
8961109;-0.38500
8963886;-0.38000
8966664;-0.37500
8969442;-0.39500
8972220;-0.39500
8974997;-0.40000
8977775;-0.39000
8980553;-0.40000
8983331;-0.40500
8986109;-0.40000
8988886;-0.42000
8991664;-0.39500
8994442;-0.40000
8997220;-0.39000
8999997;-0.39500
9002775;-0.40000
9005553;-0.41500
9008331;-0.40000
9011109;-0.39000
9013886;-0.39000
9016664;-0.39500
9019442;-0.40500
9022220;-0.41000
9024997;-0.40000
9027775;-0.39000
9030553;-0.39500
9033331;-0.40500
9036109;-0.41500
9038886;-0.41500
9041664;-0.42000
9044442;-0.41000
9047220;-0.41500
9049997;-0.41500
9052775;-0.42500
9055553;-0.43000
9058331;-0.41500
9061109;-0.41500
9063886;-0.41500
9066664;-0.42500
9069442;-0.43500
9072220;-0.42000
9074997;-0.41000
9077775;-0.39500
9080553;-0.40000
9083331;-0.38500
9086109;-0.40000
9088886;-0.39000
9091664;-0.38500
9094442;-0.36000
9097220;-0.35000
9099997;-0.34500
9102775;-0.34500
9105553;-0.35000
9108331;-0.32500
9111109;-0.31000
9113886;-0.30500
9116664;-0.31000
9119442;-0.31000
9122220;-0.30000
9124997;-0.28500
9127775;-0.27500
9130553;-0.28000
9133331;-0.29000
9136109;-0.29500
9138886;-0.29500
9141664;-0.28500
9144442;-0.27000
9147220;-0.26500
9149997;-0.28000
9152775;-0.29000
9155553;-0.28500
9158331;-0.27000
9161109;-0.26500
9163886;-0.25500
9166664;-0.27500
9169442;-0.27000
9172220;-0.29000
9174997;-0.27500
9177775;-0.27000
9180553;-0.25500
9183331;-0.27500
9186109;-0.28500
9188886;-0.28500
9191664;-0.28000
9194442;-0.27500
9197220;-0.27500
9199997;-0.28000
9202775;-0.29000
9205553;-0.30500
9208331;-0.29000
9211109;-0.29000
9213886;-0.30000
9216664;-0.29500
9219442;-0.30500
9222220;-0.32000
9224997;-0.30500
9227775;-0.30000
9230553;-0.30000
9233331;-0.30000
9236109;-0.30000
9238886;-0.31000
9241664;-0.30000
9244442;-0.30500
9247220;-0.30500
9249997;-0.30000
9252775;-0.31000
9255553;-0.31000
9258331;-0.30500
9261109;-0.30000
9263886;-0.29500
9266664;-0.30500
9269442;-0.31000
9272220;-0.33000
9274997;-0.32000
9277775;-0.30000
9280553;-0.29500
9283331;-0.31000
9286109;-0.32500
9288886;-0.34000
9291664;-0.32000
9294442;-0.31000
9297220;-0.31500
9299997;-0.31000
9302775;-0.31500
9305553;-0.32000
9308331;-0.32000
9311109;-0.30500
9313886;-0.30000
9316664;-0.29500
9319442;-0.28500
9322220;-0.29000
9324997;-0.27500
9327775;-0.24000
9330553;-0.24500
9333331;-0.23000
9336108;-0.24500
9338886;-0.24000
9341664;-0.22500
9344442;-0.21500
9347220;-0.21000
9349997;-0.19500
9352775;-0.19500
9355553;-0.19500
9358331;-0.18500
9361108;-0.18000
9363886;-0.19000
9366664;-0.20500
9369442;-0.22000
9372220;-0.22000
9374997;-0.20000
9377775;-0.19000
9380553;-0.18500
9383331;-0.16000
9386108;-0.16000
9388886;-0.16000
9391664;-0.19000
9394442;-0.22000
9397220;-0.23500
9399997;-0.24500
9402775;-0.27500
9405553;-0.29000
9408331;-0.30500
9411108;-0.31000
9413886;-0.31000
9416664;-0.33000
9419442;-0.32500
9422220;-0.33500
9424997;-0.32500
9427775;-0.32500
9430553;-0.32500
9433331;-0.33000
9436108;-0.34000
9438886;-0.35000
9441664;-0.34500
9444442;-0.33500
9447220;-0.34500
9449997;-0.32500
9452775;-0.34500
9455553;-0.35500
9458331;-0.34500
9461108;-0.33500
9463886;-0.33500
9466664;-0.34000
9469442;-0.33000
9472220;-0.32500
9474997;-0.32500
9477775;-0.32500
9480553;-0.33000
9483331;-0.35000
9486108;-0.39000
9488886;-0.44000
9491664;-0.46000
9494442;-0.49000
9497220;-0.52000
9499997;-0.54500
9502775;-0.50000
9505553;-0.35500
9508331;-0.18500
9511108;-0.00500
9513886;0.24000
9516664;0.54500
9519442;0.79500
9522220;0.95000
9524997;0.95500
9527775;0.75500
9530553;0.34500
9533331;-0.13000
9536108;-0.43500
9538886;-0.53500
9541664;-0.48000
9544442;-0.39500
9547220;-0.35500
9549997;-0.37500
9552775;-0.37500
9555553;-0.38000
9558331;-0.37500
9561108;-0.36500
9563886;-0.37000
9566664;-0.36500
9569442;-0.38500
9572220;-0.39000
9574997;-0.38500
9577775;-0.38000
9580553;-0.37000
9583331;-0.37000
9586108;-0.38500
9588886;-0.38500
9591664;-0.37000
9594442;-0.37500
9597220;-0.37000
9599997;-0.37000
9602775;-0.38500
9605553;-0.38500
9608331;-0.37000
9611108;-0.36500
9613886;-0.37000
9616664;-0.37000
9619442;-0.37500
9622220;-0.39000
9624997;-0.37000
9627775;-0.36500
9630553;-0.36500
9633331;-0.37000
9636108;-0.37000
9638886;-0.38000
9641664;-0.37000
9644442;-0.37500
9647220;-0.36000
9649997;-0.37000
9652775;-0.38500
9655553;-0.37000
9658331;-0.36500
9661108;-0.36500
9663886;-0.36500
9666664;-0.37000
9669442;-0.37500
9672220;-0.38000
9674997;-0.37000
9677775;-0.36000
9680553;-0.36000
9683331;-0.36000
9686108;-0.37500
9688886;-0.38000
9691664;-0.38000
9694442;-0.37000
9697220;-0.38000
9699997;-0.37000
9702775;-0.38500
9705553;-0.38500
9708331;-0.38000
9711108;-0.37500
9713886;-0.37500
9716664;-0.37500
9719442;-0.38000
9722220;-0.39000
9724997;-0.38500
9727775;-0.36000
9730553;-0.36000
9733331;-0.37000
9736108;-0.38000
9738886;-0.39000
9741664;-0.37500
9744442;-0.38000
9747219;-0.37500
9749997;-0.37500
9752775;-0.38500
9755553;-0.40500
9758331;-0.38500
9761108;-0.38000
9763886;-0.39500
9766664;-0.38500
9769442;-0.39000
9772219;-0.39000
9774997;-0.39000
9777775;-0.38000
9780553;-0.37000
9783331;-0.37500
9786108;-0.37500
9788886;-0.38000
9791664;-0.34500
9794442;-0.34000
9797219;-0.32500
9799997;-0.32500
9802775;-0.33000
9805553;-0.31500
9808331;-0.30000
9811108;-0.28000
9813886;-0.28000
9816664;-0.29000
9819442;-0.29500
9822219;-0.29000
9824997;-0.28500
9827775;-0.26500
9830553;-0.26500
9833331;-0.27500
9836108;-0.28000
9838886;-0.27500
9841664;-0.26500
9844442;-0.25000
9847219;-0.25500
9849997;-0.25500
9852775;-0.26500
9855553;-0.28000
9858331;-0.27000
9861108;-0.26000
9863886;-0.25500
9866664;-0.26000
9869442;-0.26000
9872219;-0.27000
9874997;-0.27000
9877775;-0.25000
9880553;-0.25500
9883331;-0.27000
9886108;-0.27000
9888886;-0.28000
9891664;-0.27000
9894442;-0.28000
9897219;-0.28500
9899997;-0.28500
9902775;-0.29000
9905553;-0.29000
9908331;-0.28500
9911108;-0.27000
9913886;-0.28000
9916664;-0.28000
9919442;-0.29000
9922219;-0.29500
9924997;-0.28000
9927775;-0.28500
9930553;-0.27000
9933331;-0.28500
9936108;-0.29000
9938886;-0.30500
9941664;-0.29000
9944442;-0.28000
9947219;-0.28000
9949997;-0.28500
9952775;-0.30000
9955553;-0.30500
9958331;-0.30000
9961108;-0.30000
9963886;-0.30000
9966664;-0.30500
9969442;-0.32000
9972219;-0.32000
9974997;-0.32000
9977775;-0.31000
9980553;-0.31000
9983331;-0.32000
9986108;-0.32000
9988886;-0.32500
9991664;-0.32500
9994442;-0.32000
9997219;-0.32000
9999997;-0.32000
10002775;-0.33500
10005553;-0.32500
10008331;-0.31500
10011108;-0.31000
10013886;-0.31000
10016664;-0.31500
10019442;-0.31500
10022219;-0.32500
10024997;-0.30500
10027775;-0.31000
10030553;-0.31500
10033331;-0.32000
10036108;-0.33500
10038886;-0.33000
10041664;-0.31500
10044442;-0.30000
10047219;-0.30500
10049997;-0.29500
10052775;-0.28000
10055553;-0.28500
10058331;-0.27000
10061108;-0.26000
10063886;-0.25000
10066664;-0.25000
10069442;-0.25000
10072219;-0.26000
10074997;-0.22500
10077775;-0.20500
10080553;-0.19500
10083331;-0.19500
10086108;-0.21000
10088886;-0.19500
10091664;-0.18500
10094442;-0.18000
10097219;-0.19000
10099997;-0.21000
10102775;-0.22500
10105553;-0.24000
10108331;-0.21000
10111108;-0.18500
10113886;-0.18000
10116664;-0.19000
10119442;-0.19000
10122219;-0.18500
10124997;-0.17000
10127775;-0.17500
10130553;-0.21000
10133330;-0.26000
10136108;-0.26000
10138886;-0.28000
10141664;-0.28000
10144442;-0.28000
10147219;-0.29500
10149997;-0.31500
10152775;-0.32000
10155553;-0.34500
10158330;-0.34500
10161108;-0.32500
10163886;-0.33000
10166664;-0.33000
10169442;-0.34500
10172219;-0.34500
10174997;-0.35500
10177775;-0.35000
10180553;-0.35500
10183330;-0.35000
10186108;-0.35500
10188886;-0.36000
10191664;-0.36000
10194442;-0.35000
10197219;-0.35000
10199997;-0.36500
10202775;-0.36500
10205553;-0.37500
10208330;-0.37000
10211108;-0.36000
10213886;-0.35500
10216664;-0.36500
10219442;-0.39000
10222219;-0.42000
10224997;-0.46000
10227775;-0.47000
10230553;-0.49000
10233330;-0.54500
10236108;-0.57500
10238886;-0.56000
10241664;-0.44000
10244442;-0.31500
10247219;-0.19500
10249997;-0.05000
10252775;0.13500
10255553;0.39000
10258330;0.66500
10261108;0.86000
10263886;0.95000
10266664;0.96500
10269442;0.83500
10272219;0.51500
10274997;0.11500
10277775;-0.24500
10280553;-0.48000
10283330;-0.54500
10286108;-0.53500
10288886;-0.46500
10291664;-0.41000
10294442;-0.39500
10297219;-0.40000
10299997;-0.41000
10302775;-0.40500
10305553;-0.40000
10308330;-0.39000
10311108;-0.39000
10313886;-0.39500
10316664;-0.40500
10319442;-0.41500
10322219;-0.42500
10324997;-0.41000
10327775;-0.40500
10330553;-0.40000
10333330;-0.40500
10336108;-0.41500
10338886;-0.42000
10341664;-0.43500
10344442;-0.41500
10347219;-0.41000
10349997;-0.41500
10352775;-0.41500
10355553;-0.41000
10358330;-0.41000
10361108;-0.40500
10363886;-0.39500
10366664;-0.40500
10369442;-0.42000
10372219;-0.43500
10374997;-0.42500
10377775;-0.42500
10380553;-0.41500
10383330;-0.41500
10386108;-0.41500
10388886;-0.41500
10391664;-0.42500
10394442;-0.39500
10397219;-0.41000
10399997;-0.41500
10402775;-0.42000
10405553;-0.43500
10408330;-0.42000
10411108;-0.40500
10413886;-0.40500
10416664;-0.41000
10419442;-0.41500
10422219;-0.42000
10424997;-0.42000
10427775;-0.41000
10430553;-0.40000
10433330;-0.40000
10436108;-0.42000
10438886;-0.42500
10441664;-0.41000
10444442;-0.40500
10447219;-0.40500
10449997;-0.40000
10452775;-0.41000
10455553;-0.44500
10458330;-0.42500
10461108;-0.40500
10463886;-0.41500
10466664;-0.41000
10469442;-0.40500
10472219;-0.42500
10474997;-0.41000
10477775;-0.41500
10480553;-0.41500
10483330;-0.41500
10486108;-0.42500
10488886;-0.43500
10491664;-0.42000
10494442;-0.42000
10497219;-0.44000
10499997;-0.43500
10502775;-0.44500
10505553;-0.44500
10508330;-0.44500
10511108;-0.41500
10513886;-0.42500
10516664;-0.43500
10519441;-0.44000
10522219;-0.44500
10524997;-0.44500
10527775;-0.43000
10530553;-0.42500
10533330;-0.43000
10536108;-0.44000
10538886;-0.44000
10541664;-0.43000
10544441;-0.40000
10547219;-0.38000
10549997;-0.37500
10552775;-0.37500
10555553;-0.38000
10558330;-0.36500
10561108;-0.36000
10563886;-0.35000
10566664;-0.35000
10569441;-0.35500
10572219;-0.35000
10574997;-0.33500
10577775;-0.33000
10580553;-0.32500
10583330;-0.33500
10586108;-0.34000
10588886;-0.33500
10591664;-0.32000
10594441;-0.30500
10597219;-0.29500
10599997;-0.32000
10602775;-0.31000
10605553;-0.32000
10608330;-0.30500
10611108;-0.31500
10613886;-0.31500
10616664;-0.32000
10619441;-0.33000
10622219;-0.32000
10624997;-0.30500
10627775;-0.31500
10630553;-0.31500
10633330;-0.31500
10636108;-0.32500
10638886;-0.33000
10641664;-0.33000
10644441;-0.33000
10647219;-0.32000
10649997;-0.33000
10652775;-0.34000
10655553;-0.33500
10658330;-0.34500
10661108;-0.33000
10663886;-0.33000
10666664;-0.33000
10669441;-0.34000
10672219;-0.36000
10674997;-0.35000
10677775;-0.35000
10680553;-0.34500
10683330;-0.35000
10686108;-0.34500
10688886;-0.36500
10691664;-0.35000
10694441;-0.34000
10697219;-0.33500
10699997;-0.33500
10702775;-0.35500
10705553;-0.36500
10708330;-0.36500
10711108;-0.37500
10713886;-0.37000
10716664;-0.37500
10719441;-0.37000
10722219;-0.39000
10724997;-0.37500
10727775;-0.36500
10730553;-0.36000
10733330;-0.35500
10736108;-0.37500
10738886;-0.38000
10741664;-0.38000
10744441;-0.38000
10747219;-0.37500
10749997;-0.37500
10752775;-0.37500
10755553;-0.38000
10758330;-0.36000
10761108;-0.35000
10763886;-0.36000
10766664;-0.36500
10769441;-0.36000
10772219;-0.36500
10774997;-0.36500
10777775;-0.36000
10780553;-0.36500
10783330;-0.37500
10786108;-0.38000
10788886;-0.38000
10791664;-0.38000
10794441;-0.36500
10797219;-0.36500
10799997;-0.37500
10802775;-0.38500
10805553;-0.37500
10808330;-0.38000
10811108;-0.36000
10813886;-0.34500
10816664;-0.34000
10819441;-0.33500
10822219;-0.32500
10824997;-0.30500
10827775;-0.28000
10830553;-0.27500
10833330;-0.29000
10836108;-0.29500
10838886;-0.29000
10841664;-0.27000
10844441;-0.24000
10847219;-0.23500
10849997;-0.25000
10852775;-0.26000
10855553;-0.26500
10858330;-0.26500
10861108;-0.24000
10863886;-0.23500
10866664;-0.26000
10869441;-0.26000
10872219;-0.25500
10874997;-0.25000
10877775;-0.24000
10880553;-0.24500
10883330;-0.26000
10886108;-0.26000
10888886;-0.24500
10891664;-0.22500
10894441;-0.25000
10897219;-0.29000
10899997;-0.31000
10902775;-0.32000
10905553;-0.32500
10908330;-0.32500
10911108;-0.33000
10913886;-0.33500
10916664;-0.34500
10919441;-0.37000
10922219;-0.39000
10924997;-0.38500
10927775;-0.38000
10930552;-0.38000
10933330;-0.37000
10936108;-0.38500
10938886;-0.40000
10941664;-0.39000
10944441;-0.39000
10947219;-0.38500
10949997;-0.40500
10952775;-0.41000
10955552;-0.39500
10958330;-0.38500
10961108;-0.38500
10963886;-0.38000
10966664;-0.38000
10969441;-0.38500
10972219;-0.40000
10974997;-0.39500
10977775;-0.41000
10980552;-0.39500
10983330;-0.40500
10986108;-0.41000
10988886;-0.41500
10991664;-0.41000
10994441;-0.40000
10997219;-0.40500
10999997;-0.43500
11002775;-0.47500
11005552;-0.50500
11008330;-0.51000
11011108;-0.50500
11013886;-0.54000
11016664;-0.57500
11019441;-0.56500
11022219;-0.46000
11024997;-0.31500
11027775;-0.16000
11030552;0.02000
11033330;0.24500
11036108;0.50000
11038886;0.74000
11041664;0.89000
11044441;0.96500
11047219;0.85500
11049997;0.52000
11052775;0.09500
11055552;-0.28000
11058330;-0.48500
11061108;-0.54000
11063886;-0.52500
11066664;-0.49500
11069441;-0.44500
11072219;-0.45000
11074997;-0.45000
11077775;-0.45000
11080552;-0.45000
11083330;-0.44500
11086108;-0.44000
11088886;-0.46500
11091664;-0.46500
11094441;-0.46000
11097219;-0.45000
11099997;-0.43500
11102775;-0.44000
11105552;-0.45500
11108330;-0.44500
11111108;-0.43000
11113886;-0.43000
11116664;-0.43000
11119441;-0.44000
11122219;-0.44500
11124997;-0.44500
11127775;-0.44000
11130552;-0.42500
11133330;-0.43000
11136108;-0.44000
11138886;-0.46500
11141664;-0.47000
11144441;-0.45000
11147219;-0.45000
11149997;-0.43000
11152775;-0.44000
11155552;-0.46500
11158330;-0.47000
11161108;-0.45500
11163886;-0.45000
11166664;-0.45500
11169441;-0.44500
11172219;-0.45500
11174997;-0.44500
11177775;-0.43000
11180552;-0.42500
11183330;-0.42000
11186108;-0.43000
11188886;-0.43500
11191664;-0.44000
11194441;-0.43000
11197219;-0.43500
11199997;-0.44500
11202775;-0.45000
11205552;-0.45000
11208330;-0.44000
11211108;-0.43000
11213886;-0.43000
11216664;-0.43000
11219441;-0.44500
11222219;-0.45500
11224997;-0.44000
11227775;-0.44000
11230552;-0.44500
11233330;-0.44500
11236108;-0.46000
11238886;-0.46500
11241664;-0.45000
11244441;-0.44000
11247219;-0.44000
11249997;-0.43500
11252775;-0.46000
11255552;-0.47000
11258330;-0.47000
11261108;-0.46000
11263886;-0.46500
11266664;-0.48000
11269441;-0.48500
11272219;-0.48000
11274997;-0.47000
11277775;-0.47500
11280552;-0.47500
11283330;-0.48500
11286108;-0.49000
11288886;-0.50000
11291664;-0.50000
11294441;-0.49500
11297219;-0.49000
11299997;-0.49500
11302775;-0.50000
11305552;-0.52500
11308330;-0.51000
11311108;-0.50500
11313886;-0.50000
11316663;-0.50500
11319441;-0.50000
11322219;-0.50500
11324997;-0.49500
11327775;-0.48000
11330552;-0.44500
11333330;-0.45000
11336108;-0.45000
11338886;-0.43500
11341663;-0.40500
11344441;-0.39000
11347219;-0.38500
11349997;-0.37500
11352775;-0.37500
11355552;-0.37000
11358330;-0.35000
11361108;-0.33000
11363886;-0.32000
11366663;-0.32000
11369441;-0.33000
11372219;-0.32000
11374997;-0.32000
11377775;-0.31000
11380552;-0.30500
11383330;-0.30000
11386108;-0.30500
11388886;-0.31000
11391663;-0.30000
11394441;-0.30000
11397219;-0.29000
11399997;-0.29000
11402775;-0.30500
11405552;-0.29000
11408330;-0.29500
11411108;-0.28000
11413886;-0.28500
11416663;-0.28500
11419441;-0.29000
11422219;-0.29000
11424997;-0.29000
11427775;-0.27500
11430552;-0.27000
11433330;-0.28000
11436108;-0.29500
11438886;-0.30000
11441663;-0.28000
11444441;-0.28000
11447219;-0.27500
11449997;-0.28000
11452775;-0.29000
11455552;-0.30500
11458330;-0.30500
11461108;-0.29000
11463886;-0.29500
11466663;-0.30500
11469441;-0.31000
11472219;-0.31500
11474997;-0.30000
11477775;-0.29500
11480552;-0.30500
11483330;-0.30500
11486108;-0.31000
11488886;-0.31500
11491663;-0.31500
11494441;-0.30000
11497219;-0.30000
11499997;-0.31500
11502775;-0.31000
11505552;-0.31500
11508330;-0.32000
11511108;-0.32500
11513886;-0.30000
11516663;-0.31500
11519441;-0.32000
11522219;-0.33000
11524997;-0.31500
11527775;-0.30500
11530552;-0.30000
11533330;-0.31000
11536108;-0.32000
11538886;-0.31000
11541663;-0.30500
11544441;-0.29000
11547219;-0.30500
11549997;-0.30000
11552775;-0.31000
11555552;-0.30000
11558330;-0.29000
11561108;-0.29000
11563886;-0.30000
11566663;-0.29000
11569441;-0.30500
11572219;-0.31000
11574997;-0.29000
11577775;-0.29000
11580552;-0.28000
11583330;-0.29500
11586108;-0.29500
11588886;-0.30500
11591663;-0.28000
11594441;-0.26500
11597219;-0.25000
11599997;-0.25000
11602775;-0.24000
11605552;-0.26000
11608330;-0.23500
11611108;-0.23000
11613886;-0.21500
11616663;-0.21000
11619441;-0.21500
11622219;-0.21500
11624997;-0.20500
11627775;-0.19000
11630552;-0.18500
11633330;-0.17000
11636108;-0.19000
11638886;-0.18500
11641663;-0.17000
11644441;-0.16000
11647219;-0.15500
11649997;-0.16500
11652775;-0.17000
11655552;-0.18500
11658330;-0.18000
11661108;-0.15500
11663886;-0.16000
11666663;-0.16500
11669441;-0.17000
11672219;-0.16500
11674997;-0.13500
11677775;-0.11000
11680552;-0.12000
11683330;-0.14000
11686108;-0.19000
11688886;-0.22500
11691663;-0.22000
11694441;-0.21500
11697219;-0.22500
11699997;-0.24500
11702775;-0.26000
11705552;-0.27000
11708330;-0.28000
11711108;-0.29000
11713886;-0.30000
11716663;-0.30000
11719441;-0.29500
11722219;-0.30500
11724997;-0.29000
11727774;-0.29500
11730552;-0.28500
11733330;-0.29500
11736108;-0.30000
11738886;-0.29500
11741663;-0.29500
11744441;-0.28500
11747219;-0.28500
11749997;-0.28500
11752774;-0.29500
11755552;-0.30500
11758330;-0.30500
11761108;-0.29500
11763886;-0.29000
11766663;-0.29000
11769441;-0.29500
11772219;-0.31000
11774997;-0.29000
11777774;-0.29000
11780552;-0.29000
11783330;-0.30500
11786108;-0.31500
11788886;-0.33500
11791663;-0.35500
11794441;-0.39000
11797219;-0.42000
11799997;-0.43000
11802774;-0.46000
11805552;-0.49000
11808330;-0.50000
11811108;-0.46500
11813886;-0.36500
11816663;-0.24000
11819441;-0.10500
11822219;0.05000
11824997;0.30000
11827774;0.59500
11830552;0.87000
11833330;1.04000
11836108;1.09500
11838886;0.98500
11841663;0.69500
11844441;0.27500
11847219;-0.13000
11849997;-0.39000
11852774;-0.46500
11855552;-0.43000
11858330;-0.36000
11861108;-0.33000
11863886;-0.33000
11866663;-0.34500
11869441;-0.34500
11872219;-0.35000
11874997;-0.34000
11877774;-0.33500
11880552;-0.33500
11883330;-0.33500
11886108;-0.34500
11888886;-0.35000
11891663;-0.34000
11894441;-0.32500
11897219;-0.33000
11899997;-0.33000
11902774;-0.33000
11905552;-0.33500
11908330;-0.33500
11911108;-0.32000
11913886;-0.32500
11916663;-0.32500
11919441;-0.32500
11922219;-0.35000
11924997;-0.32500
11927774;-0.31000
11930552;-0.32000
11933330;-0.32500
11936108;-0.33000
11938886;-0.33500
11941663;-0.34000
11944441;-0.32500
11947219;-0.32000
11949997;-0.32500
11952774;-0.33500
11955552;-0.34000
11958330;-0.33500
11961108;-0.32500
11963886;-0.32500
11966663;-0.33000
11969441;-0.34500
11972219;-0.34000
11974997;-0.33000
11977774;-0.31000
11980552;-0.31500
11983330;-0.32000
11986108;-0.32500
11988886;-0.32000
11991663;-0.32000
11994441;-0.31000
11997219;-0.31500
11999997;-0.32000
12002774;-0.32500
12005552;-0.33000
12008330;-0.32500
12011108;-0.33000
12013886;-0.31500
12016663;-0.32000
12019441;-0.32000
12022219;-0.33500
12024997;-0.32000
12027774;-0.32000
12030552;-0.30500
12033330;-0.32000
12036108;-0.32000
12038886;-0.32000
12041663;-0.31000
12044441;-0.29500
12047219;-0.29500
12049997;-0.30000
12052774;-0.31500
12055552;-0.32000
12058330;-0.31500
12061108;-0.31000
12063886;-0.30500
12066663;-0.32500
12069441;-0.32000
12072219;-0.33500
12074997;-0.33500
12077774;-0.32500
12080552;-0.32500
12083330;-0.33000
12086108;-0.34000
12088886;-0.35500
12091663;-0.34500
12094441;-0.33500
12097219;-0.34000
12099997;-0.34000
12102774;-0.34000
12105552;-0.35000
12108330;-0.33000
12111108;-0.32000
12113885;-0.32500
12116663;-0.30500
12119441;-0.32000
12122219;-0.32000
12124997;-0.30000
12127774;-0.28000
12130552;-0.27500
12133330;-0.27000
12136108;-0.25500
12138885;-0.26000
12141663;-0.23500
12144441;-0.23000
12147219;-0.21500
12149997;-0.21000
12152774;-0.20000
12155552;-0.21500
12158330;-0.20500
12161108;-0.19500
12163885;-0.19500
12166663;-0.19000
12169441;-0.19500
12172219;-0.20500
12174997;-0.19500
12177774;-0.19500
12180552;-0.19500
12183330;-0.20000
12186108;-0.20000
12188885;-0.21500
12191663;-0.18500
12194441;-0.18500
12197219;-0.18500
12199997;-0.19000
12202774;-0.20000
12205552;-0.19500
12208330;-0.18500
12211108;-0.18500
12213885;-0.19500
12216663;-0.20000
12219441;-0.20000
12222219;-0.20000
12224997;-0.20000
12227774;-0.19000
12230552;-0.19000
12233330;-0.20000
12236108;-0.20500
12238885;-0.22000
12241663;-0.21500
12244441;-0.21000
12247219;-0.21000
12249997;-0.21500
12252774;-0.22500
12255552;-0.23000
12258330;-0.21500
12261108;-0.21000
12263885;-0.21500
12266663;-0.22500
12269441;-0.22500
12272219;-0.23000
12274997;-0.22000
12277774;-0.21500
12280552;-0.22500
12283330;-0.23000
12286108;-0.23000
12288885;-0.24000
12291663;-0.23500
12294441;-0.22000
12297219;-0.22000
12299997;-0.23000
12302774;-0.23500
12305552;-0.24000
12308330;-0.22500
12311108;-0.21500
12313885;-0.22500
12316663;-0.23500
12319441;-0.24000
12322219;-0.24500
12324997;-0.24500
12327774;-0.24000
12330552;-0.24500
12333330;-0.24500
12336108;-0.24500
12338885;-0.25500
12341663;-0.24500
12344441;-0.24500
12347219;-0.23000
12349997;-0.24500
12352774;-0.25500
12355552;-0.25500
12358330;-0.23500
12361108;-0.22500
12363885;-0.22000
12366663;-0.22000
12369441;-0.22000
12372219;-0.21500
12374997;-0.20000
12377774;-0.17500
12380552;-0.16500
12383330;-0.16500
12386108;-0.16500
12388885;-0.16500
12391663;-0.16000
12394441;-0.15000
12397219;-0.14000
12399997;-0.15000
12402774;-0.14500
12405552;-0.15500
12408330;-0.14000
12411108;-0.12500
12413885;-0.11500
12416663;-0.11000
12419441;-0.11500
12422219;-0.13500
12424997;-0.13000
12427774;-0.12500
12430552;-0.13000
12433330;-0.13000
12436108;-0.12000
12438885;-0.12000
12441663;-0.11000
12444441;-0.10000
12447219;-0.10000
12449997;-0.08000
12452774;-0.08000
12455552;-0.13500
12458330;-0.16000
12461108;-0.16500
12463885;-0.16500
12466663;-0.20000
12469441;-0.20500
12472219;-0.22500
12474997;-0.24000
12477774;-0.24000
12480552;-0.24000
12483330;-0.25000
12486108;-0.26500
12488885;-0.27000
12491663;-0.26000
12494441;-0.26000
12497219;-0.26500
12499996;-0.27000
12502774;-0.26000
12505552;-0.28000
12508330;-0.26000
12511108;-0.24500
12513885;-0.26000
12516663;-0.26500
12519441;-0.28000
12522219;-0.29000
12524996;-0.28500
12527774;-0.26500
12530552;-0.26500
12533330;-0.27000
12536108;-0.27500
12538885;-0.29000
12541663;-0.27500
12544441;-0.27000
12547219;-0.28000
12549996;-0.32000
12552774;-0.36000
12555552;-0.39500
12558330;-0.41500
12561108;-0.42500
12563885;-0.46000
12566663;-0.49000
12569441;-0.45000
12572219;-0.35000
12574996;-0.18500
12577774;-0.02000
12580552;0.17000
12583330;0.42000
12586108;0.68500
12588885;0.91500
12591663;1.05000
12594441;1.07000
12597219;0.94000
12599996;0.63500
12602774;0.26000
12605552;-0.10000
12608330;-0.35500
12611108;-0.44500
12613885;-0.46000
12616663;-0.42500
12619441;-0.37500
12622219;-0.34000
12624996;-0.30500
12627774;-0.30500
12630552;-0.31500
12633330;-0.31500
12636108;-0.32000
12638885;-0.32500
12641663;-0.32000
12644441;-0.31000
12647219;-0.31500
12649996;-0.31500
12652774;-0.32500
12655552;-0.33500
12658330;-0.33000
12661108;-0.31000
12663885;-0.31500
12666663;-0.31000
12669441;-0.30500
12672219;-0.32500
12674996;-0.31000
12677774;-0.30000
12680552;-0.31500
12683330;-0.30500
12686108;-0.33500
12688885;-0.34000
12691663;-0.32000
12694441;-0.31500
12697219;-0.31500
12699996;-0.32000
12702774;-0.33500
12705552;-0.33500
12708330;-0.33500
12711108;-0.32500
12713885;-0.32000
12716663;-0.32000
12719441;-0.32000
12722219;-0.33000
12724996;-0.31500
12727774;-0.31500
12730552;-0.31000
12733330;-0.31000
12736108;-0.32000
12738885;-0.32000
12741663;-0.31000
12744441;-0.31000
12747219;-0.29500
12749996;-0.30500
12752774;-0.31000
12755552;-0.32000
12758330;-0.31000
12761108;-0.30500
12763885;-0.31000
12766663;-0.31000
12769441;-0.32500
12772219;-0.32500
12774996;-0.31500
12777774;-0.31000
12780552;-0.30500
12783330;-0.31000
12786108;-0.32500
12788885;-0.31500
12791663;-0.30500
12794441;-0.30500
12797219;-0.30000
12799996;-0.30000
12802774;-0.30500
12805552;-0.31000
12808330;-0.30500
12811108;-0.29000
12813885;-0.29000
12816663;-0.30500
12819441;-0.31000
12822219;-0.32000
12824996;-0.31000
12827774;-0.30000
12830552;-0.29000
12833330;-0.30500
12836108;-0.30500
12838885;-0.33000
12841663;-0.31000
12844441;-0.31000
12847219;-0.31000
12849996;-0.31500
12852774;-0.32000
12855552;-0.32000
12858330;-0.32000
12861108;-0.30000
12863885;-0.30000
12866663;-0.29500
12869441;-0.31000
12872219;-0.31000
12874996;-0.30000
12877774;-0.29000
12880552;-0.28000
12883330;-0.28500
12886108;-0.28500
12888885;-0.29000
12891663;-0.29000
12894441;-0.25500
12897219;-0.25500
12899996;-0.24500
12902774;-0.25000
12905552;-0.25500
12908330;-0.23500
12911107;-0.21000
12913885;-0.21000
12916663;-0.21000
12919441;-0.21000
12922219;-0.21500
12924996;-0.20000
12927774;-0.20000
12930552;-0.20500
12933330;-0.20500
12936107;-0.19000
12938885;-0.21000
12941663;-0.20500
12944441;-0.20000
12947219;-0.19500
12949996;-0.19500
12952774;-0.21000
12955552;-0.21500
12958330;-0.20000
12961107;-0.19500
12963885;-0.20500
12966663;-0.20500
12969441;-0.22500
12972219;-0.23000
12974996;-0.22000
12977774;-0.20500
12980552;-0.21500
12983330;-0.22500
12986107;-0.22000
12988885;-0.22000
12991663;-0.22000
12994441;-0.22000
12997219;-0.21000
12999996;-0.22500
13002774;-0.23000
13005552;-0.23000
13008330;-0.22500
13011107;-0.22000
13013885;-0.22500
13016663;-0.22000
13019441;-0.22000
13022219;-0.22500
13024996;-0.23000
13027774;-0.22000
13030552;-0.21500
13033330;-0.22500
13036107;-0.23500
13038885;-0.25000
13041663;-0.24000
13044441;-0.23500
13047219;-0.24000
13049996;-0.24500
13052774;-0.25500
13055552;-0.26000
13058330;-0.25500
13061107;-0.25500
13063885;-0.25500
13066663;-0.26500
13069441;-0.25500
13072219;-0.26000
13074996;-0.24500
13077774;-0.24000
13080552;-0.23500
13083330;-0.23500
13086107;-0.25000
13088885;-0.25500
13091663;-0.24500
13094441;-0.24000
13097219;-0.24000
13099996;-0.24500
13102774;-0.26500
13105552;-0.27000
13108330;-0.24500
13111107;-0.25500
13113885;-0.24500
13116663;-0.25000
13119441;-0.25500
13122219;-0.26500
13124996;-0.26000
13127774;-0.25000
13130552;-0.26000
13133330;-0.26000
13136107;-0.27000
13138885;-0.27000
13141663;-0.25500
13144441;-0.23500
13147219;-0.23000
13149996;-0.22500
13152774;-0.22500
13155552;-0.22500
13158330;-0.21500
13161107;-0.18500
13163885;-0.18500
13166663;-0.17500
13169441;-0.18000
13172219;-0.17500
13174996;-0.16000
13177774;-0.15000
13180552;-0.14000
13183330;-0.14500
13186107;-0.14500
13188885;-0.14000
13191663;-0.12500
13194441;-0.12500
13197219;-0.12500
13199996;-0.13000
13202774;-0.15500
13205552;-0.16500
13208330;-0.15500
13211107;-0.15000
13213885;-0.14000
13216663;-0.15000
