time_ms;ecg_value
0;-0.55000
2778;-0.58000
5556;-0.64500
8333;-0.65000
11111;-0.57000
13889;-0.44500
16667;-0.28000
19444;-0.08000
22222;0.14500
25000;0.44000
27778;0.68500
30556;0.81500
33333;0.77000
36111;0.50000
38889;0.07000
41667;-0.33500
44444;-0.55000
47222;-0.60500
50000;-0.56000
52778;-0.53000
55556;-0.52000
58333;-0.51000
61111;-0.50000
63889;-0.48500
66667;-0.48000
69444;-0.48500
72222;-0.48000
75000;-0.49500
77778;-0.48500
80556;-0.48500
83333;-0.48500
86111;-0.48000
88889;-0.50000
91667;-0.51000
94444;-0.49000
97222;-0.49500
100000;-0.49000
102778;-0.48500
105556;-0.50500
108333;-0.50500
111111;-0.49000
113889;-0.49000
116667;-0.48500
119444;-0.49500
122222;-0.49000
125000;-0.50000
127778;-0.49000
130556;-0.48000
133333;-0.48000
136111;-0.49500
138889;-0.50500
141667;-0.50000
144444;-0.49500
147222;-0.49500
150000;-0.48000
152778;-0.48500
155556;-0.50000
158333;-0.50500
161111;-0.48000
163889;-0.48000
166667;-0.48500
169444;-0.48500
172222;-0.49500
175000;-0.49500
177778;-0.49000
180556;-0.48500
183333;-0.49000
186111;-0.49000
188889;-0.50500
191667;-0.51500
194444;-0.51000
197222;-0.50000
200000;-0.49500
202778;-0.50000
205555;-0.50000
208333;-0.50000
211111;-0.48000
213889;-0.46500
216667;-0.47500
219444;-0.48500
222222;-0.49000
225000;-0.50000
227778;-0.49500
230555;-0.49000
233333;-0.49500
236111;-0.49500
238889;-0.51000
241667;-0.51000
244444;-0.50000
247222;-0.49000
250000;-0.50000
252778;-0.51000
255555;-0.52000
258333;-0.52000
261111;-0.52000
263889;-0.51000
266667;-0.52500
269444;-0.53000
272222;-0.53500
275000;-0.54000
277778;-0.54000
280555;-0.52500
283333;-0.53500
286111;-0.53500
288889;-0.54000
291667;-0.53500
294444;-0.52500
297222;-0.50500
300000;-0.51500
302778;-0.49500
305555;-0.49000
308333;-0.48500
311111;-0.45500
313889;-0.44500
316667;-0.42000
319444;-0.41500
322222;-0.41500
325000;-0.40000
327778;-0.38000
330555;-0.35000
333333;-0.35000
336111;-0.34500
338889;-0.35500
341667;-0.35000
344444;-0.34500
347222;-0.34000
350000;-0.33000
352778;-0.34000
355555;-0.34000
358333;-0.34000
361111;-0.33500
363889;-0.33500
366667;-0.32500
369444;-0.33000
372222;-0.34000
375000;-0.34000
377778;-0.33000
380555;-0.31000
383333;-0.32500
386111;-0.32000
388889;-0.33500
391667;-0.33500
394444;-0.32000
397222;-0.32000
400000;-0.32500
402778;-0.33500
405555;-0.35000
408333;-0.35500
411111;-0.34000
413889;-0.32500
416667;-0.32500
419444;-0.33500
422222;-0.35000
425000;-0.35000
427778;-0.34000
430555;-0.35000
433333;-0.34500
436111;-0.34500
438889;-0.36000
441667;-0.36000
444444;-0.34500
447222;-0.34000
450000;-0.33500
452778;-0.33500
455555;-0.35000
458333;-0.36000
461111;-0.34500
463889;-0.34500
466667;-0.34500
469444;-0.35000
472222;-0.36000
475000;-0.36000
477778;-0.35000
480555;-0.34500
483333;-0.34500
486111;-0.35500
488889;-0.36500
491667;-0.38000
494444;-0.36000
497222;-0.35500
500000;-0.35500
502778;-0.35500
505555;-0.38000
508333;-0.37000
511111;-0.38000
513889;-0.35000
516667;-0.34500
519444;-0.35000
522222;-0.35500
525000;-0.34500
527778;-0.35500
530555;-0.34000
533333;-0.33500
536111;-0.34000
538889;-0.36500
541667;-0.36000
544444;-0.34500
547222;-0.34000
550000;-0.33500
552778;-0.35500
555555;-0.35500
558333;-0.36500
561111;-0.35500
563889;-0.34500
566667;-0.35500
569444;-0.35500
572222;-0.36500
575000;-0.38000
577778;-0.35000
580555;-0.34500
583333;-0.34000
586111;-0.33000
588889;-0.34000
591667;-0.33000
594444;-0.32000
597222;-0.30500
600000;-0.29000
602778;-0.30000
605555;-0.30000
608333;-0.29000
611111;-0.27000
613889;-0.26500
616666;-0.27000
619444;-0.26500
622222;-0.26500
625000;-0.25500
627778;-0.24500
630555;-0.24000
633333;-0.24000
636111;-0.24500
638889;-0.24500
641666;-0.25000
644444;-0.22500
647222;-0.21500
650000;-0.21500
652778;-0.23000
655555;-0.24500
658333;-0.25000
661111;-0.25000
663889;-0.23500
666666;-0.23500
669444;-0.24500
672222;-0.23500
675000;-0.24000
677778;-0.21500
680555;-0.19000
683333;-0.19000
686111;-0.22000
688889;-0.26500
691666;-0.29500
694444;-0.30000
697222;-0.29500
700000;-0.32000
702778;-0.33500
705555;-0.36000
708333;-0.36000
711111;-0.34500
713889;-0.35000
716666;-0.34500
719444;-0.35500
722222;-0.37000
725000;-0.37500
727778;-0.37000
730555;-0.36000
733333;-0.35500
736111;-0.37500
738889;-0.37000
741666;-0.37000
744444;-0.37000
747222;-0.35500
750000;-0.36000
752778;-0.37000
755555;-0.37500
758333;-0.37500
761111;-0.37000
763889;-0.35500
766666;-0.37000
769444;-0.39000
772222;-0.40500
775000;-0.45000
777778;-0.48500
780555;-0.50000
783333;-0.53000
786111;-0.56500
788889;-0.60000
791666;-0.54000
794444;-0.41000
797222;-0.25000
800000;-0.06500
802778;0.17000
805555;0.45000
808333;0.71000
811111;0.88500
813889;0.93500
816666;0.79000
819444;0.42000
822222;-0.05000
825000;-0.42500
827778;-0.54500
830555;-0.50500
833333;-0.43000
836111;-0.40500
838889;-0.41500
841666;-0.43500
844444;-0.42500
847222;-0.41000
850000;-0.40500
852778;-0.41500
855555;-0.42500
858333;-0.44000
861111;-0.43000
863889;-0.41000
866666;-0.42000
869444;-0.42500
872222;-0.42500
875000;-0.43500
877778;-0.42000
880555;-0.41000
883333;-0.41500
886111;-0.42500
888889;-0.42500
891666;-0.43000
894444;-0.42500
897222;-0.41000
900000;-0.41000
902778;-0.43000
905555;-0.42500
908333;-0.43500
911111;-0.43500
913889;-0.42000
916666;-0.42500
919444;-0.42500
922222;-0.43500
925000;-0.43500
927778;-0.42500
930555;-0.42000
933333;-0.42500
936111;-0.43000
938889;-0.43000
941666;-0.44500
944444;-0.43500
947222;-0.42500
950000;-0.41500
952778;-0.42500
955555;-0.43500
958333;-0.42000
961111;-0.41000
963889;-0.40500
966666;-0.41000
969444;-0.41000
972222;-0.42500
975000;-0.43000
977778;-0.42500
980555;-0.42500
983333;-0.42000
986111;-0.43000
988889;-0.43500
991666;-0.44500
994444;-0.42500
997222;-0.42500
1000000;-0.41500
1002777;-0.43500
1005555;-0.44500
1008333;-0.44500
1011111;-0.42500
1013889;-0.43500
1016666;-0.42500
1019444;-0.43500
1022222;-0.45000
1025000;-0.45000
1027777;-0.43000
1030555;-0.43000
1033333;-0.43000
1036111;-0.44000
1038889;-0.45000
1041666;-0.44500
1044444;-0.44000
1047222;-0.43000
1050000;-0.44000
1052777;-0.43500
1055555;-0.45500
1058333;-0.45000
1061111;-0.44000
1063889;-0.43500
1066666;-0.43000
1069444;-0.42500
1072222;-0.43500
1075000;-0.43000
1077777;-0.41000
1080555;-0.40000
1083333;-0.39500
1086111;-0.38000
1088889;-0.38500
1091666;-0.37500
1094444;-0.36000
1097222;-0.35000
1100000;-0.34000
1102777;-0.35000
1105555;-0.35000
1108333;-0.34500
1111111;-0.31500
1113889;-0.29500
1116666;-0.30000
1119444;-0.29500
1122222;-0.31000
1125000;-0.30000
1127777;-0.29500
1130555;-0.28000
1133333;-0.28500
1136111;-0.28500
1138889;-0.31500
1141666;-0.30500
1144444;-0.30000
1147222;-0.28000
1150000;-0.29500
1152777;-0.29500
1155555;-0.30000
1158333;-0.31500
1161111;-0.30500
1163889;-0.29500
1166666;-0.29000
1169444;-0.29000
1172222;-0.29500
1175000;-0.30000
1177777;-0.30000
1180555;-0.29500
1183333;-0.30500
1186111;-0.31000
1188889;-0.30500
1191666;-0.31000
1194444;-0.31000
1197222;-0.30500
1200000;-0.31500
1202777;-0.31500
1205555;-0.32000
1208333;-0.32500
1211111;-0.32500
1213889;-0.31000
1216666;-0.32000
1219444;-0.32000
1222222;-0.34000
1225000;-0.33500
1227777;-0.33500
1230555;-0.32500
1233333;-0.33000
1236111;-0.32500
1238889;-0.34500
1241666;-0.34500
1244444;-0.33000
1247222;-0.33500
1250000;-0.31500
1252777;-0.33000
1255555;-0.34000
1258333;-0.33000
1261111;-0.32500
1263889;-0.33500
1266666;-0.34000
1269444;-0.33500
1272222;-0.35000
1275000;-0.36000
1277777;-0.35000
1280555;-0.34000
1283333;-0.33500
1286111;-0.34000
1288889;-0.34000
1291666;-0.35000
1294444;-0.35000
1297222;-0.33500
1300000;-0.33500
1302777;-0.33500
1305555;-0.35500
1308333;-0.36000
1311111;-0.34500
1313889;-0.33500
1316666;-0.32500
1319444;-0.33500
1322222;-0.34500
1325000;-0.34500
1327777;-0.33500
1330555;-0.32000
1333333;-0.32500
1336111;-0.33000
1338889;-0.33500
1341666;-0.32000
1344444;-0.31000
1347222;-0.30000
1350000;-0.29500
1352777;-0.30500
1355555;-0.30500
1358333;-0.28500
1361111;-0.28000
1363889;-0.25500
1366666;-0.25500
1369444;-0.25500
1372222;-0.25500
1375000;-0.25500
1377777;-0.24000
1380555;-0.22000
1383333;-0.20500
1386111;-0.21500
1388888;-0.21500
1391666;-0.22000
1394444;-0.21500
1397222;-0.20500
1400000;-0.21000
1402777;-0.23500
1405555;-0.22500
1408333;-0.23000
1411111;-0.21500
1413888;-0.19500
1416666;-0.18500
1419444;-0.18000
1422222;-0.19500
1425000;-0.24000
1427777;-0.25500
1430555;-0.25500
1433333;-0.28500
1436111;-0.27500
1438888;-0.31000
1441666;-0.34000
1444444;-0.33500
1447222;-0.32500
1450000;-0.34000
1452777;-0.34500
1455555;-0.34500
1458333;-0.34000
1461111;-0.33500
1463888;-0.33000
1466666;-0.33500
1469444;-0.34000
1472222;-0.35500
1475000;-0.36000
1477777;-0.35500
1480555;-0.35000
1483333;-0.35000
1486111;-0.35500
1488888;-0.36500
1491666;-0.37500
1494444;-0.35500
1497222;-0.35000
1500000;-0.35000
1502777;-0.35500
1505555;-0.37000
1508333;-0.38000
1511111;-0.38500
1513888;-0.40500
1516666;-0.44500
1519444;-0.49000
1522222;-0.52000
1525000;-0.56000
1527777;-0.58000
1530555;-0.53000
1533333;-0.41000
1536111;-0.28500
1538888;-0.19500
1541666;-0.10500
1544444;0.03000
1547222;0.18000
1550000;0.36000
1552777;0.56500
1555555;0.71000
1558333;0.83000
1561111;0.93000
1563888;0.95000
1566666;0.78000
1569444;0.39500
1572222;-0.06000
1575000;-0.40000
1577777;-0.53000
1580555;-0.51000
1583333;-0.44000
1586111;-0.41000
1588888;-0.41000
1591666;-0.42500
1594444;-0.42000
1597222;-0.41000
1600000;-0.40000
1602777;-0.41500
1605555;-0.43000
1608333;-0.42500
1611111;-0.42000
1613888;-0.41500
1616666;-0.41500
1619444;-0.42500
1622222;-0.43500
1625000;-0.45000
1627777;-0.42500
1630555;-0.42500
1633333;-0.43500
1636111;-0.43000
1638888;-0.43500
1641666;-0.44000
1644444;-0.43500
1647222;-0.43000
1650000;-0.43000
1652777;-0.43500
1655555;-0.43500
1658333;-0.45000
1661111;-0.43000
1663888;-0.42500
1666666;-0.42000
1669444;-0.43000
1672222;-0.43000
1675000;-0.42500
1677777;-0.41000
1680555;-0.40500
1683333;-0.40000
1686111;-0.41000
1688888;-0.41000
1691666;-0.41500
1694444;-0.40500
1697222;-0.40000
1700000;-0.40500
1702777;-0.42000
1705555;-0.42500
1708333;-0.44500
1711111;-0.43000
1713888;-0.42000
1716666;-0.41000
1719444;-0.43000
1722222;-0.43000
1725000;-0.44500
1727777;-0.42000
1730555;-0.42000
1733333;-0.42000
1736111;-0.41500
1738888;-0.43000
1741666;-0.43500
1744444;-0.41500
1747222;-0.41000
1750000;-0.40500
1752777;-0.41500
1755555;-0.42500
1758333;-0.43000
1761111;-0.42000
1763888;-0.42000
1766666;-0.42000
1769444;-0.42500
1772222;-0.44000
1775000;-0.45000
1777777;-0.44000
1780555;-0.42500
1783333;-0.43500
1786111;-0.43500
1788888;-0.46000
1791666;-0.46000
1794444;-0.44500
1797222;-0.44000
1799999;-0.43500
1802777;-0.44500
1805555;-0.44500
1808333;-0.45000
1811111;-0.43000
1813888;-0.42500
1816666;-0.42500
1819444;-0.42500
1822222;-0.42500
1824999;-0.42500
1827777;-0.43500
1830555;-0.42500
1833333;-0.43000
1836111;-0.43000
1838888;-0.43500
1841666;-0.43000
1844444;-0.40500
1847222;-0.40000
1849999;-0.37500
1852777;-0.37000
1855555;-0.37500
1858333;-0.37500
1861111;-0.34500
1863888;-0.33500
1866666;-0.33500
1869444;-0.33000
1872222;-0.33000
1874999;-0.32000
1877777;-0.31500
1880555;-0.32000
1883333;-0.32000
1886111;-0.30500
1888888;-0.32000
1891666;-0.32000
1894444;-0.30500
1897222;-0.30000
1899999;-0.30000
1902777;-0.30000
1905555;-0.31500
1908333;-0.32000
1911111;-0.31000
1913888;-0.31500
1916666;-0.30500
1919444;-0.30500
1922222;-0.31500
1924999;-0.32000
1927777;-0.31000
1930555;-0.31000
1933333;-0.31500
1936111;-0.33000
1938888;-0.34500
1941666;-0.34500
1944444;-0.33000
1947222;-0.33000
1949999;-0.32000
1952777;-0.32500
1955555;-0.33000
1958333;-0.33500
1961111;-0.33000
1963888;-0.32000
1966666;-0.31500
1969444;-0.32000
1972222;-0.32500
1974999;-0.34000
1977777;-0.32000
1980555;-0.33000
1983333;-0.33000
1986111;-0.34500
1988888;-0.35500
1991666;-0.36500
1994444;-0.35000
1997222;-0.35500
1999999;-0.35000
2002777;-0.35000
2005555;-0.37000
2008333;-0.37500
2011111;-0.37500
2013888;-0.34500
2016666;-0.36500
2019444;-0.37000
2022222;-0.37000
2024999;-0.38000
2027777;-0.37500
2030555;-0.35500
2033333;-0.36000
2036111;-0.37000
2038888;-0.38000
2041666;-0.38000
2044444;-0.36500
2047222;-0.36500
2049999;-0.36000
2052777;-0.35000
2055555;-0.36000
2058333;-0.38000
2061111;-0.36000
2063888;-0.35500
2066666;-0.36000
2069444;-0.37000
2072222;-0.38500
2074999;-0.38500
2077777;-0.37500
2080555;-0.36000
2083333;-0.35000
2086111;-0.37500
2088888;-0.37500
2091666;-0.37000
2094444;-0.36000
2097222;-0.34500
2099999;-0.34000
2102777;-0.34000
2105555;-0.36000
2108333;-0.37000
2111111;-0.35000
2113888;-0.35000
2116666;-0.35500
2119444;-0.35000
2122222;-0.35500
2124999;-0.35000
2127777;-0.34500
2130555;-0.33000
2133333;-0.32000
2136111;-0.32500
2138888;-0.32000
2141666;-0.32000
2144444;-0.30000
2147222;-0.29000
2149999;-0.28000
2152777;-0.28500
2155555;-0.28500
2158333;-0.28000
2161111;-0.27000
2163888;-0.26000
2166666;-0.25500
2169444;-0.24500
2172222;-0.25500
2174999;-0.25000
2177777;-0.24000
2180555;-0.23000
2183333;-0.24000
2186110;-0.26000
2188888;-0.27000
2191666;-0.25500
2194444;-0.25500
2197222;-0.24500
2199999;-0.23000
2202777;-0.23500
2205555;-0.22500
2208333;-0.22000
2211110;-0.25000
2213888;-0.26500
2216666;-0.28500
2219444;-0.30500
2222222;-0.33000
2224999;-0.35000
2227777;-0.35500
2230555;-0.34500
2233333;-0.35500
2236110;-0.37500
2238888;-0.38000
2241666;-0.38000
2244444;-0.37500
2247222;-0.38000
2249999;-0.36500
2252777;-0.36000
2255555;-0.38500
2258333;-0.40000
2261110;-0.38000
2263888;-0.37500
2266666;-0.38500
2269444;-0.38000
2272222;-0.39500
2274999;-0.39500
2277777;-0.39000
2280555;-0.38000
2283333;-0.38500
2286110;-0.38000
2288888;-0.38000
2291666;-0.39000
2294444;-0.37500
2297222;-0.37500
2299999;-0.37500
2302777;-0.38500
2305555;-0.41000
2308333;-0.45500
2311110;-0.48500
2313888;-0.50000
2316666;-0.53500
2319444;-0.58500
2322222;-0.61000
2324999;-0.57500
2327777;-0.46500
2330555;-0.30500
2333333;-0.13000
2336110;0.07000
2338888;0.30500
2341666;0.56500
2344444;0.77500
2347222;0.82000
2349999;0.73500
2352777;0.42000
2355555;0.02000
2358333;-0.34000
2361110;-0.52500
2363888;-0.54500
2366666;-0.48500
2369444;-0.45000
2372222;-0.44000
2374999;-0.44500
2377777;-0.43000
2380555;-0.43000
2383333;-0.44000
2386110;-0.44500
2388888;-0.44000
2391666;-0.43500
2394444;-0.42500
2397222;-0.42000
2399999;-0.43000
2402777;-0.45000
2405555;-0.44500
2408333;-0.45500
2411110;-0.44000
2413888;-0.43500
2416666;-0.44500
2419444;-0.44000
2422222;-0.44500
2424999;-0.45000
2427777;-0.44500
2430555;-0.44500
2433333;-0.44000
2436110;-0.44500
2438888;-0.45000
2441666;-0.46000
2444444;-0.44500
2447222;-0.42500
2449999;-0.42500
2452777;-0.43500
2455555;-0.44000
2458333;-0.45000
2461110;-0.43000
2463888;-0.42500
2466666;-0.42500
2469444;-0.44000
2472222;-0.45000
2474999;-0.45000
2477777;-0.43000
2480555;-0.43000
2483333;-0.42500
2486110;-0.43000
2488888;-0.45500
2491666;-0.43500
2494444;-0.43500
2497222;-0.42500
2499999;-0.42500
2502777;-0.43500
2505555;-0.44000
2508333;-0.45000
2511110;-0.44000
2513888;-0.43000
2516666;-0.43500
2519444;-0.43500
2522222;-0.45500
2524999;-0.46000
2527777;-0.44500
2530555;-0.43000
2533333;-0.42500
2536110;-0.44000
2538888;-0.45500
2541666;-0.45000
2544444;-0.45000
2547222;-0.44000
2549999;-0.43500
2552777;-0.43500
2555555;-0.44000
2558333;-0.44000
2561110;-0.43500
2563888;-0.43500
2566666;-0.44500
2569444;-0.46000
2572222;-0.45500
2574999;-0.46000
2577777;-0.45500
2580555;-0.44500
2583333;-0.44000
2586110;-0.45000
2588888;-0.45000
2591666;-0.46500
2594444;-0.45000
2597221;-0.46000
2599999;-0.45500
2602777;-0.47000
2605555;-0.48000
2608333;-0.48500
2611110;-0.47500
2613888;-0.45500
2616666;-0.45000
2619444;-0.44000
2622221;-0.45500
2624999;-0.45500
2627777;-0.45000
2630555;-0.44500
2633333;-0.43500
2636110;-0.43500
2638888;-0.43500
2641666;-0.44500
2644444;-0.42500
2647221;-0.40500
2649999;-0.39000
2652777;-0.38500
2655555;-0.38500
2658333;-0.37500
2661110;-0.36500
2663888;-0.34500
2666666;-0.34500
2669444;-0.34500
2672221;-0.35000
2674999;-0.35500
2677777;-0.34000
2680555;-0.33500
2683333;-0.33500
2686110;-0.33500
2688888;-0.33500
2691666;-0.33500
2694444;-0.33000
2697221;-0.32000
2699999;-0.32000
2702777;-0.34000
2705555;-0.34500
2708333;-0.36500
2711110;-0.35000
2713888;-0.33500
2716666;-0.34000
2719444;-0.35000
2722221;-0.35000
2724999;-0.36500
2727777;-0.35500
2730555;-0.34500
2733333;-0.34500
2736110;-0.34500
2738888;-0.34500
2741666;-0.34500
2744444;-0.33000
2747221;-0.33500
2749999;-0.34000
2752777;-0.35000
2755555;-0.36000
2758333;-0.36500
2761110;-0.36500
2763888;-0.34500
2766666;-0.35500
2769444;-0.36000
2772221;-0.37000
2774999;-0.37500
2777777;-0.37500
2780555;-0.37500
2783333;-0.38000
2786110;-0.39000
2788888;-0.39000
2791666;-0.40000
2794444;-0.38000
2797221;-0.37000
2799999;-0.38000
2802777;-0.38500
2805555;-0.39000
2808333;-0.39500
2811110;-0.39000
2813888;-0.39000
2816666;-0.40500
2819444;-0.41000
2822221;-0.40500
2824999;-0.41000
2827777;-0.39000
2830555;-0.38500
2833333;-0.37000
2836110;-0.38500
2838888;-0.39000
2841666;-0.40000
2844444;-0.38500
2847221;-0.39000
2849999;-0.38500
2852777;-0.39000
2855555;-0.40000
2858333;-0.40500
2861110;-0.38500
2863888;-0.38000
2866666;-0.38000
2869444;-0.38000
2872221;-0.39000
2874999;-0.39500
2877777;-0.38500
2880555;-0.37500
2883333;-0.37500
2886110;-0.37000
2888888;-0.39000
2891666;-0.41000
2894444;-0.39000
2897221;-0.38500
2899999;-0.39000
2902777;-0.40500
2905555;-0.41500
2908333;-0.40000
2911110;-0.39000
2913888;-0.37000
2916666;-0.37000
2919444;-0.37000
2922221;-0.37500
2924999;-0.39000
2927777;-0.38000
2930555;-0.36500
2933333;-0.37000
2936110;-0.36000
2938888;-0.37000
2941666;-0.37000
2944444;-0.34000
2947221;-0.33500
2949999;-0.33000
2952777;-0.33000
2955555;-0.34000
2958333;-0.33000
2961110;-0.32500
2963888;-0.31000
2966666;-0.31000
2969444;-0.30500
2972221;-0.30500
2974999;-0.30000
2977777;-0.29500
2980555;-0.26500
2983332;-0.26500
2986110;-0.26500
2988888;-0.27500
2991666;-0.27500
2994444;-0.27500
2997221;-0.26000
2999999;-0.26000
3002777;-0.27000
3005555;-0.28500
3008332;-0.29000
3011110;-0.28500
3013888;-0.27500
3016666;-0.26000
3019444;-0.27000
3022221;-0.26500
3024999;-0.28500
3027777;-0.29500
3030555;-0.31500
3033332;-0.31500
3036110;-0.34000
3038888;-0.35500
3041666;-0.38500
3044444;-0.40000
3047221;-0.38500
3049999;-0.39000
3052777;-0.39500
3055555;-0.40500
3058332;-0.42000
3061110;-0.42500
3063888;-0.41000
3066666;-0.40500
3069444;-0.40000
3072221;-0.40000
3074999;-0.41000
3077777;-0.40500
3080555;-0.39500
3083332;-0.39000
3086110;-0.40500
3088888;-0.41500
3091666;-0.41500
3094444;-0.42000
3097221;-0.43000
3099999;-0.41500
3102777;-0.42000
3105555;-0.43500
3108332;-0.43000
3111110;-0.42500
3113888;-0.43500
3116666;-0.46000
3119444;-0.49500
3122221;-0.52000
3124999;-0.55000
3127777;-0.58500
3130555;-0.61500
3133332;-0.58000
3136110;-0.50500
3138888;-0.39000
3141666;-0.25500
3144444;-0.08000
3147221;0.15000
3149999;0.41500
3152777;0.65500
3155555;0.79500
3158332;0.82000
3161110;0.72000
3163888;0.45000
3166666;0.05000
3169444;-0.29000
3172221;-0.49500
3174999;-0.57500
3177777;-0.58000
3180555;-0.56500
3183332;-0.52500
3186110;-0.48500
3188888;-0.49000
3191666;-0.48500
3194444;-0.47000
3197221;-0.46500
3199999;-0.46500
3202777;-0.47000
3205555;-0.47500
3208332;-0.48500
3211110;-0.47000
3213888;-0.46500
3216666;-0.46500
3219444;-0.47000
3222221;-0.48500
3224999;-0.49500
3227777;-0.49500
3230555;-0.48500
3233332;-0.48000
3236110;-0.47000
3238888;-0.48500
3241666;-0.48500
3244444;-0.47500
3247221;-0.45000
3249999;-0.45500
3252777;-0.47000
3255555;-0.47500
3258332;-0.50000
3261110;-0.48500
3263888;-0.48000
3266666;-0.48500
3269444;-0.47500
3272221;-0.48000
3274999;-0.48500
3277777;-0.46000
3280555;-0.46000
3283332;-0.45000
3286110;-0.45500
3288888;-0.47500
3291666;-0.47000
3294444;-0.46000
3297221;-0.46000
3299999;-0.47000
3302777;-0.46500
3305555;-0.47000
3308332;-0.48500
3311110;-0.47000
3313888;-0.47500
3316666;-0.47000
3319444;-0.49000
3322221;-0.48500
3324999;-0.49000
3327777;-0.47500
3330555;-0.47500
3333332;-0.47000
3336110;-0.48500
3338888;-0.49000
3341666;-0.50000
3344444;-0.48500
3347221;-0.46000
3349999;-0.45500
3352777;-0.47000
3355555;-0.47000
3358332;-0.48500
3361110;-0.48000
3363888;-0.47500
3366666;-0.48500
3369444;-0.49000
3372221;-0.49500
3374999;-0.49000
3377777;-0.49500
3380555;-0.49500
3383332;-0.49500
3386110;-0.49500
3388888;-0.51000
3391666;-0.51000
3394443;-0.49000
3397221;-0.49000
3399999;-0.49000
3402777;-0.50000
3405555;-0.51500
3408332;-0.53500
3411110;-0.51500
3413888;-0.51000
3416666;-0.51000
3419443;-0.53000
3422221;-0.54000
3424999;-0.55000
3427777;-0.54000
3430555;-0.53500
3433332;-0.54500
3436110;-0.54000
3438888;-0.55000
3441666;-0.53500
3444443;-0.54000
3447221;-0.52500
3449999;-0.50500
3452777;-0.50000
3455555;-0.50000
3458332;-0.50000
3461110;-0.47000
3463888;-0.44500
3466666;-0.43000
3469443;-0.42000
3472221;-0.41500
3474999;-0.41500
3477777;-0.40500
3480555;-0.38500
3483332;-0.38000
3486110;-0.38000
3488888;-0.38000
3491666;-0.37500
3494443;-0.36000
3497221;-0.36000
3499999;-0.34500
3502777;-0.35000
3505555;-0.34500
3508332;-0.36500
3511110;-0.35000
3513888;-0.34000
3516666;-0.34000
3519443;-0.34500
3522221;-0.36000
3524999;-0.35500
3527777;-0.34000
3530555;-0.34000
3533332;-0.34000
3536110;-0.34000
3538888;-0.35000
3541666;-0.34500
3544443;-0.33500
3547221;-0.32000
3549999;-0.32500
3552777;-0.32000
3555555;-0.33500
3558332;-0.33500
3561110;-0.33000
3563888;-0.32000
3566666;-0.32000
3569443;-0.33000
3572221;-0.34000
3574999;-0.35500
3577777;-0.34500
3580555;-0.33500
3583332;-0.34000
3586110;-0.35000
3588888;-0.35500
3591666;-0.36500
3594443;-0.35500
3597221;-0.35500
3599999;-0.35000
3602777;-0.35500
3605555;-0.36500
3608332;-0.36500
3611110;-0.36000
3613888;-0.35500
3616666;-0.35000
3619443;-0.34500
3622221;-0.36500
3624999;-0.37500
3627777;-0.35000
3630555;-0.34000
3633332;-0.35000
3636110;-0.36000
3638888;-0.37000
3641666;-0.37000
3644443;-0.35500
3647221;-0.34500
3649999;-0.34000
3652777;-0.35000
3655555;-0.35500
3658332;-0.36000
3661110;-0.35000
3663888;-0.32500
3666666;-0.33500
3669443;-0.33500
3672221;-0.35000
3674999;-0.35500
3677777;-0.35500
3680555;-0.35000
3683332;-0.34500
3686110;-0.34500
3688888;-0.34500
3691666;-0.35500
3694443;-0.33000
3697221;-0.34000
3699999;-0.34000
3702777;-0.32500
3705555;-0.33500
3708332;-0.34500
3711110;-0.33000
3713888;-0.32500
3716666;-0.33000
3719443;-0.33500
3722221;-0.35000
3724999;-0.35500
3727777;-0.34500
3730555;-0.32500
3733332;-0.33000
3736110;-0.36000
3738888;-0.35000
3741666;-0.35500
3744443;-0.34000
3747221;-0.33500
3749999;-0.33000
3752777;-0.32500
3755555;-0.33500
3758332;-0.34000
3761110;-0.32000
3763888;-0.30500
3766666;-0.30000
3769443;-0.29500
3772221;-0.31000
3774999;-0.30500
3777777;-0.29500
3780554;-0.28000
3783332;-0.27500
3786110;-0.27500
3788888;-0.27500
3791666;-0.28500
3794443;-0.27000
3797221;-0.25500
3799999;-0.25500
3802777;-0.25500
3805554;-0.25000
3808332;-0.25000
3811110;-0.23000
3813888;-0.23000
3816666;-0.22000
3819443;-0.23000
3822221;-0.24500
3824999;-0.26500
3827777;-0.24500
3830554;-0.23000
3833332;-0.22500
3836110;-0.23500
3838888;-0.24500
3841666;-0.23000
3844443;-0.20000
3847221;-0.19500
3849999;-0.21000
3852777;-0.25500
3855554;-0.29000
3858332;-0.31500
3861110;-0.30500
3863888;-0.31500
3866666;-0.32500
3869443;-0.34000
3872221;-0.37000
3874999;-0.37000
3877777;-0.35000
3880554;-0.34000
3883332;-0.34500
3886110;-0.35500
3888888;-0.36000
3891666;-0.37500
3894443;-0.36500
3897221;-0.36500
3899999;-0.36000
3902777;-0.36500
3905554;-0.37500
3908332;-0.39000
3911110;-0.37500
3913888;-0.37500
3916666;-0.38000
3919443;-0.37500
3922221;-0.38000
3924999;-0.38500
3927777;-0.38000
3930554;-0.37500
3933332;-0.37500
3936110;-0.41500
3938888;-0.45000
3941666;-0.49000
3944443;-0.51000
3947221;-0.52000
3949999;-0.56500
3952777;-0.59000
3955554;-0.57000
3958332;-0.48500
3961110;-0.37500
3963888;-0.27500
3966666;-0.20000
3969443;-0.12500
3972221;-0.04000
3974999;0.06500
3977777;0.24000
3980554;0.43500
3983332;0.65500
3986110;0.83500
3988888;0.91500
3991666;0.90000
3994443;0.69000
3997221;0.35000
3999999;-0.06500
4002777;-0.38500
4005554;-0.52000
4008332;-0.51500
4011110;-0.45500
4013888;-0.41500
4016666;-0.40500
4019443;-0.41000
4022221;-0.42000
4024999;-0.42500
4027777;-0.41500
4030554;-0.40500
4033332;-0.42000
4036110;-0.41500
4038888;-0.42000
4041666;-0.44000
4044443;-0.42500
4047221;-0.43000
4049999;-0.43000
4052777;-0.42500
4055554;-0.43000
4058332;-0.44000
4061110;-0.44000
4063888;-0.43000
4066666;-0.42000
4069443;-0.43500
4072221;-0.44000
4074999;-0.43500
4077777;-0.42000
4080554;-0.41000
4083332;-0.41500
4086110;-0.41500
4088888;-0.42000
4091666;-0.42000
4094443;-0.41000
4097221;-0.41500
4099999;-0.41500
4102777;-0.42000
4105554;-0.43500
4108332;-0.43500
4111110;-0.44500
4113888;-0.42000
4116666;-0.42000
4119443;-0.43500
4122221;-0.44500
4124999;-0.43000
4127777;-0.42500
4130554;-0.42500
4133332;-0.42500
4136110;-0.44000
4138888;-0.44000
4141666;-0.44500
4144443;-0.43500
4147221;-0.44000
4149999;-0.42000
4152777;-0.43500
4155554;-0.43500
4158332;-0.44500
4161110;-0.42000
4163888;-0.42000
4166666;-0.41500
4169443;-0.42500
4172221;-0.43500
4174999;-0.43500
4177777;-0.42500
4180554;-0.42500
4183332;-0.41500
4186110;-0.43000
4188888;-0.43500
4191665;-0.44500
4194443;-0.43000
4197221;-0.43000
4199999;-0.43500
4202777;-0.43500
4205554;-0.44500
4208332;-0.45000
4211110;-0.44500
4213888;-0.43500
4216665;-0.44500
4219443;-0.44500
4222221;-0.46000
4224999;-0.46500
4227777;-0.46000
4230554;-0.44500
4233332;-0.45500
4236110;-0.46000
4238888;-0.46500
4241665;-0.47000
4244443;-0.46000
4247221;-0.46000
4249999;-0.45000
4252777;-0.45000
4255554;-0.44500
4258332;-0.45500
4261110;-0.45000
4263888;-0.44000
4266665;-0.43500
4269443;-0.43000
4272221;-0.44000
4274999;-0.44500
4277777;-0.44000
4280554;-0.44000
4283332;-0.43500
4286110;-0.43500
4288888;-0.44000
4291665;-0.44500
4294443;-0.41500
4297221;-0.39500
4299999;-0.37500
4302777;-0.37000
4305554;-0.38000
4308332;-0.36500
4311110;-0.35500
4313888;-0.33500
4316665;-0.33000
4319443;-0.33000
4322221;-0.32500
4324999;-0.33000
4327777;-0.32000
4330554;-0.30500
4333332;-0.30000
4336110;-0.30000
4338888;-0.30000
4341665;-0.31000
4344443;-0.29500
4347221;-0.29000
4349999;-0.28500
4352777;-0.28500
4355554;-0.31000
4358332;-0.30500
4361110;-0.31000
4363888;-0.29500
4366665;-0.30000
4369443;-0.30000
4372221;-0.31000
4374999;-0.32000
4377777;-0.31000
4380554;-0.29500
4383332;-0.30500
4386110;-0.30500
4388888;-0.31000
4391665;-0.32000
4394443;-0.31500
4397221;-0.31000
4399999;-0.30500
4402777;-0.31500
4405554;-0.32500
4408332;-0.33500
4411110;-0.32500
4413888;-0.31000
4416665;-0.31500
4419443;-0.31500
4422221;-0.32500
4424999;-0.33000
4427777;-0.32000
4430554;-0.31500
4433332;-0.31000
4436110;-0.32000
4438888;-0.33000
4441665;-0.35000
4444443;-0.34000
4447221;-0.34000
4449999;-0.33000
4452777;-0.34000
4455554;-0.34000
4458332;-0.34500
4461110;-0.34000
4463888;-0.34000
4466665;-0.34000
4469443;-0.35500
4472221;-0.35500
4474999;-0.35500
4477777;-0.34500
4480554;-0.33000
4483332;-0.33500
4486110;-0.33500
4488888;-0.34500
4491665;-0.35500
4494443;-0.34000
4497221;-0.34000
4499999;-0.33500
4502777;-0.34500
4505554;-0.35500
4508332;-0.36000
4511110;-0.36000
4513888;-0.34500
4516665;-0.35000
4519443;-0.34000
4522221;-0.35500
4524999;-0.35500
4527777;-0.35000
4530554;-0.33000
4533332;-0.35000
4536110;-0.34500
4538888;-0.35000
4541665;-0.35000
4544443;-0.34000
4547221;-0.32500
4549999;-0.32000
4552777;-0.32500
4555554;-0.32000
4558332;-0.32000
4561110;-0.30000
4563888;-0.28500
4566665;-0.28000
4569443;-0.28500
4572221;-0.28500
4574999;-0.28000
4577776;-0.27000
4580554;-0.25500
4583332;-0.25500
4586110;-0.25000
4588888;-0.25000
4591665;-0.24000
4594443;-0.23500
4597221;-0.21500
4599999;-0.21500
4602776;-0.22000
4605554;-0.24000
4608332;-0.25500
4611110;-0.25000
4613888;-0.24500
4616665;-0.23000
4619443;-0.23500
4622221;-0.24500
4624999;-0.24500
4627776;-0.22500
4630554;-0.19500
4633332;-0.18500
4636110;-0.21500
4638888;-0.24000
4641665;-0.28000
4644443;-0.28000
4647221;-0.28500
4649999;-0.29000
4652776;-0.30500
4655554;-0.32000
4658332;-0.33500
4661110;-0.34000
4663888;-0.35000
4666665;-0.35500
4669443;-0.36000
4672221;-0.36500
4674999;-0.36500
4677776;-0.37000
4680554;-0.36500
4683332;-0.36500
4686110;-0.37000
4688888;-0.38000
4691665;-0.39500
4694443;-0.38500
4697221;-0.37500
4699999;-0.38000
4702776;-0.38500
4705554;-0.39500
4708332;-0.40000
4711110;-0.38500
4713888;-0.36500
4716665;-0.36000
4719443;-0.37000
4722221;-0.38500
4724999;-0.39000
4727776;-0.38000
4730554;-0.40000
4733332;-0.43500
4736110;-0.47500
4738888;-0.50000
4741665;-0.52500
4744443;-0.55500
4747221;-0.60000
4749999;-0.57000
4752776;-0.49500
4755554;-0.37000
4758332;-0.23000
4761110;-0.05500
4763888;0.15500
4766665;0.43000
4769443;0.68500
4772221;0.85000
4774999;0.91500
4777776;0.87000
4780554;0.66000
4783332;0.29500
4786110;-0.12500
4788888;-0.41500
4791665;-0.52500
4794443;-0.49500
4797221;-0.44000
4799999;-0.40000
4802776;-0.39500
4805554;-0.40500
4808332;-0.41000
4811110;-0.41000
4813888;-0.40500
4816665;-0.40500
4819443;-0.42000
4822221;-0.43000
4824999;-0.43000
4827776;-0.43500
4830554;-0.41500
4833332;-0.41000
4836110;-0.41500
4838888;-0.44000
4841665;-0.44500
4844443;-0.44500
4847221;-0.43000
4849999;-0.42500
4852776;-0.42000
4855554;-0.43000
4858332;-0.45000
4861110;-0.44000
4863888;-0.42000
4866665;-0.43500
4869443;-0.43500
4872221;-0.44000
4874999;-0.44500
4877776;-0.43500
4880554;-0.42500
4883332;-0.42500
4886110;-0.41500
4888888;-0.41500
4891665;-0.42500
4894443;-0.42000
4897221;-0.42000
4899999;-0.40500
4902776;-0.41500
4905554;-0.41500
4908332;-0.42000
4911110;-0.42000
4913888;-0.41000
4916665;-0.41500
4919443;-0.43000
4922221;-0.42500
4924999;-0.43500
4927776;-0.41500
4930554;-0.41500
4933332;-0.41000
4936110;-0.42000
4938888;-0.42000
4941665;-0.42500
4944443;-0.42500
4947221;-0.41500
4949999;-0.40000
4952776;-0.40000
4955554;-0.41000
4958332;-0.41500
4961110;-0.41000
4963887;-0.41000
4966665;-0.41000
4969443;-0.41000
4972221;-0.42500
4974999;-0.42500
4977776;-0.41500
4980554;-0.43500
4983332;-0.42500
4986110;-0.42500
4988887;-0.42500
4991665;-0.44000
4994443;-0.43000
4997221;-0.41000
4999999;-0.42000
5002776;-0.43000
5005554;-0.43500
5008332;-0.44500
5011110;-0.43000
5013887;-0.43000
5016665;-0.43500
5019443;-0.43000
5022221;-0.43000
5024999;-0.44000
5027776;-0.43500
5030554;-0.42500
5033332;-0.42500
5036110;-0.42500
5038887;-0.43000
5041665;-0.44500
5044443;-0.42500
5047221;-0.43000
5049999;-0.41000
5052776;-0.42000
5055554;-0.42000
5058332;-0.43000
5061110;-0.42000
5063887;-0.40500
5066665;-0.40500
5069443;-0.41000
5072221;-0.41000
5074999;-0.40500
5077776;-0.38500
5080554;-0.38000
5083332;-0.37500
5086110;-0.36500
5088887;-0.37000
5091665;-0.36500
5094443;-0.33500
5097221;-0.32500
5099999;-0.31500
5102776;-0.32000
5105554;-0.32000
5108332;-0.33000
5111110;-0.31500
5113887;-0.29000
5116665;-0.29000
5119443;-0.29000
5122221;-0.30500
5124999;-0.30500
5127776;-0.28500
5130554;-0.27500
5133332;-0.29000
5136110;-0.29000
5138887;-0.28500
5141665;-0.29500
5144443;-0.30000
5147221;-0.29000
5149999;-0.28500
5152776;-0.29000
5155554;-0.30500
5158332;-0.30000
5161110;-0.30500
5163887;-0.29000
5166665;-0.29500
5169443;-0.30500
5172221;-0.31000
5174999;-0.31500
5177776;-0.31000
5180554;-0.29500
5183332;-0.29500
5186110;-0.29500
5188887;-0.30500
5191665;-0.30000
5194443;-0.30500
5197221;-0.31000
5199999;-0.30000
5202776;-0.30000
5205554;-0.30500
5208332;-0.31000
5211110;-0.31000
5213887;-0.30000
5216665;-0.30500
5219443;-0.30000
5222221;-0.32000
5224999;-0.32500
5227776;-0.32500
5230554;-0.32000
5233332;-0.30500
5236110;-0.31500
5238887;-0.32500
5241665;-0.33500
5244443;-0.32500
5247221;-0.31500
5249999;-0.32000
5252776;-0.33500
5255554;-0.35000
5258332;-0.34500
5261110;-0.33500
5263887;-0.33000
5266665;-0.32000
5269443;-0.33000
5272221;-0.33500
5274999;-0.34000
5277776;-0.33000
5280554;-0.31500
5283332;-0.32000
5286110;-0.31000
5288887;-0.31500
5291665;-0.33500
5294443;-0.32000
5297221;-0.31500
5299999;-0.31500
5302776;-0.31000
5305554;-0.32500
5308332;-0.32500
5311110;-0.33500
5313887;-0.33500
5316665;-0.32500
5319443;-0.32500
5322221;-0.33500
5324999;-0.34500
5327776;-0.34000
5330554;-0.32000
5333332;-0.32500
5336110;-0.32500
5338887;-0.33500
5341665;-0.35000
5344443;-0.33500
5347221;-0.32000
5349999;-0.33000
5352776;-0.32500
5355554;-0.32500
5358332;-0.34000
5361110;-0.32500
5363887;-0.30500
5366665;-0.29000
5369443;-0.27500
5372221;-0.29000
5374998;-0.28000
5377776;-0.27000
5380554;-0.26000
5383332;-0.24500
5386110;-0.25500
5388887;-0.25000
5391665;-0.24500
5394443;-0.23500
5397221;-0.20500
5399998;-0.20000
5402776;-0.21000
5405554;-0.20500
5408332;-0.20500
5411110;-0.21000
5413887;-0.20000
5416665;-0.21500
5419443;-0.22000
5422221;-0.21500
5424998;-0.22000
5427776;-0.21000
5430554;-0.20500
5433332;-0.20000
5436110;-0.19000
5438887;-0.17500
5441665;-0.19000
5444443;-0.22000
5447221;-0.24000
5449998;-0.25000
5452776;-0.26000
5455554;-0.28000
5458332;-0.30000
5461110;-0.31500
5463887;-0.31500
5466665;-0.33000
5469443;-0.33000
5472221;-0.33500
5474998;-0.34000
5477776;-0.32500
5480554;-0.33000
5483332;-0.31000
5486110;-0.31000
5488887;-0.31500
5491665;-0.32000
5494443;-0.32000
5497221;-0.31500
5499998;-0.32000
5502776;-0.32500
5505554;-0.34500
5508332;-0.35000
5511110;-0.34000
5513887;-0.33500
5516665;-0.33500
5519443;-0.33500
5522221;-0.35000
5524998;-0.35000
5527776;-0.34500
5530554;-0.33000
5533332;-0.33500
5536110;-0.35000
5538887;-0.36000
5541665;-0.37500
5544443;-0.40500
5547221;-0.43500
5549998;-0.47000
5552776;-0.51000
5555554;-0.56500
5558332;-0.58000
5561110;-0.53000
5563887;-0.41000
5566665;-0.27000
5569443;-0.11500
5572221;0.06000
5574998;0.28500
5577776;0.57000
5580554;0.79500
5583332;0.93000
5586110;0.93500
5588887;0.76500
5591665;0.40500
5594443;0.00000
5597221;-0.32000
5599998;-0.46500
5602776;-0.48500
5605554;-0.45000
5608332;-0.41000
5611110;-0.38500
5613887;-0.38000
5616665;-0.37500
5619443;-0.38500
5622221;-0.38000
5624998;-0.38500
5627776;-0.39000
5630554;-0.39000
5633332;-0.38500
5636110;-0.39000
5638887;-0.40000
5641665;-0.40000
5644443;-0.39000
5647221;-0.38000
5649998;-0.38500
5652776;-0.38500
5655554;-0.39500
5658332;-0.39500
5661110;-0.38500
5663887;-0.37500
5666665;-0.37000
5669443;-0.37500
5672221;-0.39000
5674998;-0.39000
5677776;-0.38000
5680554;-0.36000
5683332;-0.37000
5686110;-0.38000
5688887;-0.39000
5691665;-0.41000
5694443;-0.40000
5697221;-0.38500
5699998;-0.38500
5702776;-0.37500
5705554;-0.39500
5708332;-0.39500
5711110;-0.38500
5713887;-0.38000
5716665;-0.36000
5719443;-0.36500
5722221;-0.37000
5724998;-0.37000
5727776;-0.36500
5730554;-0.36000
5733332;-0.36000
5736110;-0.37500
5738887;-0.38500
5741665;-0.38500
5744443;-0.37500
5747221;-0.37000
5749998;-0.36000
5752776;-0.36000
5755554;-0.37000
5758332;-0.37500
5761109;-0.37000
5763887;-0.36500
5766665;-0.36500
5769443;-0.37000
5772221;-0.37500
5774998;-0.38000
5777776;-0.38500
5780554;-0.37500
5783332;-0.37500
5786109;-0.38000
5788887;-0.38000
5791665;-0.39000
5794443;-0.38000
5797221;-0.38500
5799998;-0.37000
5802776;-0.38500
5805554;-0.38000
5808332;-0.39500
5811109;-0.39000
5813887;-0.37500
5816665;-0.38500
5819443;-0.38500
5822221;-0.38500
5824998;-0.40000
5827776;-0.38000
5830554;-0.38000
5833332;-0.39000
5836109;-0.38500
5838887;-0.40500
5841665;-0.41000
5844443;-0.41500
5847221;-0.41500
5849998;-0.40500
5852776;-0.41500
5855554;-0.41000
5858332;-0.41500
5861109;-0.40500
5863887;-0.39500
5866665;-0.39500
5869443;-0.40500
5872221;-0.41000
5874998;-0.41500
5877776;-0.39000
5880554;-0.37000
5883332;-0.34500
5886109;-0.35000
5888887;-0.33500
5891665;-0.34000
5894443;-0.33000
5897221;-0.31500
5899998;-0.32000
5902776;-0.30000
5905554;-0.30500
5908332;-0.31000
5911109;-0.29500
5913887;-0.28500
5916665;-0.27000
5919443;-0.27500
5922221;-0.29000
5924998;-0.29000
5927776;-0.28500
5930554;-0.27000
5933332;-0.27500
5936109;-0.28500
5938887;-0.28500
5941665;-0.30000
5944443;-0.28500
5947221;-0.29000
5949998;-0.28000
5952776;-0.27500
5955554;-0.28000
5958332;-0.29000
5961109;-0.30500
5963887;-0.28000
5966665;-0.28000
5969443;-0.28000
5972221;-0.28500
5974998;-0.29000
5977776;-0.27500
5980554;-0.27500
5983332;-0.26500
5986109;-0.27000
5988887;-0.28500
5991665;-0.29500
5994443;-0.29000
5997221;-0.29500
5999998;-0.28500
6002776;-0.28500
6005554;-0.29000
6008332;-0.30500
6011109;-0.30000
6013887;-0.30000
6016665;-0.30000
6019443;-0.31000
6022221;-0.32000
6024998;-0.32000
6027776;-0.31500
6030554;-0.31500
6033332;-0.31000
6036109;-0.32000
6038887;-0.33000
6041665;-0.32500
6044443;-0.32000
6047221;-0.31500
6049998;-0.31000
6052776;-0.32000
6055554;-0.32000
6058332;-0.31500
6061109;-0.30500
6063887;-0.30500
6066665;-0.30500
6069443;-0.32500
6072221;-0.34000
6074998;-0.35500
6077776;-0.35000
6080554;-0.34500
6083332;-0.33500
6086109;-0.34000
6088887;-0.33500
6091665;-0.34000
6094443;-0.32500
6097221;-0.32500
6099998;-0.34000
6102776;-0.35000
6105554;-0.35000
6108332;-0.36000
6111109;-0.33500
6113887;-0.32000
6116665;-0.32000
6119443;-0.32000
6122221;-0.34000
6124998;-0.33000
6127776;-0.32000
6130554;-0.32000
6133332;-0.32000
6136109;-0.31500
6138887;-0.32500
6141665;-0.34000
6144443;-0.34000
6147221;-0.32500
6149998;-0.32000
6152776;-0.32500
6155554;-0.34000
6158332;-0.33000
6161109;-0.33000
6163887;-0.32000
6166665;-0.33500
6169443;-0.34500
6172220;-0.34500
6174998;-0.34500
6177776;-0.34000
6180554;-0.31500
6183332;-0.31500
6186109;-0.32500
6188887;-0.32000
6191665;-0.31000
6194443;-0.30500
6197220;-0.30500
6199998;-0.30000
6202776;-0.30000
6205554;-0.28500
6208332;-0.29000
6211109;-0.27000
6213887;-0.25500
6216665;-0.24500
6219443;-0.25500
6222220;-0.26000
6224998;-0.27500
6227776;-0.25500
6230554;-0.24000
6233332;-0.24000
6236109;-0.23500
6238887;-0.24500
6241665;-0.23500
6244443;-0.22000
6247220;-0.20000
6249998;-0.20000
6252776;-0.22500
6255554;-0.24500
6258332;-0.24500
6261109;-0.23500
6263887;-0.22000
6266665;-0.23000
6269443;-0.23000
6272220;-0.23000
6274998;-0.23500
6277776;-0.20000
6280554;-0.19000
6283332;-0.21000
6286109;-0.25500
6288887;-0.29500
6291665;-0.30500
6294443;-0.30500
6297220;-0.33000
6299998;-0.32500
6302776;-0.34000
6305554;-0.35000
6308332;-0.36000
6311109;-0.35500
6313887;-0.33500
6316665;-0.36000
6319443;-0.35500
6322220;-0.37500
6324998;-0.38500
6327776;-0.37000
6330554;-0.34500
6333332;-0.34000
6336109;-0.34000
6338887;-0.36000
6341665;-0.37500
6344443;-0.37000
6347220;-0.37000
6349998;-0.36500
6352776;-0.38000
6355554;-0.38000
6358332;-0.39000
6361109;-0.38000
6363887;-0.38500
6366665;-0.39500
6369443;-0.42500
6372220;-0.46000
6374998;-0.49000
6377776;-0.50500
6380554;-0.54000
6383332;-0.54500
6386109;-0.49000
6388887;-0.38500
6391665;-0.24000
6394443;-0.07000
6397220;0.14500
6399998;0.43000
6402776;0.67000
6405554;0.84000
6408332;0.89500
6411109;0.80500
6413887;0.55000
6416665;0.17000
6419443;-0.14500
6422220;-0.35000
6424998;-0.47000
6427776;-0.52500
6430554;-0.54500
6433332;-0.55500
6436109;-0.56000
6438887;-0.55000
6441665;-0.52000
6444443;-0.47500
6447220;-0.45500
6449998;-0.43500
6452776;-0.44500
6455554;-0.45000
6458332;-0.44000
6461109;-0.42500
6463887;-0.41500
6466665;-0.41500
6469443;-0.42500
6472220;-0.44000
6474998;-0.44000
6477776;-0.41000
6480554;-0.42000
6483332;-0.41500
6486109;-0.41500
6488887;-0.42000
6491665;-0.42500
6494443;-0.41500
6497220;-0.40000
6499998;-0.41500
6502776;-0.42000
6505554;-0.42000
6508332;-0.43500
6511109;-0.43500
6513887;-0.43500
6516665;-0.43000
6519443;-0.43500
6522220;-0.43500
6524998;-0.44500
6527776;-0.42000
6530554;-0.44500
6533332;-0.43500
6536109;-0.42000
6538887;-0.44500
6541665;-0.44000
6544443;-0.43000
6547220;-0.42000
6549998;-0.41000
6552776;-0.42500
6555554;-0.42500
6558331;-0.43500
6561109;-0.42000
6563887;-0.42500
6566665;-0.42500
6569443;-0.42000
6572220;-0.43000
6574998;-0.44000
6577776;-0.42500
6580554;-0.42500
6583331;-0.42500
6586109;-0.43500
6588887;-0.44000
6591665;-0.44500
6594443;-0.43000
6597220;-0.41000
6599998;-0.41000
6602776;-0.41000
6605554;-0.41500
6608331;-0.43000
6611109;-0.42000
6613887;-0.40000
6616665;-0.40500
6619443;-0.42000
6622220;-0.44000
6624998;-0.45000
6627776;-0.43500
6630554;-0.45000
6633331;-0.43000
6636109;-0.45000
6638887;-0.46500
6641665;-0.48500
6644443;-0.48000
6647220;-0.47500
6649998;-0.47000
6652776;-0.48000
6655554;-0.47500
6658331;-0.50000
6661109;-0.50000
6663887;-0.49000
6666665;-0.50000
6669443;-0.50000
6672220;-0.51500
6674998;-0.53000
6677776;-0.52000
6680554;-0.50500
6683331;-0.49500
6686109;-0.48500
6688887;-0.48000
6691665;-0.48000
6694443;-0.46500
6697220;-0.45500
6699998;-0.42000
6702776;-0.42000
6705554;-0.40500
6708331;-0.40000
6711109;-0.37000
6713887;-0.36000
6716665;-0.34500
6719443;-0.34500
6722220;-0.33500
6724998;-0.33500
6727776;-0.32000
6730554;-0.31000
6733331;-0.30500
6736109;-0.31000
6738887;-0.32000
6741665;-0.32500
6744443;-0.30500
6747220;-0.28500
6749998;-0.28000
6752776;-0.28500
6755554;-0.29500
6758331;-0.29500
6761109;-0.28500
6763887;-0.28500
6766665;-0.29000
6769443;-0.28500
6772220;-0.29500
6774998;-0.30500
6777776;-0.29500
6780554;-0.28500
6783331;-0.29500
6786109;-0.28000
6788887;-0.30000
6791665;-0.30000
6794443;-0.30000
6797220;-0.29500
6799998;-0.29000
6802776;-0.30500
6805554;-0.30500
6808331;-0.31000
6811109;-0.30500
6813887;-0.29000
6816665;-0.29000
6819443;-0.29500
6822220;-0.31000
6824998;-0.31500
6827776;-0.31000
6830554;-0.30000
6833331;-0.29000
6836109;-0.29500
6838887;-0.30500
6841665;-0.31500
6844443;-0.30000
6847220;-0.28500
6849998;-0.29500
6852776;-0.30500
6855554;-0.31500
6858331;-0.33000
6861109;-0.32500
6863887;-0.30500
6866665;-0.31000
6869443;-0.31000
6872220;-0.31500
6874998;-0.31500
6877776;-0.31000
6880554;-0.30500
6883331;-0.30500
6886109;-0.30000
6888887;-0.30500
6891665;-0.30500
6894443;-0.30500
6897220;-0.29000
6899998;-0.29500
6902776;-0.28500
6905554;-0.29500
6908331;-0.30000
6911109;-0.31000
6913887;-0.29500
6916665;-0.29500
6919443;-0.29000
6922220;-0.29500
6924998;-0.31500
6927776;-0.30000
6930554;-0.29500
6933331;-0.29000
6936109;-0.30000
6938887;-0.31000
6941665;-0.31500
6944442;-0.30500
6947220;-0.30500
6949998;-0.30000
6952776;-0.29500
6955554;-0.30500
6958331;-0.30500
6961109;-0.29500
6963887;-0.29000
6966665;-0.28500
6969442;-0.28500
6972220;-0.29000
6974998;-0.30000
6977776;-0.28500
6980554;-0.28500
6983331;-0.28000
6986109;-0.29500
6988887;-0.30500
6991665;-0.29500
6994442;-0.29000
6997220;-0.26000
6999998;-0.25000
7002776;-0.26500
7005554;-0.27000
7008331;-0.27000
7011109;-0.25500
7013887;-0.23000
7016665;-0.22500
7019442;-0.23000
7022220;-0.24000
7024998;-0.23000
7027776;-0.21000
7030554;-0.19000
7033331;-0.17500
7036109;-0.18500
7038887;-0.19500
7041665;-0.19500
7044442;-0.17000
7047220;-0.17500
7049998;-0.17500
7052776;-0.19000
7055554;-0.21000
7058331;-0.20500
7061109;-0.20500
7063887;-0.19000
7066665;-0.18500
7069442;-0.19500
7072220;-0.19000
7074998;-0.18500
7077776;-0.17000
7080554;-0.18500
7083331;-0.20500
7086109;-0.24000
7088887;-0.25500
7091665;-0.27500
7094442;-0.28500
7097220;-0.30000
7099998;-0.30000
7102776;-0.30500
7105554;-0.32000
7108331;-0.32500
7111109;-0.32000
7113887;-0.30000
7116665;-0.30000
7119442;-0.31000
7122220;-0.31500
7124998;-0.33000
7127776;-0.33500
7130554;-0.32500
7133331;-0.33000
7136109;-0.33000
7138887;-0.33000
7141665;-0.35000
7144442;-0.34000
7147220;-0.33500
7149998;-0.33500
7152776;-0.33000
7155554;-0.34500
7158331;-0.35500
7161109;-0.37500
7163887;-0.39000
7166665;-0.42500
7169442;-0.46000
7172220;-0.48000
7174998;-0.52500
7177776;-0.53000
7180554;-0.47000
7183331;-0.34000
7186109;-0.17500
7188887;-0.00500
7191665;0.22500
7194442;0.53500
7197220;0.81000
7199998;0.96500
7202776;0.99000
7205554;0.79000
7208331;0.39000
7211109;-0.05500
7213887;-0.37500
7216665;-0.49000
7219442;-0.47000
7222220;-0.42500
7224998;-0.39500
7227776;-0.37000
7230554;-0.36500
7233331;-0.37000
7236109;-0.37500
7238887;-0.37500
7241665;-0.38500
7244442;-0.37500
7247220;-0.37500
7249998;-0.37500
7252776;-0.37500
7255554;-0.39000
7258331;-0.38500
7261109;-0.39000
7263887;-0.38000
7266665;-0.37500
7269442;-0.37500
7272220;-0.38500
7274998;-0.39500
7277776;-0.38500
7280554;-0.38500
7283331;-0.39000
7286109;-0.38500
7288887;-0.39500
7291665;-0.39000
7294442;-0.39000
7297220;-0.37500
7299998;-0.38500
7302776;-0.39500
7305554;-0.40500
7308331;-0.41000
7311109;-0.40000
7313887;-0.38500
7316665;-0.38000
7319442;-0.39000
7322220;-0.38500
7324998;-0.40000
7327776;-0.38000
7330554;-0.37500
7333331;-0.37000
7336109;-0.39000
7338887;-0.39500
7341665;-0.39500
7344442;-0.39500
7347220;-0.37500
7349998;-0.37500
7352776;-0.38000
7355553;-0.39000
7358331;-0.40000
7361109;-0.39000
7363887;-0.38500
7366665;-0.38500
7369442;-0.39000
7372220;-0.40500
7374998;-0.40000
7377776;-0.39500
7380553;-0.39000
7383331;-0.38500
7386109;-0.38500
7388887;-0.39000
7391665;-0.39000
7394442;-0.38000
7397220;-0.37000
7399998;-0.37500
7402776;-0.38500
7405553;-0.38500
7408331;-0.40000
7411109;-0.38500
7413887;-0.39000
7416665;-0.38500
7419442;-0.38500
7422220;-0.39500
7424998;-0.40000
7427776;-0.40500
7430553;-0.40000
7433331;-0.40000
7436109;-0.40500
7438887;-0.43000
7441665;-0.43500
7444442;-0.42000
7447220;-0.41000
7449998;-0.40500
7452776;-0.42000
7455553;-0.41000
7458331;-0.42000
7461109;-0.41000
7463887;-0.39000
7466665;-0.40000
7469442;-0.39000
7472220;-0.39500
7474998;-0.39000
7477776;-0.38500
7480553;-0.35500
7483331;-0.35000
7486109;-0.34000
7488887;-0.32500
7491665;-0.32000
7494442;-0.29500
7497220;-0.28500
7499998;-0.28000
7502776;-0.28000
7505553;-0.28500
7508331;-0.30000
7511109;-0.27500
7513887;-0.27000
7516665;-0.24500
7519442;-0.25000
7522220;-0.25500
7524998;-0.24500
7527776;-0.24500
7530553;-0.24500
7533331;-0.23500
7536109;-0.24000
7538887;-0.25500
7541665;-0.26000
7544442;-0.25500
7547220;-0.24000
7549998;-0.24500
7552776;-0.24500
7555553;-0.26500
7558331;-0.25500
7561109;-0.25000
7563887;-0.24000
7566665;-0.26000
7569442;-0.25500
7572220;-0.26500
7574998;-0.27000
7577776;-0.26000
7580553;-0.24500
7583331;-0.24500
7586109;-0.24500
7588887;-0.25500
7591665;-0.26000
7594442;-0.26000
7597220;-0.25500
7599998;-0.24500
7602776;-0.26500
7605553;-0.27500
7608331;-0.27500
7611109;-0.27500
7613887;-0.26000
7616665;-0.26000
7619442;-0.27000
7622220;-0.28000
7624998;-0.29000
7627776;-0.27500
7630553;-0.28500
7633331;-0.27500
7636109;-0.28500
7638887;-0.29000
7641665;-0.30000
7644442;-0.30000
7647220;-0.29500
7649998;-0.28500
7652776;-0.28500
7655553;-0.29000
7658331;-0.30000
7661109;-0.30000
7663887;-0.29000
7666665;-0.29000
7669442;-0.30000
7672220;-0.30500
7674998;-0.32000
7677776;-0.29500
7680553;-0.30000
7683331;-0.29000
7686109;-0.29000
7688887;-0.30000
7691665;-0.30500
7694442;-0.30000
7697220;-0.30500
7699998;-0.30000
7702776;-0.29500
7705553;-0.32000
7708331;-0.31500
7711109;-0.30500
7713887;-0.29500
7716665;-0.29000
7719442;-0.28500
7722220;-0.28500
7724998;-0.29000
7727776;-0.28000
7730553;-0.27000
7733331;-0.25000
7736109;-0.24500
7738887;-0.24500
7741664;-0.25500
7744442;-0.24000
7747220;-0.22000
7749998;-0.21500
7752776;-0.22500
7755553;-0.23000
7758331;-0.23000
7761109;-0.21000
7763887;-0.18500
7766664;-0.18000
7769442;-0.18000
7772220;-0.18500
7774998;-0.19000
7777776;-0.18500
7780553;-0.18000
7783331;-0.18500
7786109;-0.18500
7788887;-0.19500
7791664;-0.19500
7794442;-0.17500
7797220;-0.16500
7799998;-0.17000
7802776;-0.15000
7805553;-0.13500
7808331;-0.16000
7811109;-0.19500
7813887;-0.22500
7816664;-0.22500
7819442;-0.23000
7822220;-0.26500
7824998;-0.28500
7827776;-0.28500
7830553;-0.29500
7833331;-0.29000
7836109;-0.30000
7838887;-0.32000
7841664;-0.33000
7844442;-0.30500
7847220;-0.30500
7849998;-0.30500
7852776;-0.30500
7855553;-0.32500
7858331;-0.32500
7861109;-0.31500
7863887;-0.31000
7866664;-0.31000
7869442;-0.32000
7872220;-0.33500
7874998;-0.33500
7877776;-0.33000
7880553;-0.33500
7883331;-0.31500
7886109;-0.34000
7888887;-0.33500
7891664;-0.34000
7894442;-0.34000
7897220;-0.33500
7899998;-0.35000
7902776;-0.36500
7905553;-0.40000
7908331;-0.44500
7911109;-0.45500
7913887;-0.44500
7916664;-0.45500
7919442;-0.49500
7922220;-0.55000
7924998;-0.55000
7927776;-0.45500
7930553;-0.28500
7933331;-0.11500
7936109;0.08000
7938887;0.33000
7941664;0.61500
7944442;0.86500
7947220;1.00000
7949998;0.96500
7952776;0.70500
7955553;0.27500
7958331;-0.19000
7961109;-0.45500
7963887;-0.49000
7966664;-0.42000
7969442;-0.36000
7972220;-0.35500
7974998;-0.38500
7977776;-0.38500
7980553;-0.36500
7983331;-0.35500
7986109;-0.36500
7988887;-0.37500
7991664;-0.39000
7994442;-0.38500
7997220;-0.39000
7999998;-0.38000
8002776;-0.38500
8005553;-0.39500
8008331;-0.40500
8011109;-0.40500
8013887;-0.40000
8016664;-0.39000
8019442;-0.39000
8022220;-0.39000
8024998;-0.40000
8027776;-0.39500
8030553;-0.39000
8033331;-0.38500
8036109;-0.38000
8038887;-0.39000
8041664;-0.38500
8044442;-0.38000
8047220;-0.37000
8049998;-0.36500
8052776;-0.37500
8055553;-0.37500
8058331;-0.38500
8061109;-0.37500
8063887;-0.37000
8066664;-0.37000
8069442;-0.37500
8072220;-0.37500
8074998;-0.39000
8077776;-0.38000
8080553;-0.38000
8083331;-0.37000
8086109;-0.37000
8088887;-0.38500
8091664;-0.39500
8094442;-0.38500
8097220;-0.38000
8099998;-0.37500
8102776;-0.38000
8105553;-0.38500
8108331;-0.38500
8111109;-0.37000
8113887;-0.36500
8116664;-0.36000
8119442;-0.35000
8122220;-0.37000
8124998;-0.36500
8127776;-0.35500
8130553;-0.35500
8133331;-0.35500
8136109;-0.35500
8138887;-0.36500
8141664;-0.38000
8144442;-0.37000
8147220;-0.37500
8149998;-0.36500
8152775;-0.37500
8155553;-0.37500
8158331;-0.39500
8161109;-0.38000
8163887;-0.37500
8166664;-0.37500
8169442;-0.37500
8172220;-0.39000
8174998;-0.39500
8177775;-0.39000
8180553;-0.38500
8183331;-0.38000
8186109;-0.38500
8188887;-0.39500
8191664;-0.39500
8194442;-0.38500
8197220;-0.38000
8199998;-0.37000
8202775;-0.38000
8205553;-0.36500
8208331;-0.38000
8211109;-0.36000
8213887;-0.34500
8216664;-0.34000
8219442;-0.33000
8222220;-0.32500
8224998;-0.33000
8227775;-0.31500
8230553;-0.29500
8233331;-0.28500
8236109;-0.28000
8238887;-0.29000
8241664;-0.29000
8244442;-0.28000
8247220;-0.25500
8249998;-0.25000
8252775;-0.25000
8255553;-0.25000
8258331;-0.25500
8261109;-0.25000
8263887;-0.23500
8266664;-0.22500
8269442;-0.24000
8272220;-0.24500
8274998;-0.25500
8277775;-0.25500
8280553;-0.25000
8283331;-0.25000
8286109;-0.24500
8288887;-0.25500
8291664;-0.26500
8294442;-0.25500
8297220;-0.25000
8299998;-0.25000
8302775;-0.25500
8305553;-0.25500
8308331;-0.27500
8311109;-0.26500
8313887;-0.25500
8316664;-0.26000
8319442;-0.26500
8322220;-0.28000
8324998;-0.28000
8327775;-0.25500
8330553;-0.25000
8333331;-0.24000
8336109;-0.25000
8338887;-0.25500
8341664;-0.26500
8344442;-0.27000
8347220;-0.26500
8349998;-0.25500
8352775;-0.26000
8355553;-0.27000
8358331;-0.27500
8361109;-0.26000
8363887;-0.26500
8366664;-0.27000
8369442;-0.27500
8372220;-0.29000
8374998;-0.29000
8377775;-0.29000
8380553;-0.28000
8383331;-0.27000
8386109;-0.28500
8388887;-0.29000
8391664;-0.31000
8394442;-0.31500
8397220;-0.30500
8399998;-0.31000
8402775;-0.31000
8405553;-0.30500
8408331;-0.31000
8411109;-0.31500
8413887;-0.29500
8416664;-0.29500
8419442;-0.29500
8422220;-0.30000
8424998;-0.31000
8427775;-0.29500
8430553;-0.30500
8433331;-0.30000
8436109;-0.30000
8438887;-0.30000
8441664;-0.31000
8444442;-0.30500
8447220;-0.29500
8449998;-0.29000
8452775;-0.29500
8455553;-0.30500
8458331;-0.30000
8461109;-0.31000
8463887;-0.28500
8466664;-0.28000
8469442;-0.28500
8472220;-0.28500
8474998;-0.29500
8477775;-0.28500
8480553;-0.26500
8483331;-0.25500
8486109;-0.25500
8488887;-0.25500
8491664;-0.25500
8494442;-0.24000
8497220;-0.22500
8499998;-0.22500
8502775;-0.21500
8505553;-0.22500
8508331;-0.23500
8511109;-0.22000
8513887;-0.21000
8516664;-0.19000
8519442;-0.18000
8522220;-0.18500
8524998;-0.18000
8527775;-0.17500
8530553;-0.17000
8533331;-0.17000
8536109;-0.17000
8538886;-0.19500
8541664;-0.21500
8544442;-0.19500
8547220;-0.17000
8549998;-0.16500
8552775;-0.18000
8555553;-0.18000
8558331;-0.16500
8561109;-0.13500
8563886;-0.13000
8566664;-0.11000
8569442;-0.13500
8572220;-0.18000
8574998;-0.21500
8577775;-0.22500
8580553;-0.23000
8583331;-0.22000
8586109;-0.24500
8588886;-0.25000
8591664;-0.27500
8594442;-0.27500
8597220;-0.28500
8599998;-0.28500
8602775;-0.29500
8605553;-0.29500
8608331;-0.31000
8611109;-0.30500
8613886;-0.30000
8616664;-0.29000
8619442;-0.30500
8622220;-0.32000
8624998;-0.32000
8627775;-0.32000
8630553;-0.32000
8633331;-0.31000
8636109;-0.31500
8638886;-0.32500
8641664;-0.33500
8644442;-0.33500
8647220;-0.31000
8649998;-0.31500
8652775;-0.32500
8655553;-0.33000
8658331;-0.33500
8661109;-0.34500
8663886;-0.36000
8666664;-0.39500
8669442;-0.43000
8672220;-0.44500
8674998;-0.50000
8677775;-0.53500
8680553;-0.53000
8683331;-0.43500
8686109;-0.29500
8688886;-0.15500
8691664;0.03500
8694442;0.28500
8697220;0.57500
8699998;0.82000
8702775;0.96500
8705553;0.97000
8708331;0.79500
8711109;0.45000
8713886;0.04000
8716664;-0.28500
8719442;-0.46000
8722220;-0.46000
8724998;-0.40500
8727775;-0.35500
8730553;-0.34000
8733331;-0.35000
8736109;-0.36000
8738886;-0.35000
8741664;-0.35500
8744442;-0.36000
8747220;-0.35000
8749998;-0.34500
8752775;-0.36000
8755553;-0.36500
8758331;-0.38000
8761109;-0.36500
8763886;-0.35500
8766664;-0.35000
8769442;-0.36000
8772220;-0.36500
8774998;-0.37500
8777775;-0.37000
8780553;-0.36000
8783331;-0.36000
8786109;-0.36500
8788886;-0.37000
8791664;-0.38000
8794442;-0.37000
8797220;-0.35500
8799998;-0.35500
8802775;-0.36500
8805553;-0.36500
8808331;-0.37500
8811109;-0.37000
8813886;-0.36000
8816664;-0.35000
8819442;-0.36000
8822220;-0.36500
8824998;-0.37500
8827775;-0.37000
8830553;-0.35500
8833331;-0.34500
8836109;-0.34500
8838886;-0.35500
8841664;-0.36000
8844442;-0.35500
8847220;-0.33500
8849998;-0.34000
8852775;-0.35000
8855553;-0.34500
8858331;-0.35500
8861109;-0.34500
8863886;-0.33500
8866664;-0.34000
8869442;-0.35000
8872220;-0.35500
8874998;-0.37500
8877775;-0.36500
8880553;-0.36500
8883331;-0.35500
8886109;-0.35500
8888886;-0.37000
8891664;-0.37000
8894442;-0.37000
8897220;-0.36000
8899998;-0.34500
8902775;-0.35000
8905553;-0.36000
8908331;-0.36500
8911109;-0.37000
8913886;-0.36000
8916664;-0.35000
8919442;-0.36500
8922220;-0.38000
8924998;-0.38000
8927775;-0.38000
8930553;-0.37500
8933331;-0.37500
8936109;-0.37500
8938886;-0.38500
8941664;-0.39000
8944442;-0.37500
8947220;-0.37500
8949997;-0.36500
8952775;-0.38000
8955553;-0.37500
8958331;-0.38500
8961109;-0.37000
8963886;-0.37500
8966664;-0.35500
8969442;-0.36000
8972220;-0.36500
8974997;-0.37000
8977775;-0.37500
8980553;-0.36000
8983331;-0.35500
8986109;-0.35500
8988886;-0.35000
8991664;-0.35000
8994442;-0.33500
8997220;-0.32000
8999997;-0.30000
9002775;-0.29500
9005553;-0.29500
9008331;-0.29000
9011109;-0.26500
9013886;-0.26500
9016664;-0.24500
9019442;-0.25000
9022220;-0.26000
9024997;-0.26500
9027775;-0.25000
9030553;-0.25000
9033331;-0.23500
9036109;-0.25000
9038886;-0.25000
9041664;-0.26500
9044442;-0.26500
9047220;-0.24000
9049997;-0.23500
9052775;-0.25000
9055553;-0.25500
9058331;-0.26500
9061109;-0.25500
9063886;-0.24500
9066664;-0.24000
9069442;-0.24000
9072220;-0.24500
9074997;-0.27000
9077775;-0.25000
9080553;-0.24000
9083331;-0.23000
9086109;-0.24500
9088886;-0.26000
9091664;-0.26500
9094442;-0.26000
9097220;-0.25000
9099997;-0.23000
9102775;-0.24000
9105553;-0.25500
9108331;-0.28000
9111109;-0.27000
9113886;-0.25000
9116664;-0.24500
9119442;-0.25500
9122220;-0.26000
9124997;-0.26000
9127775;-0.26500
9130553;-0.26500
9133331;-0.27000
9136109;-0.27500
9138886;-0.27500
9141664;-0.30000
9144442;-0.28000
9147220;-0.27500
9149997;-0.27000
9152775;-0.27500
9155553;-0.28000
9158331;-0.28000
9161109;-0.29500
9163886;-0.29000
9166664;-0.28500
9169442;-0.29000
9172220;-0.29000
9174997;-0.31000
9177775;-0.30000
9180553;-0.29000
9183331;-0.28500
9186109;-0.28000
9188886;-0.28000
9191664;-0.29000
9194442;-0.28000
9197220;-0.28000
9199997;-0.28000
9202775;-0.28500
9205553;-0.30500
9208331;-0.33000
9211109;-0.31500
9213886;-0.30000
9216664;-0.29500
9219442;-0.30500
9222220;-0.30500
9224997;-0.31000
9227775;-0.31500
9230553;-0.31500
9233331;-0.30000
9236109;-0.30000
9238886;-0.31000
9241664;-0.32500
9244442;-0.32000
9247220;-0.31000
9249997;-0.30500
9252775;-0.30000
9255553;-0.31000
9258331;-0.30000
9261109;-0.31500
9263886;-0.28500
9266664;-0.29500
9269442;-0.29500
9272220;-0.29000
9274997;-0.31500
9277775;-0.31000
9280553;-0.30000
9283331;-0.30000
9286109;-0.29000
9288886;-0.29000
9291664;-0.30500
9294442;-0.30500
9297220;-0.30500
9299997;-0.30000
9302775;-0.30000
9305553;-0.31000
9308331;-0.31500
9311109;-0.29500
9313886;-0.27500
9316664;-0.25500
9319442;-0.25500
9322220;-0.25500
9324997;-0.26000
9327775;-0.25500
9330553;-0.23500
9333331;-0.23000
9336108;-0.21500
9338886;-0.24000
9341664;-0.24000
9344442;-0.23000
9347220;-0.21500
9349997;-0.21500
9352775;-0.21000
9355553;-0.22000
9358331;-0.23000
9361108;-0.20000
9363886;-0.19500
9366664;-0.19000
9369442;-0.19000
9372220;-0.20000
9374997;-0.22000
9377775;-0.21000
9380553;-0.19500
9383331;-0.19000
9386108;-0.19000
9388886;-0.19500
9391664;-0.19000
9394442;-0.17500
9397220;-0.18000
9399997;-0.21000
9402775;-0.23500
9405553;-0.25500
9408331;-0.27500
9411108;-0.29500
9413886;-0.31000
9416664;-0.30500
9419442;-0.31500
9422220;-0.32000
9424997;-0.34000
9427775;-0.33500
9430553;-0.32500
9433331;-0.31500
9436108;-0.32000
9438886;-0.32500
9441664;-0.34500
9444442;-0.35000
9447220;-0.33500
9449997;-0.33500
9452775;-0.34000
9455553;-0.33000
9458331;-0.33000
9461108;-0.32500
9463886;-0.33000
9466664;-0.31000
9469442;-0.30500
9472220;-0.32500
9474997;-0.34000
9477775;-0.33000
9480553;-0.32500
9483331;-0.32500
9486108;-0.32500
9488886;-0.33500
9491664;-0.35000
9494442;-0.35500
9497220;-0.35000
9499997;-0.35000
9502775;-0.38000
9505553;-0.43000
9508331;-0.46500
9511108;-0.47500
9513886;-0.51000
9516664;-0.54000
9519442;-0.51500
9522220;-0.45000
9524997;-0.34000
9527775;-0.18500
9530553;-0.03500
9533331;0.16500
9536108;0.40000
9538886;0.62000
9541664;0.78500
9544442;0.88000
9547220;0.86500
9549997;0.65500
9552775;0.32500
9555553;-0.01000
9558331;-0.26000
9561108;-0.40500
9563886;-0.44500
9566664;-0.43500
9569442;-0.40000
9572220;-0.39500
9574997;-0.39500
9577775;-0.39000
9580553;-0.37500
9583331;-0.36500
9586108;-0.37000
9588886;-0.37000
9591664;-0.38000
9594442;-0.38000
9597220;-0.38500
9599997;-0.38000
9602775;-0.39500
9605553;-0.40500
9608331;-0.38500
9611108;-0.38000
9613886;-0.37500
9616664;-0.37000
9619442;-0.37500
9622220;-0.38000
9624997;-0.40000
9627775;-0.38000
9630553;-0.37500
9633331;-0.36000
9636108;-0.35500
9638886;-0.36000
9641664;-0.37000
9644442;-0.37000
9647220;-0.36500
9649997;-0.37000
9652775;-0.37500
9655553;-0.38500
9658331;-0.39500
9661108;-0.39000
9663886;-0.39000
9666664;-0.37500
9669442;-0.37500
9672220;-0.39000
9674997;-0.39500
9677775;-0.38500
9680553;-0.39000
9683331;-0.38500
9686108;-0.39500
9688886;-0.38500
9691664;-0.38500
9694442;-0.38000
9697220;-0.37500
9699997;-0.38000
9702775;-0.38000
9705553;-0.38000
9708331;-0.39000
9711108;-0.38500
9713886;-0.36000
9716664;-0.35500
9719442;-0.35500
9722220;-0.37000
9724997;-0.38500
9727775;-0.38000
9730553;-0.36500
9733331;-0.36500
9736108;-0.37500
9738886;-0.38500
9741664;-0.40000
9744442;-0.38500
9747219;-0.38500
9749997;-0.37500
9752775;-0.38000
9755553;-0.37500
9758331;-0.40000
9761108;-0.39000
9763886;-0.39500
9766664;-0.38500
9769442;-0.38000
9772219;-0.40000
9774997;-0.42000
9777775;-0.39500
9780553;-0.38500
9783331;-0.37500
9786108;-0.38000
9788886;-0.40500
9791664;-0.43000
9794442;-0.42000
9797219;-0.41000
9799997;-0.41500
9802775;-0.41000
9805553;-0.43000
9808331;-0.46000
9811108;-0.45500
9813886;-0.44000
9816664;-0.43500
9819442;-0.42500
9822219;-0.43000
9824997;-0.44500
9827775;-0.46000
9830553;-0.45000
9833331;-0.44000
9836108;-0.43000
9838886;-0.42000
9841664;-0.41000
9844442;-0.39000
9847219;-0.38500
9849997;-0.36500
9852775;-0.34500
9855553;-0.34500
9858331;-0.33500
9861108;-0.32000
9863886;-0.29000
9866664;-0.29000
9869442;-0.28500
9872219;-0.30500
9874997;-0.31500
9877775;-0.30500
9880553;-0.28000
9883331;-0.26500
9886108;-0.25500
9888886;-0.26000
9891664;-0.27000
9894442;-0.26000
9897219;-0.25500
9899997;-0.24500
9902775;-0.26500
9905553;-0.27000
9908331;-0.28000
9911108;-0.27500
9913886;-0.28000
9916664;-0.26500
9919442;-0.26000
9922219;-0.26000
9924997;-0.27000
9927775;-0.27000
9930553;-0.27000
9933331;-0.25500
9936108;-0.25500
9938886;-0.26500
9941664;-0.27000
9944442;-0.26500
9947219;-0.27500
9949997;-0.27000
9952775;-0.28000
9955553;-0.27500
9958331;-0.28000
9961108;-0.27000
9963886;-0.26500
9966664;-0.26000
9969442;-0.28500
9972219;-0.29000
9974997;-0.30500
9977775;-0.29000
9980553;-0.28500
9983331;-0.29000
9986108;-0.27500
9988886;-0.29500
9991664;-0.30000
9994442;-0.31000
9997219;-0.28000
9999997;-0.28000
10002775;-0.27500
10005553;-0.30000
10008331;-0.31500
10011108;-0.31000
10013886;-0.31000
10016664;-0.30000
10019442;-0.30500
10022219;-0.30500
10024997;-0.31500
10027775;-0.31500
10030553;-0.29500
10033331;-0.29500
10036108;-0.30500
10038886;-0.32000
10041664;-0.33000
10044442;-0.32500
10047219;-0.31000
10049997;-0.30500
10052775;-0.31500
10055553;-0.32000
10058331;-0.33000
10061108;-0.32500
10063886;-0.31000
10066664;-0.30500
10069442;-0.30000
10072219;-0.30500
10074997;-0.31500
10077775;-0.30000
10080553;-0.30000
10083331;-0.29000
10086108;-0.29500
10088886;-0.30000
10091664;-0.30500
10094442;-0.30000
10097219;-0.30000
10099997;-0.29500
10102775;-0.29000
10105553;-0.30000
10108331;-0.32000
10111108;-0.31000
10113886;-0.29500
10116664;-0.29000
10119442;-0.29000
10122219;-0.29500
10124997;-0.31500
10127775;-0.31000
10130553;-0.30000
10133330;-0.31000
10136108;-0.30000
10138886;-0.31500
10141664;-0.31500
10144442;-0.31000
10147219;-0.30000
10149997;-0.30000
10152775;-0.29500
10155553;-0.30000
10158330;-0.29000
10161108;-0.29000
10163886;-0.27500
10166664;-0.27000
10169442;-0.25000
10172219;-0.26000
10174997;-0.28000
10177775;-0.26500
10180553;-0.24500
10183330;-0.21500
10186108;-0.22500
10188886;-0.23000
10191664;-0.23500
10194442;-0.22000
10197219;-0.20500
10199997;-0.19000
10202775;-0.18500
10205553;-0.19000
10208330;-0.20000
10211108;-0.18500
10213886;-0.18000
10216664;-0.18500
10219442;-0.19000
10222219;-0.20500
10224997;-0.20500
10227775;-0.19000
10230553;-0.17500
10233330;-0.16500
10236108;-0.18000
10238886;-0.18000
10241664;-0.18000
10244442;-0.16500
10247219;-0.17500
10249997;-0.20000
10252775;-0.22000
10255553;-0.23500
10258330;-0.25500
10261108;-0.26500
10263886;-0.27500
10266664;-0.27500
10269442;-0.29000
10272219;-0.30500
10274997;-0.32000
10277775;-0.31000
10280553;-0.30500
10283330;-0.30500
10286108;-0.29500
10288886;-0.31000
10291664;-0.31500
10294442;-0.31000
10297219;-0.30000
10299997;-0.29500
10302775;-0.30500
10305553;-0.32000
10308330;-0.32500
10311108;-0.32000
10313886;-0.31500
10316664;-0.31500
10319442;-0.32500
10322219;-0.32500
10324997;-0.34000
10327775;-0.33500
10330553;-0.32500
10333330;-0.31000
10336108;-0.32500
10338886;-0.33500
10341664;-0.35000
10344442;-0.36000
10347219;-0.38500
10349997;-0.41000
10352775;-0.43500
10355553;-0.47000
10358330;-0.50000
10361108;-0.53500
10363886;-0.54500
10366664;-0.51000
10369442;-0.43500
10372219;-0.34500
10374997;-0.24000
10377775;-0.11000
10380553;0.02000
10383330;0.20000
10386108;0.43000
10388886;0.64000
10391664;0.80000
10394442;0.93000
10397219;0.98000
10399997;0.91000
10402775;0.66000
10405553;0.27000
10408330;-0.11000
10411108;-0.35000
10413886;-0.45000
10416664;-0.45500
10419442;-0.43000
10422219;-0.40500
10424997;-0.38500
10427775;-0.37500
10430553;-0.36500
10433330;-0.38000
10436108;-0.37000
10438886;-0.37500
10441664;-0.38000
10444442;-0.38000
10447219;-0.38000
10449997;-0.37500
10452775;-0.37500
10455553;-0.37500
10458330;-0.38500
10461108;-0.38000
10463886;-0.37500
10466664;-0.37000
10469442;-0.37500
10472219;-0.38500
10474997;-0.38500
10477775;-0.38500
10480553;-0.36500
10483330;-0.36500
10486108;-0.38000
10488886;-0.38500
10491664;-0.39500
10494442;-0.38500
10497219;-0.38000
10499997;-0.37000
10502775;-0.37500
10505553;-0.40500
10508330;-0.41000
10511108;-0.40500
10513886;-0.38500
10516664;-0.38500
10519441;-0.38500
10522219;-0.39500
10524997;-0.41000
10527775;-0.39500
10530553;-0.39500
10533330;-0.38000
10536108;-0.38500
10538886;-0.38500
10541664;-0.39500
10544441;-0.38500
10547219;-0.37500
10549997;-0.37000
10552775;-0.37500
10555553;-0.38000
10558330;-0.39500
10561108;-0.38500
10563886;-0.38500
10566664;-0.38000
10569441;-0.38500
10572219;-0.38500
10574997;-0.39500
10577775;-0.38500
10580553;-0.39000
10583330;-0.37500
10586108;-0.38500
10588886;-0.39500
10591664;-0.40000
10594441;-0.40000
10597219;-0.38500
10599997;-0.37500
10602775;-0.38000
10605553;-0.39000
10608330;-0.39500
10611108;-0.39000
10613886;-0.39000
10616664;-0.38000
10619441;-0.38000
10622219;-0.38500
10624997;-0.38500
10627775;-0.39500
10630553;-0.39500
10633330;-0.38000
10636108;-0.40000
10638886;-0.40500
10641664;-0.42500
10644441;-0.42500
10647219;-0.42000
10649997;-0.41500
10652775;-0.41500
10655553;-0.43000
10658330;-0.43000
10661108;-0.44000
10663886;-0.44000
10666664;-0.42500
10669441;-0.43000
10672219;-0.43500
10674997;-0.44500
10677775;-0.43500
10680553;-0.43500
10683330;-0.42000
10686108;-0.41500
10688886;-0.40500
10691664;-0.40000
10694441;-0.38000
10697219;-0.36000
10699997;-0.35000
10702775;-0.33500
10705553;-0.32500
10708330;-0.32500
10711108;-0.31000
10713886;-0.30500
10716664;-0.27500
10719441;-0.28000
10722219;-0.29500
10724997;-0.29500
10727775;-0.27500
10730553;-0.27000
10733330;-0.25500
10736108;-0.25500
10738886;-0.26500
10741664;-0.28000
10744441;-0.27000
10747219;-0.26500
10749997;-0.24500
10752775;-0.25000
10755553;-0.26000
10758330;-0.27500
10761108;-0.25500
10763886;-0.25500
10766664;-0.25000
10769441;-0.24000
10772219;-0.25500
10774997;-0.26500
10777775;-0.26500
10780553;-0.26000
10783330;-0.25500
10786108;-0.25000
10788886;-0.24000
10791664;-0.25500
10794441;-0.25500
10797219;-0.24500
10799997;-0.25500
10802775;-0.25500
10805553;-0.26000
10808330;-0.27000
10811108;-0.27000
10813886;-0.27500
10816664;-0.25500
10819441;-0.24500
10822219;-0.26000
10824997;-0.28500
10827775;-0.26500
10830553;-0.27500
10833330;-0.27500
10836108;-0.27500
10838886;-0.28500
10841664;-0.29500
10844441;-0.29000
10847219;-0.29000
10849997;-0.29000
10852775;-0.29000
10855553;-0.29500
10858330;-0.30500
10861108;-0.29000
10863886;-0.29500
10866664;-0.28500
10869441;-0.28500
10872219;-0.28500
10874997;-0.29500
10877775;-0.29500
10880553;-0.28500
10883330;-0.30000
10886108;-0.30000
10888886;-0.29500
10891664;-0.31500
10894441;-0.31000
10897219;-0.29500
10899997;-0.30000
10902775;-0.30500
10905553;-0.31000
10908330;-0.31500
10911108;-0.31500
10913886;-0.32000
10916664;-0.30000
10919441;-0.30500
10922219;-0.31500
10924997;-0.32500
10927775;-0.31500
10930552;-0.30000
10933330;-0.30000
10936108;-0.30000
10938886;-0.31000
10941664;-0.31000
10944441;-0.30000
10947219;-0.29000
10949997;-0.27500
10952775;-0.27500
10955552;-0.27500
10958330;-0.27500
10961108;-0.27000
10963886;-0.25500
10966664;-0.23500
10969441;-0.23500
10972219;-0.24500
10974997;-0.25000
10977775;-0.24000
10980552;-0.22500
10983330;-0.20500
10986108;-0.20500
10988886;-0.19500
10991664;-0.20000
10994441;-0.19000
10997219;-0.19000
10999997;-0.19000
11002775;-0.21000
11005552;-0.21500
11008330;-0.21000
11011108;-0.20500
11013886;-0.20000
11016664;-0.19000
11019441;-0.17000
11022219;-0.15500
11024997;-0.16500
11027775;-0.18500
11030552;-0.20000
11033330;-0.22500
11036108;-0.25000
11038886;-0.26000
11041664;-0.26000
11044441;-0.26500
11047219;-0.26500
11049997;-0.28000
11052775;-0.29000
11055552;-0.30500
11058330;-0.33000
11061108;-0.34000
11063886;-0.32500
11066664;-0.32000
11069441;-0.32000
11072219;-0.32000
11074997;-0.34000
11077775;-0.33500
11080552;-0.33000
11083330;-0.32500
11086108;-0.33000
11088886;-0.34500
11091664;-0.34500
11094441;-0.36000
11097219;-0.34000
11099997;-0.34000
11102775;-0.34000
11105552;-0.35500
11108330;-0.37500
11111108;-0.36000
11113886;-0.35500
11116664;-0.34500
11119441;-0.35500
11122219;-0.37500
11124997;-0.39000
11127775;-0.43000
11130552;-0.46000
11133330;-0.47500
11136108;-0.51500
11138886;-0.56500
11141664;-0.58500
11144441;-0.52000
11147219;-0.41500
11149997;-0.27500
11152775;-0.16000
11155552;-0.04500
11158330;0.08500
11161108;0.29500
11163886;0.55000
11166664;0.80000
11169441;0.98500
11172219;1.05500
11174997;0.97000
11177775;0.70000
11180552;0.27000
11183330;-0.15000
11186108;-0.40500
11188886;-0.47500
11191664;-0.44500
11194441;-0.40000
11197219;-0.36500
11199997;-0.37000
11202775;-0.38500
11205552;-0.39500
11208330;-0.40000
11211108;-0.39500
11213886;-0.38500
11216664;-0.37500
11219441;-0.39000
11222219;-0.39500
11224997;-0.41000
11227775;-0.41000
11230552;-0.40000
11233330;-0.39500
11236108;-0.40500
11238886;-0.40000
11241664;-0.41500
11244441;-0.41000
11247219;-0.39500
11249997;-0.40000
11252775;-0.40000
11255552;-0.41000
11258330;-0.42000
11261108;-0.41000
11263886;-0.40500
11266664;-0.40500
11269441;-0.41000
11272219;-0.41500
11274997;-0.42500
11277775;-0.41500
11280552;-0.40500
11283330;-0.40500
11286108;-0.40000
11288886;-0.41500
11291664;-0.41500
11294441;-0.41000
11297219;-0.41000
11299997;-0.39000
11302775;-0.39000
11305552;-0.40000
11308330;-0.40500
11311108;-0.40500
11313886;-0.40000
11316663;-0.38500
11319441;-0.38500
11322219;-0.40500
11324997;-0.42500
11327775;-0.41000
11330552;-0.40500
11333330;-0.39500
11336108;-0.40000
11338886;-0.41500
11341663;-0.42500
11344441;-0.42000
11347219;-0.41000
11349997;-0.39000
11352775;-0.40000
11355552;-0.41000
11358330;-0.42500
11361108;-0.40500
11363886;-0.40500
11366663;-0.39500
11369441;-0.39500
11372219;-0.41500
11374997;-0.41500
11377775;-0.41500
11380552;-0.40500
11383330;-0.40000
11386108;-0.38500
11388886;-0.40000
11391663;-0.41000
11394441;-0.40000
11397219;-0.39000
11399997;-0.39500
11402775;-0.40000
11405552;-0.40000
11408330;-0.41500
11411108;-0.41000
11413886;-0.41000
11416663;-0.40000
11419441;-0.40000
11422219;-0.41000
11424997;-0.42500
11427775;-0.41500
11430552;-0.42000
11433330;-0.41500
11436108;-0.41500
11438886;-0.42000
11441663;-0.42000
11444441;-0.42500
11447219;-0.40500
11449997;-0.40000
11452775;-0.40500
11455552;-0.41000
11458330;-0.41500
11461108;-0.39500
11463886;-0.37500
11466663;-0.36500
11469441;-0.35000
11472219;-0.34500
11474997;-0.35000
11477775;-0.33500
11480552;-0.32000
11483330;-0.30000
11486108;-0.30000
11488886;-0.30000
11491663;-0.30500
11494441;-0.30000
11497219;-0.29000
11499997;-0.28500
11502775;-0.29000
11505552;-0.29000
11508330;-0.29000
11511108;-0.29000
11513886;-0.28000
11516663;-0.27500
11519441;-0.27500
11522219;-0.28500
11524997;-0.28500
11527775;-0.28000
11530552;-0.26500
11533330;-0.27000
11536108;-0.27000
11538886;-0.28500
11541663;-0.28500
11544441;-0.29000
11547219;-0.27500
11549997;-0.26000
11552775;-0.27500
11555552;-0.28500
11558330;-0.29500
11561108;-0.29000
11563886;-0.29000
11566663;-0.27000
11569441;-0.28500
11572219;-0.29500
11574997;-0.31000
11577775;-0.31000
11580552;-0.31000
11583330;-0.30000
11586108;-0.30000
11588886;-0.30500
11591663;-0.32000
11594441;-0.31000
11597219;-0.30500
11599997;-0.29000
11602775;-0.30000
11605552;-0.32000
11608330;-0.32500
11611108;-0.32000
11613886;-0.31500
11616663;-0.31000
11619441;-0.31500
11622219;-0.32000
11624997;-0.34000
11627775;-0.33000
11630552;-0.31500
11633330;-0.31500
11636108;-0.32500
11638886;-0.32000
11641663;-0.33500
11644441;-0.33000
11647219;-0.32000
11649997;-0.31000
11652775;-0.32000
11655552;-0.32500
11658330;-0.33500
11661108;-0.33000
11663886;-0.32500
11666663;-0.32000
11669441;-0.31500
11672219;-0.33000
11674997;-0.34000
11677775;-0.34000
11680552;-0.32500
11683330;-0.31500
11686108;-0.32500
11688886;-0.33500
11691663;-0.34000
11694441;-0.34000
11697219;-0.33000
11699997;-0.32000
11702775;-0.32000
11705552;-0.33500
11708330;-0.33500
11711108;-0.34000
11713886;-0.33500
11716663;-0.32000
11719441;-0.32500
11722219;-0.33000
11724997;-0.33000
11727774;-0.32000
11730552;-0.30500
11733330;-0.30500
11736108;-0.30500
11738886;-0.29500
11741663;-0.27500
11744441;-0.28500
11747219;-0.25500
11749997;-0.25000
11752774;-0.24500
11755552;-0.24500
11758330;-0.25000
11761108;-0.24500
11763886;-0.23500
11766663;-0.23000
11769441;-0.21000
11772219;-0.22500
11774997;-0.22500
11777774;-0.21500
11780552;-0.20000
11783330;-0.19500
11786108;-0.19500
11788886;-0.21000
11791663;-0.22000
11794441;-0.21500
11797219;-0.21500
11799997;-0.19500
11802774;-0.20000
11805552;-0.20500
11808330;-0.20000
11811108;-0.18000
11813886;-0.15500
11816663;-0.16500
11819441;-0.21500
11822219;-0.24500
11824997;-0.27000
11827774;-0.27500
11830552;-0.28000
11833330;-0.30000
11836108;-0.33500
11838886;-0.34000
11841663;-0.35500
11844441;-0.35500
11847219;-0.33500
11849997;-0.32500
11852774;-0.33000
11855552;-0.35000
11858330;-0.35000
11861108;-0.34500
11863886;-0.34000
11866663;-0.33500
11869441;-0.33500
11872219;-0.34000
11874997;-0.36500
11877774;-0.36000
11880552;-0.35500
11883330;-0.34500
11886108;-0.35500
11888886;-0.35000
11891663;-0.37000
11894441;-0.35500
11897219;-0.36500
11899997;-0.36500
11902774;-0.36000
11905552;-0.35500
11908330;-0.37500
11911108;-0.36500
11913886;-0.38000
11916663;-0.40000
11919441;-0.44000
11922219;-0.48500
11924997;-0.52000
11927774;-0.54500
11930552;-0.58000
11933330;-0.53500
11936108;-0.41500
11938886;-0.26500
11941663;-0.10000
11944441;0.10000
11947219;0.36000
11949997;0.63500
11952774;0.84000
11955552;0.94500
11958330;0.92000
11961108;0.73000
11963886;0.38500
11966663;-0.02000
11969441;-0.35000
11972219;-0.48500
11974997;-0.48000
11977774;-0.43000
11980552;-0.38500
11983330;-0.38000
11986108;-0.38000
11988886;-0.39500
11991663;-0.41000
11994441;-0.40500
11997219;-0.39000
11999997;-0.39500
12002774;-0.39500
12005552;-0.40000
12008330;-0.40500
12011108;-0.41000
12013886;-0.40000
12016663;-0.39500
12019441;-0.39500
12022219;-0.40000
12024997;-0.41500
12027774;-0.41000
12030552;-0.40000
12033330;-0.40000
12036108;-0.39500
12038886;-0.40000
12041663;-0.40500
12044441;-0.41000
12047219;-0.41000
12049997;-0.40000
12052774;-0.39000
12055552;-0.40000
12058330;-0.41500
12061108;-0.40500
12063886;-0.41000
12066663;-0.39500
12069441;-0.39500
12072219;-0.41000
12074997;-0.41500
12077774;-0.41500
12080552;-0.40500
12083330;-0.39500
12086108;-0.39000
12088886;-0.40000
12091663;-0.41000
12094441;-0.41000
12097219;-0.40500
12099997;-0.39000
12102774;-0.39000
12105552;-0.41000
12108330;-0.40500
12111108;-0.41000
12113885;-0.39500
12116663;-0.38500
12119441;-0.39500
12122219;-0.40000
12124997;-0.41500
12127774;-0.40000
12130552;-0.39500
12133330;-0.38500
12136108;-0.39500
12138885;-0.40000
12141663;-0.40500
12144441;-0.41500
12147219;-0.40500
12149997;-0.40000
12152774;-0.40000
12155552;-0.40500
12158330;-0.42000
12161108;-0.41000
12163885;-0.40500
12166663;-0.39000
12169441;-0.40000
12172219;-0.41000
12174997;-0.42500
12177774;-0.41500
12180552;-0.40500
12183330;-0.40500
12186108;-0.42500
12188885;-0.43000
12191663;-0.43500
12194441;-0.43500
12197219;-0.42500
12199997;-0.41500
12202774;-0.41000
12205552;-0.41500
12208330;-0.42500
12211108;-0.42500
12213885;-0.40000
12216663;-0.41000
12219441;-0.41000
12222219;-0.43000
12224997;-0.42000
12227774;-0.41500
12230552;-0.38500
12233330;-0.38000
12236108;-0.37000
12238885;-0.38500
12241663;-0.38500
12244441;-0.38000
12247219;-0.36000
12249997;-0.35500
12252774;-0.34000
12255552;-0.34000
12258330;-0.34500
12261108;-0.34000
12263885;-0.31500
12266663;-0.30000
12269441;-0.30000
12272219;-0.29500
12274997;-0.31000
12277774;-0.29000
12280552;-0.28500
12283330;-0.27500
12286108;-0.28000
12288885;-0.29000
12291663;-0.29000
12294441;-0.28000
12297219;-0.26500
12299997;-0.27000
12302774;-0.27000
12305552;-0.27500
12308330;-0.28500
12311108;-0.28500
12313885;-0.29000
12316663;-0.29000
12319441;-0.28500
12322219;-0.30000
12324997;-0.30500
12327774;-0.30000
12330552;-0.29000
12333330;-0.28500
12336108;-0.29500
12338885;-0.29500
12341663;-0.30000
12344441;-0.29500
12347219;-0.29000
12349997;-0.29000
12352774;-0.29000
12355552;-0.29500
12358330;-0.30500
12361108;-0.31000
12363885;-0.30000
12366663;-0.29500
12369441;-0.29000
12372219;-0.30000
12374997;-0.32000
12377774;-0.30500
12380552;-0.30500
12383330;-0.30500
12386108;-0.31000
12388885;-0.33500
12391663;-0.33500
12394441;-0.33500
12397219;-0.33000
12399997;-0.32000
12402774;-0.32500
12405552;-0.33500
12408330;-0.34000
12411108;-0.34000
12413885;-0.32500
12416663;-0.33500
12419441;-0.33000
12422219;-0.33500
12424997;-0.35000
12427774;-0.34000
12430552;-0.33500
12433330;-0.33500
12436108;-0.34000
12438885;-0.34000
12441663;-0.35000
12444441;-0.33000
12447219;-0.33500
12449997;-0.33000
12452774;-0.32500
12455552;-0.35000
12458330;-0.35500
12461108;-0.35000
12463885;-0.35500
12466663;-0.35000
12469441;-0.34500
12472219;-0.34500
12474997;-0.34500
12477774;-0.35000
12480552;-0.34000
12483330;-0.35000
12486108;-0.35000
12488885;-0.36000
12491663;-0.37000
12494441;-0.35500
12497219;-0.34000
12499996;-0.33500
12502774;-0.33500
12505552;-0.34500
12508330;-0.35000
12511108;-0.34000
12513885;-0.33500
12516663;-0.33500
12519441;-0.34000
12522219;-0.35500
12524996;-0.36000
12527774;-0.34500
12530552;-0.34500
12533330;-0.34000
12536108;-0.32500
12538885;-0.33500
12541663;-0.33000
12544441;-0.31000
12547219;-0.29500
12549996;-0.27500
12552774;-0.29000
12555552;-0.30000
12558330;-0.30000
12561108;-0.29000
12563885;-0.28500
12566663;-0.29000
12569441;-0.28000
12572219;-0.28500
12574996;-0.29000
12577774;-0.27500
12580552;-0.25000
12583330;-0.24000
12586108;-0.23500
12588885;-0.23000
12591663;-0.24000
12594441;-0.24000
12597219;-0.24500
12599996;-0.24000
12602774;-0.24000
12605552;-0.23500
12608330;-0.23500
12611108;-0.23500
12613885;-0.23000
12616663;-0.21000
12619441;-0.20500
12622219;-0.22500
12624996;-0.28500
12627774;-0.30000
12630552;-0.30500
12633330;-0.31000
12636108;-0.32500
12638885;-0.35000
12641663;-0.37000
12644441;-0.37000
12647219;-0.38000
12649996;-0.35500
12652774;-0.35500
12655552;-0.36500
12658330;-0.37000
12661108;-0.37000
12663885;-0.37500
12666663;-0.36500
12669441;-0.37000
12672219;-0.37500
12674996;-0.39500
12677774;-0.39000
12680552;-0.38500
12683330;-0.37500
12686108;-0.36000
12688885;-0.38000
12691663;-0.39500
12694441;-0.38000
12697219;-0.37000
12699996;-0.36500
12702774;-0.37000
12705552;-0.41000
12708330;-0.44500
12711108;-0.48000
12713885;-0.50000
12716663;-0.52000
12719441;-0.56500
12722219;-0.58000
12724996;-0.52000
12727774;-0.39000
12730552;-0.23000
12733330;-0.04500
12736108;0.19000
12738885;0.46000
12741663;0.68000
12744441;0.85000
12747219;0.95500
12749996;0.95500
12752774;0.83500
12755552;0.60000
12758330;0.28500
12761108;-0.03500
12763885;-0.29000
12766663;-0.44000
12769441;-0.51500
12772219;-0.52500
12774996;-0.50500
12777774;-0.46500
12780552;-0.42500
12783330;-0.43500
12786108;-0.44500
12788885;-0.45500
12791663;-0.44500
12794441;-0.43500
12797219;-0.42500
12799996;-0.42000
12802774;-0.43500
12805552;-0.44000
12808330;-0.46000
12811108;-0.46000
12813885;-0.45000
12816663;-0.43500
12819441;-0.43500
12822219;-0.43000
12824996;-0.44500
12827774;-0.43000
12830552;-0.44000
12833330;-0.44000
12836108;-0.44000
12838885;-0.43500
12841663;-0.44500
12844441;-0.44500
12847219;-0.43500
12849996;-0.43500
12852774;-0.43500
12855552;-0.44500
12858330;-0.46000
12861108;-0.46000
12863885;-0.43500
12866663;-0.44500
12869441;-0.44000
12872219;-0.45500
12874996;-0.45000
12877774;-0.45500
12880552;-0.46000
12883330;-0.44500
12886108;-0.44000
12888885;-0.45000
12891663;-0.46000
12894441;-0.45500
12897219;-0.45000
12899996;-0.44000
12902774;-0.44000
12905552;-0.44500
12908330;-0.46000
12911107;-0.46000
12913885;-0.44000
12916663;-0.43500
12919441;-0.43500
12922219;-0.45000
12924996;-0.45500
12927774;-0.47000
12930552;-0.46000
12933330;-0.47000
12936107;-0.45500
12938885;-0.45500
12941663;-0.45500
12944441;-0.46500
12947219;-0.45500
12949996;-0.45000
12952774;-0.44500
12955552;-0.45000
12958330;-0.45500
12961107;-0.45500
12963885;-0.45000
12966663;-0.45500
12969441;-0.44500
12972219;-0.46000
12974996;-0.47500
12977774;-0.47000
12980552;-0.46500
12983330;-0.48000
12986107;-0.49500
12988885;-0.50500
12991663;-0.52000
12994441;-0.51500
12997219;-0.50500
12999996;-0.49500
13002774;-0.50000
13005552;-0.51500
13008330;-0.52500
13011107;-0.52500
13013885;-0.52000
13016663;-0.50000
13019441;-0.50000
13022219;-0.49500
13024996;-0.50500
13027774;-0.50000
13030552;-0.49000
13033330;-0.47000
13036107;-0.47000
13038885;-0.45000
13041663;-0.44000
13044441;-0.42500
13047219;-0.41000
13049996;-0.39000
13052774;-0.38000
13055552;-0.37500
13058330;-0.37500
13061107;-0.37000
13063885;-0.36000
13066663;-0.34000
13069441;-0.35000
13072219;-0.36000
13074996;-0.36500
13077774;-0.36000
13080552;-0.35000
13083330;-0.36000
13086107;-0.34500
13088885;-0.34000
13091663;-0.37000
13094441;-0.36500
13097219;-0.35000
13099996;-0.34500
13102774;-0.32500
13105552;-0.33500
13108330;-0.33500
13111107;-0.33000
13113885;-0.32000
13116663;-0.32500
13119441;-0.33000
13122219;-0.34500
13124996;-0.35000
13127774;-0.35000
13130552;-0.35000
13133330;-0.35000
13136107;-0.35500
13138885;-0.34500
13141663;-0.35500
13144441;-0.34500
13147219;-0.33500
13149996;-0.33500
13152774;-0.34500
13155552;-0.35000
13158330;-0.38000
13161107;-0.38000
13163885;-0.36500
13166663;-0.37000
13169441;-0.36500
13172219;-0.37500
13174996;-0.38500
13177774;-0.37000
13180552;-0.36500
13183330;-0.36500
13186107;-0.36500
13188885;-0.37500
13191663;-0.40000
13194441;-0.38000
13197219;-0.38000
13199996;-0.37000
13202774;-0.36000
13205552;-0.37500
13208330;-0.39500
13211107;-0.39000
13213885;-0.38500
13216663;-0.37500
13219441;-0.39500
13222219;-0.40000
13224996;-0.40500
13227774;-0.39500
13230552;-0.37500
13233330;-0.38000
13236107;-0.38500
13238885;-0.37500
13241663;-0.39500
13244441;-0.37500
13247219;-0.37500
13249996;-0.37500
13252774;-0.38000
13255552;-0.38000
13258330;-0.38500
13261107;-0.38000
13263885;-0.38500
13266663;-0.36000
13269441;-0.36500
13272219;-0.37000
13274996;-0.38000
13277774;-0.38000
13280552;-0.38000
13283330;-0.37500
13286107;-0.38000
13288885;-0.39000
13291663;-0.40000
13294441;-0.40000
13297218;-0.37500
13299996;-0.37500
13302774;-0.36500
13305552;-0.36500
13308330;-0.39000
13311107;-0.37000
13313885;-0.36000
13316663;-0.36000
13319441;-0.36000
13322218;-0.37000
13324996;-0.38000
13327774;-0.38000
13330552;-0.36500
13333330;-0.35500
13336107;-0.35500
13338885;-0.35000
13341663;-0.34500
13344441;-0.34500
13347218;-0.32000
13349996;-0.30500
13352774;-0.30000
13355552;-0.32000
13358330;-0.32000
13361107;-0.30500
13363885;-0.29000
13366663;-0.27500
13369441;-0.27000
13372218;-0.28000
13374996;-0.28000
13377774;-0.27500
13380552;-0.25500
13383330;-0.25000
13386107;-0.25500
13388885;-0.25500
13391663;-0.27500
13394441;-0.27000
13397218;-0.25000
13399996;-0.25500
13402774;-0.27500
13405552;-0.27500
13408330;-0.28000
13411107;-0.26500
13413885;-0.25500
13416663;-0.25500
13419441;-0.25000
13422218;-0.25000
13424996;-0.25000
13427774;-0.26500
13430552;-0.28000
13433330;-0.27500
13436107;-0.30000
13438885;-0.32500
13441663;-0.35000
13444441;-0.37000
13447218;-0.35500
13449996;-0.37000
13452774;-0.36000
13455552;-0.37000
13458330;-0.38500
13461107;-0.37000
13463885;-0.37000
13466663;-0.37000
13469441;-0.37500
13472218;-0.38000
13474996;-0.38500
13477774;-0.38000
13480552;-0.37000
13483330;-0.37500
13486107;-0.37000
13488885;-0.38000
13491663;-0.39000
13494441;-0.38000
13497218;-0.37500
13499996;-0.36500
13502774;-0.36500
13505552;-0.37500
13508330;-0.40000
13511107;-0.41500
13513885;-0.45000
13516663;-0.47500
13519441;-0.49500
13522218;-0.54500
13524996;-0.57500
13527774;-0.54000
13530552;-0.44000
13533330;-0.28500
13536107;-0.13000
13538885;0.05000
13541663;0.29500
13544441;0.56500
13547218;0.78500
13549996;0.89500
13552774;0.86500
13555552;0.62000
13558330;0.22500
13561107;-0.18500
13563885;-0.43000
13566663;-0.51500
13569441;-0.51500
13572218;-0.46500
13574996;-0.43500
13577774;-0.41500
13580552;-0.41000
13583330;-0.41500
13586107;-0.40500
13588885;-0.42000
13591663;-0.44000
13594441;-0.43000
13597218;-0.42500
13599996;-0.42500
13602774;-0.43500
13605552;-0.42500
13608330;-0.43500
13611107;-0.43000
13613885;-0.42500
13616663;-0.41500
13619441;-0.41500
13622218;-0.43000
13624996;-0.44500
13627774;-0.43500
13630552;-0.43000
13633330;-0.41000
13636107;-0.41000
13638885;-0.42000
13641663;-0.43000
13644441;-0.43000
13647218;-0.43000
13649996;-0.41000
13652774;-0.42000
13655552;-0.43000
13658330;-0.44000
13661107;-0.44500
13663885;-0.42000
13666663;-0.42000
13669441;-0.42500
13672218;-0.43000
13674996;-0.43500
13677774;-0.43500
13680552;-0.42000
13683330;-0.41500
13686107;-0.41500
13688885;-0.42500
13691663;-0.44500
13694441;-0.43000
13697218;-0.42000
13699996;-0.41500
13702774;-0.42500
13705552;-0.42000
13708329;-0.43500
13711107;-0.42000
13713885;-0.42000
13716663;-0.41000
13719441;-0.42000
13722218;-0.43000
13724996;-0.43000
13727774;-0.44000
13730552;-0.42000
13733329;-0.40500
13736107;-0.41000
13738885;-0.42000
13741663;-0.43500
13744441;-0.41500
13747218;-0.42500
13749996;-0.41500
13752774;-0.42500
13755552;-0.44500
13758329;-0.43500
13761107;-0.43000
13763885;-0.43000
13766663;-0.42500
13769441;-0.43000
13772218;-0.44500
13774996;-0.46000
13777774;-0.46000
13780552;-0.45500
13783329;-0.45000
13786107;-0.44500
13788885;-0.45500
13791663;-0.46500
13794441;-0.46500
13797218;-0.46000
13799996;-0.46000
13802774;-0.46500
13805552;-0.47500
13808329;-0.48000
13811107;-0.48500
13813885;-0.47500
13816663;-0.47000
13819441;-0.48000
13822218;-0.49000
13824996;-0.50000
13827774;-0.49000
13830552;-0.47000
13833329;-0.45000
13836107;-0.44500
13838885;-0.44000
13841663;-0.44500
13844441;-0.41500
13847218;-0.40000
13849996;-0.38500
13852774;-0.38000
13855552;-0.36500
13858329;-0.36500
13861107;-0.36000
13863885;-0.33000
13866663;-0.32000
13869441;-0.31000
13872218;-0.33000
13874996;-0.33000
13877774;-0.32000
13880552;-0.31000
13883329;-0.29500
13886107;-0.29000
13888885;-0.30000
13891663;-0.30000
13894441;-0.30000
13897218;-0.29000
13899996;-0.30000
13902774;-0.29000
13905552;-0.30500
13908329;-0.31500
13911107;-0.31000
13913885;-0.29500
13916663;-0.29500
13919441;-0.29500
13922218;-0.28500
13924996;-0.30500
13927774;-0.30500
13930552;-0.30000
13933329;-0.29500
13936107;-0.29500
13938885;-0.30000
13941663;-0.32000
13944441;-0.31000
13947218;-0.30000
13949996;-0.29500
13952774;-0.29000
13955552;-0.30500
13958329;-0.32000
13961107;-0.32000
13963885;-0.30500
13966663;-0.30000
13969441;-0.31000
13972218;-0.32500
13974996;-0.33000
13977774;-0.32500
13980552;-0.32000
13983329;-0.31000
13986107;-0.32500
13988885;-0.32500
13991663;-0.33500
13994441;-0.32500
13997218;-0.33000
13999996;-0.32000
14002774;-0.31500
14005552;-0.32500
14008329;-0.33500
14011107;-0.33500
14013885;-0.32500
14016663;-0.31500
14019441;-0.32000
14022218;-0.32500
14024996;-0.34000
14027774;-0.33500
14030552;-0.33500
14033329;-0.33000
14036107;-0.33500
14038885;-0.34000
14041663;-0.36000
14044441;-0.35000
14047218;-0.34000
14049996;-0.33500
14052774;-0.33500
14055552;-0.34000
14058329;-0.35000
14061107;-0.34500
14063885;-0.32500
14066663;-0.32500
14069441;-0.33500
14072218;-0.32500
14074996;-0.33500
14077774;-0.32000
14080552;-0.31500
14083329;-0.29500
14086107;-0.28000
14088885;-0.28000
14091663;-0.29000
14094440;-0.28000
14097218;-0.27500
14099996;-0.25500
14102774;-0.26000
14105552;-0.25500
14108329;-0.25000
14111107;-0.25000
14113885;-0.23500
14116663;-0.22500
14119440;-0.22500
14122218;-0.23500
14124996;-0.24000
14127774;-0.23000
14130552;-0.22500
14133329;-0.23500
14136107;-0.24500
14138885;-0.24000
14141663;-0.24000
14144440;-0.23000
14147218;-0.22500
14149996;-0.21500
14152774;-0.17500
14155552;-0.17000
14158329;-0.19000
14161107;-0.23500
14163885;-0.26500
14166663;-0.27000
14169440;-0.27000
14172218;-0.29000
14174996;-0.31000
14177774;-0.33000
14180552;-0.33000
14183329;-0.34000
14186107;-0.35000
14188885;-0.36500
14191663;-0.37500
14194440;-0.36500
14197218;-0.36500
14199996;-0.35000
14202774;-0.35000
14205552;-0.35500
14208329;-0.35500
14211107;-0.37000
14213885;-0.36000
14216663;-0.35000
14219440;-0.36000
14222218;-0.37000
14224996;-0.37500
14227774;-0.38000
14230552;-0.36500
14233329;-0.37000
14236107;-0.36000
14238885;-0.37500
14241663;-0.38000
14244440;-0.39500
14247218;-0.38500
14249996;-0.37500
14252774;-0.37500
14255552;-0.42000
14258329;-0.45500
14261107;-0.49000
14263885;-0.50000
14266663;-0.52500
14269440;-0.56000
14272218;-0.57000
14274996;-0.49500
14277774;-0.34500
14280552;-0.16500
14283329;0.01500
14286107;0.21500
14288885;0.47500
14291663;0.75000
14294440;0.94000
14297218;1.02000
14299996;0.90500
14302774;0.54500
14305552;0.06500
14308329;-0.35000
14311107;-0.53000
14313885;-0.51500
14316663;-0.44000
14319440;-0.40000
14322218;-0.40500
14324996;-0.42500
14327774;-0.43500
14330552;-0.42000
14333329;-0.42500
14336107;-0.43000
14338885;-0.43500
14341663;-0.44000
14344440;-0.44500
14347218;-0.42500
14349996;-0.42000
14352774;-0.44000
14355552;-0.43500
14358329;-0.44000
14361107;-0.44500
14363885;-0.43500
14366663;-0.43000
14369440;-0.43000
14372218;-0.45000
14374996;-0.46000
14377774;-0.45000
14380552;-0.43500
14383329;-0.42500
14386107;-0.43500
14388885;-0.45000
14391663;-0.46500
14394440;-0.44500
14397218;-0.43500
14399996;-0.43000
14402774;-0.43000
14405552;-0.44500
14408329;-0.46000
14411107;-0.45500
14413885;-0.44000
14416663;-0.42000
14419440;-0.42500
14422218;-0.44000
14424996;-0.44500
14427774;-0.43000
14430552;-0.44000
14433329;-0.44000
14436107;-0.43000
14438885;-0.43500
14441663;-0.45000
14444440;-0.45000
14447218;-0.44000
14449996;-0.44000
14452774;-0.44000
14455552;-0.45500
14458329;-0.45500
14461107;-0.46500
14463885;-0.45500
14466663;-0.46500
14469440;-0.45000
14472218;-0.45000
14474996;-0.45500
14477774;-0.45000
14480552;-0.44000
14483329;-0.44000
14486107;-0.44500
14488885;-0.45000
14491663;-0.47000
14494440;-0.45000
14497218;-0.45000
14499996;-0.44500
14502774;-0.43500
14505551;-0.45500
14508329;-0.45000
14511107;-0.45000
14513885;-0.44500
14516663;-0.44500
14519440;-0.44500
14522218;-0.45000
14524996;-0.47500
14527774;-0.47500
14530551;-0.46500
14533329;-0.46500
14536107;-0.45500
14538885;-0.47000
14541663;-0.47500
14544440;-0.46500
14547218;-0.46500
14549996;-0.46000
14552774;-0.45000
14555551;-0.45000
14558329;-0.46000
14561107;-0.45000
14563885;-0.44000
14566663;-0.42500
14569440;-0.41000
14572218;-0.41500
14574996;-0.41000
14577774;-0.39500
14580551;-0.38000
14583329;-0.36500
14586107;-0.36000
14588885;-0.36500
14591663;-0.36500
14594440;-0.36000
14597218;-0.35000
14599996;-0.34000
14602774;-0.34500
14605551;-0.35500
14608329;-0.36000
14611107;-0.35500
14613885;-0.34500
14616663;-0.33500
14619440;-0.33000
14622218;-0.34000
14624996;-0.35000
14627774;-0.34000
14630551;-0.33000
14633329;-0.34000
14636107;-0.33000
14638885;-0.34000
14641663;-0.34500
14644440;-0.35000
14647218;-0.33500
14649996;-0.33000
14652774;-0.32500
14655551;-0.33500
14658329;-0.35000
14661107;-0.34500
14663885;-0.33500
14666663;-0.34000
14669440;-0.35000
14672218;-0.36500
14674996;-0.36000
14677774;-0.36500
14680551;-0.36500
14683329;-0.35500
14686107;-0.35000
14688885;-0.37000
14691663;-0.36500
14694440;-0.36500
14697218;-0.36000
14699996;-0.35000
14702774;-0.35000
14705551;-0.36000
14708329;-0.37000
14711107;-0.37500
14713885;-0.37000
14716663;-0.36000
14719440;-0.35500
14722218;-0.36000
14724996;-0.38000
14727774;-0.38000
14730551;-0.37000
14733329;-0.36000
14736107;-0.37000
14738885;-0.38000
14741663;-0.39500
14744440;-0.38500
14747218;-0.38000
14749996;-0.37500
14752774;-0.39000
14755551;-0.39500
14758329;-0.40000
14761107;-0.40000
14763885;-0.39500
14766663;-0.38000
14769440;-0.39000
14772218;-0.39500
14774996;-0.39500
14777774;-0.39500
14780551;-0.39000
14783329;-0.38500
14786107;-0.38500
14788885;-0.39500
14791663;-0.40000
14794440;-0.40500
14797218;-0.39000
14799996;-0.38000
14802774;-0.38500
14805551;-0.39000
14808329;-0.40000
14811107;-0.39500
14813885;-0.39500
14816663;-0.38000
14819440;-0.38000
14822218;-0.39000
14824996;-0.40500
14827774;-0.39500
14830551;-0.38500
14833329;-0.38000
14836107;-0.38000
14838885;-0.38500
14841663;-0.38000
14844440;-0.37500
14847218;-0.35500
14849996;-0.33500
14852774;-0.33000
14855551;-0.33500
14858329;-0.32500
14861107;-0.31500
14863885;-0.32500
14866663;-0.30000
14869440;-0.29500
14872218;-0.30000
14874996;-0.31000
14877774;-0.29000
14880551;-0.28000
14883329;-0.28000
14886107;-0.26500
14888885;-0.26500
14891662;-0.27500
14894440;-0.27500
14897218;-0.27000
14899996;-0.27000
14902774;-0.29000
14905551;-0.30000
14908329;-0.31500
14911107;-0.29000
14913885;-0.29500
14916662;-0.27500
14919440;-0.26500
14922218;-0.25000
14924996;-0.26500
14927774;-0.29000
14930551;-0.31500
14933329;-0.32000
14936107;-0.33500
14938885;-0.35000
14941662;-0.38000
14944440;-0.38000
14947218;-0.38500
14949996;-0.39500
14952774;-0.39500
14955551;-0.40500
14958329;-0.41000
14961107;-0.40000
14963885;-0.39500
14966662;-0.40500
14969440;-0.40500
14972218;-0.41000
14974996;-0.42500
14977774;-0.42000
14980551;-0.41000
14983329;-0.40000
14986107;-0.41500
14988885;-0.42500
14991662;-0.43000
14994440;-0.43000
14997218;-0.42500
14999996;-0.42000
15002774;-0.42000
15005551;-0.41000
15008329;-0.42000
15011107;-0.43000
15013885;-0.42000
15016662;-0.41000
15019440;-0.42500
15022218;-0.44000
15024996;-0.47500
15027774;-0.52500
15030551;-0.54500
15033329;-0.55500
15036107;-0.58500
15038885;-0.63500
15041662;-0.59000
15044440;-0.47500
15047218;-0.31000
15049996;-0.15500
15052774;0.03000
15055551;0.26500
15058329;0.51500
15061107;0.73500
15063885;0.87000
15066662;0.87500
15069440;0.67000
15072218;0.29000
15074996;-0.16000
15077774;-0.46000
15080551;-0.57500
15083329;-0.54500
15086107;-0.49500
15088885;-0.46000
15091662;-0.45500
15094440;-0.46500
15097218;-0.45000
15099996;-0.45000
15102774;-0.44500
15105551;-0.45000
15108329;-0.46500
15111107;-0.47500
15113885;-0.46000
15116662;-0.46500
15119440;-0.46000
15122218;-0.46500
15124996;-0.48000
15127774;-0.48000
15130551;-0.46500
15133329;-0.46500
15136107;-0.46500
15138885;-0.47500
15141662;-0.48500
15144440;-0.47500
15147218;-0.46000
15149996;-0.45000
15152774;-0.44500
15155551;-0.45500
15158329;-0.47000
15161107;-0.47500
15163885;-0.46000
15166662;-0.46500
15169440;-0.46500
15172218;-0.46500
15174996;-0.47500
15177774;-0.46500
15180551;-0.46000
15183329;-0.45500
15186107;-0.46000
15188885;-0.46500
15191662;-0.47500
15194440;-0.48000
15197218;-0.47500
15199996;-0.45500
15202774;-0.46000
15205551;-0.47500
15208329;-0.48000
15211107;-0.47500
15213885;-0.47000
15216662;-0.45500
15219440;-0.45500
15222218;-0.46000
15224996;-0.47500
15227774;-0.47000
15230551;-0.46000
15233329;-0.46000
15236107;-0.47000
15238885;-0.47500
15241662;-0.48000
15244440;-0.48000
15247218;-0.46500
15249996;-0.46500
15252774;-0.46500
15255551;-0.46500
15258329;-0.47000
15261107;-0.47500
15263885;-0.47000
15266662;-0.46000
15269440;-0.45500
15272218;-0.46500
15274996;-0.46500
15277774;-0.47000
15280551;-0.46500
15283329;-0.46000
15286107;-0.47000
15288885;-0.48000
15291662;-0.49500
15294440;-0.48000
15297218;-0.48000
15299996;-0.46500
15302773;-0.46500
15305551;-0.49000
15308329;-0.50500
15311107;-0.50000
15313885;-0.48500
15316662;-0.48500
15319440;-0.48000
15322218;-0.50000
15324996;-0.50500
15327773;-0.50500
15330551;-0.49000
15333329;-0.47500
15336107;-0.47500
15338885;-0.47500
15341662;-0.47000
15344440;-0.46500
15347218;-0.44000
15349996;-0.43500
15352773;-0.43000
15355551;-0.44500
15358329;-0.45500
15361107;-0.44000
15363885;-0.41500
15366662;-0.38500
15369440;-0.39000
15372218;-0.39000
15374996;-0.38500
15377773;-0.38000
15380551;-0.37000
15383329;-0.36000
15386107;-0.35000
15388885;-0.36000
15391662;-0.36500
15394440;-0.36000
15397218;-0.35000
15399996;-0.33500
15402773;-0.33500
15405551;-0.34500
15408329;-0.36500
15411107;-0.34500
15413885;-0.34500
15416662;-0.33500
15419440;-0.32500
15422218;-0.34500
15424996;-0.35000
15427773;-0.35000
15430551;-0.33000
15433329;-0.33500
15436107;-0.35000
15438885;-0.35500
15441662;-0.36500
15444440;-0.36500
15447218;-0.34500
15449996;-0.34000
15452773;-0.34500
15455551;-0.35000
15458329;-0.36000
15461107;-0.35500
15463885;-0.34500
15466662;-0.34500
15469440;-0.35000
15472218;-0.36500
15474996;-0.35500
15477773;-0.36500
15480551;-0.35500
15483329;-0.34500
15486107;-0.36000
15488885;-0.35500
15491662;-0.36500
15494440;-0.36500
15497218;-0.35500
15499996;-0.37000
15502773;-0.36500
15505551;-0.37000
15508329;-0.39500
15511107;-0.39000
15513885;-0.37500
15516662;-0.36500
15519440;-0.36500
15522218;-0.36500
15524996;-0.39000
15527773;-0.38500
15530551;-0.37500
15533329;-0.36500
15536107;-0.37500
15538885;-0.38000
15541662;-0.40000
15544440;-0.40000
15547218;-0.38500
15549996;-0.37500
15552773;-0.37500
15555551;-0.40000
15558329;-0.40000
15561107;-0.39500
15563885;-0.38000
15566662;-0.37000
15569440;-0.36500
15572218;-0.36500
15574996;-0.37500
15577773;-0.38000
15580551;-0.38500
15583329;-0.39000
15586107;-0.39000
15588885;-0.38500
15591662;-0.40000
15594440;-0.39500
15597218;-0.39000
15599996;-0.37500
15602773;-0.38000
15605551;-0.39500
15608329;-0.39500
15611107;-0.38500
15613885;-0.37000
15616662;-0.37500
15619440;-0.37500
15622218;-0.38000
15624996;-0.38000
15627773;-0.37500
15630551;-0.37500
15633329;-0.36000
15636107;-0.35000
15638885;-0.34500
15641662;-0.35000
15644440;-0.33000
15647218;-0.31500
15649996;-0.31000
15652773;-0.31500
15655551;-0.32000
15658329;-0.33500
15661107;-0.33000
15663885;-0.31500
15666662;-0.30000
15669440;-0.28500
15672218;-0.27500
15674996;-0.28500
15677773;-0.26500
15680551;-0.26500
15683329;-0.27000
15686107;-0.28000
15688884;-0.28500
15691662;-0.30000
15694440;-0.28500
15697218;-0.27000
15699996;-0.24500
15702773;-0.24500
15705551;-0.26500
15708329;-0.28000
15711107;-0.25500
15713884;-0.25000
15716662;-0.24000
15719440;-0.27000
15722218;-0.31500
15724996;-0.33000
15727773;-0.34500
15730551;-0.35000
15733329;-0.36500
15736107;-0.38500
15738884;-0.40500
15741662;-0.42000
15744440;-0.40500
15747218;-0.39500
15749996;-0.39500
15752773;-0.40000
15755551;-0.40500
15758329;-0.40000
15761107;-0.40500
15763884;-0.40000
15766662;-0.40500
15769440;-0.40500
15772218;-0.41000
15774996;-0.41500
15777773;-0.41500
15780551;-0.40500
15783329;-0.40000
15786107;-0.40000
15788884;-0.42500
15791662;-0.43000
15794440;-0.43500
15797218;-0.41500
15799996;-0.41000
15802773;-0.41000
15805551;-0.41500
15808329;-0.43000
15811107;-0.44500
15813884;-0.47000
15816662;-0.48000
15819440;-0.51000
15822218;-0.55000
15824996;-0.57000
15827773;-0.62500
15830551;-0.64500
15833329;-0.62000
15836107;-0.55000
15838884;-0.47500
15841662;-0.39500
15844440;-0.31000
15847218;-0.19500
15849996;-0.06500
15852773;0.09000
15855551;0.28500
15858329;0.47500
15861107;0.65500
15863884;0.79000
15866662;0.87000
15869440;0.81000
15872218;0.57000
15874996;0.20000
15877773;-0.16500
15880551;-0.42500
15883329;-0.52500
15886107;-0.54500
15888884;-0.52500
15891662;-0.50000
15894440;-0.47000
15897218;-0.47500
15899996;-0.47000
15902773;-0.46500
15905551;-0.46500
15908329;-0.48000
15911107;-0.48000
15913884;-0.48000
15916662;-0.46500
15919440;-0.46000
15922218;-0.46500
15924996;-0.47500
15927773;-0.46500
15930551;-0.47000
15933329;-0.47000
15936107;-0.46500
15938884;-0.46000
15941662;-0.48000
15944440;-0.47500
15947218;-0.47500
15949996;-0.47500
15952773;-0.46000
15955551;-0.48000
15958329;-0.50000
15961107;-0.49000
15963884;-0.48500
15966662;-0.46500
15969440;-0.46000
15972218;-0.48500
15974996;-0.48500
15977773;-0.47500
15980551;-0.46500
15983329;-0.45500
15986107;-0.47000
15988884;-0.48000
15991662;-0.49000
15994440;-0.49000
15997218;-0.51000
15999996;-0.50000
16002773;-0.48000
16005551;-0.47500
16008329;-0.49000
16011107;-0.47000
16013884;-0.47500
16016662;-0.45500
16019440;-0.44000
16022218;-0.45000
16024996;-0.48000
16027773;-0.49000
16030551;-0.49000
16033329;-0.48500
16036107;-0.47500
16038884;-0.49000
16041662;-0.49000
16044440;-0.50000
16047218;-0.47000
16049996;-0.47500
16052773;-0.46500
16055551;-0.47000
16058329;-0.48500
16061107;-0.49000
16063884;-0.48000
16066662;-0.48500
16069440;-0.49500
16072218;-0.49000
16074995;-0.49500
16077773;-0.49500
16080551;-0.49000
16083329;-0.46500
16086107;-0.47000
16088884;-0.48500
16091662;-0.50000
16094440;-0.49500
16097218;-0.48500
16099995;-0.47500
16102773;-0.50000
16105551;-0.50500
16108329;-0.51000
16111107;-0.51500
16113884;-0.50500
16116662;-0.53000
16119440;-0.53000
16122218;-0.54500
16124995;-0.55000
16127773;-0.56000
16130551;-0.54000
16133329;-0.52000
