time_ms;ecg_value
0;-0.17000
2778;-0.16000
5556;-0.15000
8333;-0.14500
11111;-0.16000
13889;-0.15500
16667;-0.14000
19444;-0.13000
22222;-0.12500
25000;-0.14500
27778;-0.19000
30556;-0.20500
33333;-0.20000
36111;-0.21500
38889;-0.23500
41667;-0.27000
44444;-0.28500
47222;-0.28500
50000;-0.29500
52778;-0.29000
55556;-0.30500
58333;-0.31000
61111;-0.31000
63889;-0.31000
66667;-0.30000
69444;-0.31000
72222;-0.31500
75000;-0.32000
77778;-0.31500
80556;-0.29500
83333;-0.28500
86111;-0.29500
88889;-0.30000
91667;-0.30000
94444;-0.32000
97222;-0.31000
100000;-0.29500
102778;-0.30500
105556;-0.29500
108333;-0.32000
111111;-0.33500
113889;-0.33500
116667;-0.32500
119444;-0.32500
122222;-0.35500
125000;-0.39000
127778;-0.44500
130556;-0.47000
133333;-0.49000
136111;-0.53500
138889;-0.54000
141667;-0.48000
144444;-0.37000
147222;-0.21500
150000;-0.04000
152778;0.20000
155556;0.46500
158333;0.69000
161111;0.84000
163889;0.88000
166667;0.75500
169444;0.44000
172222;0.03000
175000;-0.30500
177778;-0.48500
180556;-0.51500
183333;-0.47000
186111;-0.41000
188889;-0.39500
191667;-0.40000
194444;-0.43000
197222;-0.43000
200000;-0.40500
202778;-0.39500
205555;-0.37000
208333;-0.38500
211111;-0.39000
213889;-0.38000
216667;-0.37000
219444;-0.37000
222222;-0.40000
225000;-0.39500
227778;-0.40000
230555;-0.40000
233333;-0.38500
236111;-0.39000
238889;-0.38500
241667;-0.38000
244444;-0.39500
247222;-0.38500
250000;-0.38500
252778;-0.38500
255555;-0.40000
258333;-0.41500
261111;-0.43500
263889;-0.42500
266667;-0.41000
269444;-0.41000
272222;-0.40000
275000;-0.42500
277778;-0.44000
280555;-0.43000
283333;-0.41000
286111;-0.40500
288889;-0.40500
291667;-0.41500
294444;-0.43000
297222;-0.42000
300000;-0.41000
302778;-0.40500
305555;-0.40500
308333;-0.41000
311111;-0.42500
313889;-0.41500
316667;-0.40500
319444;-0.42000
322222;-0.42000
325000;-0.43000
327778;-0.43000
330555;-0.40000
333333;-0.39000
336111;-0.40000
338889;-0.39500
341667;-0.41000
344444;-0.40500
347222;-0.41000
350000;-0.40500
352778;-0.40500
355555;-0.40500
358333;-0.41500
361111;-0.42500
363889;-0.41500
366667;-0.41000
369444;-0.40000
372222;-0.40500
375000;-0.41500
377778;-0.43500
380555;-0.43500
383333;-0.42500
386111;-0.42000
388889;-0.42500
391667;-0.42500
394444;-0.42500
397222;-0.42500
400000;-0.43500
402778;-0.44500
405555;-0.45500
408333;-0.46500
411111;-0.46500
413889;-0.45500
416667;-0.43000
419444;-0.43000
422222;-0.43500
425000;-0.43000
427778;-0.43000
430555;-0.41000
433333;-0.41500
436111;-0.42500
438889;-0.43500
441667;-0.43500
444444;-0.44500
447222;-0.43000
450000;-0.42500
452778;-0.43500
455555;-0.42000
458333;-0.40500
461111;-0.40000
463889;-0.37500
466667;-0.36000
469444;-0.35500
472222;-0.34000
475000;-0.34000
477778;-0.33000
480555;-0.31500
483333;-0.30000
486111;-0.31500
488889;-0.31500
491667;-0.32000
494444;-0.31000
497222;-0.30000
500000;-0.28500
502778;-0.28000
505555;-0.29500
508333;-0.30500
511111;-0.30500
513889;-0.30500
516667;-0.30000
519444;-0.27500
522222;-0.28000
525000;-0.30000
527778;-0.30000
530555;-0.30500
533333;-0.30000
536111;-0.28500
538889;-0.28500
541667;-0.28000
544444;-0.29500
547222;-0.28500
550000;-0.28000
552778;-0.28000
555555;-0.27000
558333;-0.28500
561111;-0.29500
563889;-0.29000
566667;-0.29500
569444;-0.31000
572222;-0.31500
575000;-0.31000
577778;-0.30500
580555;-0.30000
583333;-0.30000
586111;-0.30000
588889;-0.30500
591667;-0.30500
594444;-0.32000
597222;-0.32000
600000;-0.32000
602778;-0.31000
605555;-0.32500
608333;-0.33000
611111;-0.34000
613889;-0.33000
616666;-0.31500
619444;-0.31500
622222;-0.33000
625000;-0.34000
627778;-0.36000
630555;-0.34500
633333;-0.32000
636111;-0.32500
638889;-0.32500
641666;-0.34000
644444;-0.35000
647222;-0.35000
650000;-0.35500
652778;-0.33000
655555;-0.33000
658333;-0.34000
661111;-0.36000
663889;-0.34500
666666;-0.32000
669444;-0.31500
672222;-0.30500
675000;-0.31000
677778;-0.32000
680555;-0.30500
683333;-0.28500
686111;-0.26000
688889;-0.25000
691666;-0.24500
694444;-0.24500
697222;-0.23500
700000;-0.23500
702778;-0.23500
705555;-0.23000
708333;-0.22000
711111;-0.21000
713889;-0.20500
716666;-0.21500
719444;-0.22000
722222;-0.22500
725000;-0.21500
727778;-0.22000
730555;-0.22000
733333;-0.21500
736111;-0.20000
738889;-0.18000
741666;-0.18500
744444;-0.20500
747222;-0.23000
750000;-0.25000
752778;-0.25000
755555;-0.26500
758333;-0.29500
761111;-0.32000
763889;-0.33500
766666;-0.34500
769444;-0.35000
772222;-0.35500
775000;-0.36000
777778;-0.35500
780555;-0.34500
783333;-0.33000
786111;-0.33000
788889;-0.33500
791666;-0.34500
794444;-0.36000
797222;-0.35500
800000;-0.34000
802778;-0.34500
805555;-0.36500
808333;-0.37500
811111;-0.38000
813889;-0.36500
816666;-0.35000
819444;-0.34500
822222;-0.36000
825000;-0.37000
827778;-0.37000
830555;-0.36500
833333;-0.36000
836111;-0.36000
838889;-0.38500
841666;-0.40500
844444;-0.44500
847222;-0.45500
850000;-0.47000
852778;-0.50500
855555;-0.53500
858333;-0.53000
861111;-0.43500
863889;-0.27500
866666;-0.07000
869444;0.13500
872222;0.41000
875000;0.68500
877778;0.90000
880555;1.01500
883333;0.98000
886111;0.68500
888889;0.22500
891666;-0.20500
894444;-0.46500
897222;-0.52000
900000;-0.49000
902778;-0.42500
905555;-0.39500
908333;-0.40000
911111;-0.41500
913889;-0.41000
916666;-0.39500
919444;-0.39500
922222;-0.40500
925000;-0.41000
927778;-0.41500
930555;-0.40500
933333;-0.39500
936111;-0.39000
938889;-0.39000
941666;-0.40000
944444;-0.39500
947222;-0.38500
950000;-0.38000
952778;-0.38000
955555;-0.39500
958333;-0.39000
961111;-0.40000
963889;-0.41000
966666;-0.39000
969444;-0.39000
972222;-0.40000
975000;-0.41000
977778;-0.41500
980555;-0.40000
983333;-0.40500
986111;-0.40500
988889;-0.40500
991666;-0.41000
994444;-0.41000
997222;-0.41000
1000000;-0.40500
1002777;-0.40000
1005555;-0.40500
1008333;-0.41000
1011111;-0.41500
1013889;-0.40000
1016666;-0.40000
1019444;-0.39500
1022222;-0.40000
1025000;-0.41000
1027777;-0.41500
1030555;-0.41500
1033333;-0.40500
1036111;-0.41000
1038889;-0.40000
1041666;-0.41500
1044444;-0.41500
1047222;-0.42000
1050000;-0.40500
1052777;-0.41000
1055555;-0.41500
1058333;-0.41500
1061111;-0.41500
1063889;-0.41000
1066666;-0.38500
1069444;-0.39000
1072222;-0.40000
1075000;-0.41000
1077777;-0.42500
1080555;-0.41500
1083333;-0.41000
1086111;-0.41500
1088889;-0.43000
1091666;-0.44500
1094444;-0.43500
1097222;-0.44500
1100000;-0.44000
1102777;-0.44000
1105555;-0.45000
1108333;-0.45500
1111111;-0.46500
1113889;-0.46000
1116666;-0.45500
1119444;-0.45000
1122222;-0.44500
1125000;-0.46000
1127777;-0.46500
1130555;-0.45500
1133333;-0.44000
1136111;-0.43500
1138889;-0.44000
1141666;-0.43500
1144444;-0.43500
1147222;-0.42000
1150000;-0.39000
1152777;-0.38500
1155555;-0.37500
1158333;-0.36000
1161111;-0.34500
1163889;-0.32500
1166666;-0.32000
1169444;-0.31500
1172222;-0.30000
1175000;-0.30500
1177777;-0.28500
1180555;-0.27500
1183333;-0.26000
1186111;-0.26500
1188889;-0.26000
1191666;-0.26500
1194444;-0.26500
1197222;-0.25000
1200000;-0.24000
1202777;-0.23500
1205555;-0.24000
1208333;-0.25500
1211111;-0.25500
1213889;-0.24500
1216666;-0.23000
1219444;-0.23000
1222222;-0.24500
1225000;-0.25000
1227777;-0.25500
1230555;-0.24000
1233333;-0.24500
1236111;-0.24000
1238889;-0.24000
1241666;-0.25500
1244444;-0.26000
1247222;-0.25000
1250000;-0.24500
1252777;-0.25500
1255555;-0.26000
1258333;-0.27000
1261111;-0.26500
1263889;-0.25500
1266666;-0.25500
1269444;-0.26000
1272222;-0.26500
1275000;-0.27500
1277777;-0.27000
1280555;-0.26000
1283333;-0.25000
1286111;-0.25000
1288889;-0.25500
1291666;-0.26500
1294444;-0.27500
1297222;-0.27000
1300000;-0.26500
1302777;-0.26500
1305555;-0.27500
1308333;-0.28500
1311111;-0.30000
1313889;-0.29500
1316666;-0.28500
1319444;-0.27500
1322222;-0.28500
1325000;-0.29500
1327777;-0.29000
1330555;-0.28500
1333333;-0.27000
1336111;-0.27500
1338889;-0.27000
1341666;-0.28000
1344444;-0.29000
1347222;-0.27000
1350000;-0.24500
1352777;-0.24500
1355555;-0.24500
1358333;-0.23500
1361111;-0.24000
1363889;-0.22500
1366666;-0.21000
1369444;-0.20000
1372222;-0.21000
1375000;-0.21500
1377777;-0.20500
1380555;-0.17500
1383333;-0.16500
1386111;-0.16000
1388888;-0.16000
1391666;-0.16500
1394444;-0.18000
1397222;-0.16000
1400000;-0.16500
1402777;-0.18000
1405555;-0.18500
1408333;-0.19000
1411111;-0.17500
1413888;-0.17500
1416666;-0.16000
1419444;-0.14500
1422222;-0.13000
1425000;-0.11000
1427777;-0.09500
1430555;-0.08500
1433333;-0.10500
1436111;-0.14500
1438888;-0.17000
1441666;-0.20500
1444444;-0.22500
1447222;-0.21000
1450000;-0.22500
1452777;-0.24500
1455555;-0.26500
1458333;-0.28500
1461111;-0.29500
1463888;-0.29500
1466666;-0.28000
1469444;-0.28000
1472222;-0.28500
1475000;-0.30000
1477777;-0.29500
1480555;-0.29000
1483333;-0.28500
1486111;-0.28000
1488888;-0.28500
1491666;-0.29500
1494444;-0.30000
1497222;-0.29000
1500000;-0.29500
1502777;-0.29500
1505555;-0.30000
1508333;-0.31000
1511111;-0.32000
1513888;-0.30500
1516666;-0.29000
1519444;-0.30000
1522222;-0.30500
1525000;-0.32000
1527777;-0.34500
1530555;-0.38500
1533333;-0.41000
1536111;-0.43500
1538888;-0.47500
1541666;-0.52000
1544444;-0.52000
1547222;-0.43500
1550000;-0.29000
1552777;-0.11000
1555555;0.05500
1558333;0.27000
1561111;0.55000
1563888;0.84500
1566666;1.03500
1569444;1.08000
1572222;0.95000
1575000;0.61000
1577777;0.14000
1580555;-0.25500
1583333;-0.45000
1586111;-0.47000
1588888;-0.40000
1591666;-0.37000
1594444;-0.35000
1597222;-0.34500
1600000;-0.35000
1602777;-0.33500
1605555;-0.34500
1608333;-0.35500
1611111;-0.36000
1613888;-0.36000
1616666;-0.36500
1619444;-0.35000
1622222;-0.35500
1625000;-0.36000
1627777;-0.36500
1630555;-0.35500
1633333;-0.33500
1636111;-0.33500
1638888;-0.33500
1641666;-0.34500
1644444;-0.35000
1647222;-0.34000
1650000;-0.32000
1652777;-0.33000
1655555;-0.35000
1658333;-0.35500
1661111;-0.36000
1663888;-0.35000
1666666;-0.35000
1669444;-0.34500
1672222;-0.35000
1675000;-0.36000
1677777;-0.36500
1680555;-0.35500
1683333;-0.35500
1686111;-0.34500
1688888;-0.35500
1691666;-0.35500
1694444;-0.36000
1697222;-0.36000
1700000;-0.34500
1702777;-0.33000
1705555;-0.34500
1708333;-0.34000
1711111;-0.36500
1713888;-0.34500
1716666;-0.34500
1719444;-0.33500
1722222;-0.34500
1725000;-0.36000
1727777;-0.36000
1730555;-0.35000
1733333;-0.34500
1736111;-0.34500
1738888;-0.35500
1741666;-0.36000
1744444;-0.35500
1747222;-0.35000
1750000;-0.34500
1752777;-0.34500
1755555;-0.35000
1758333;-0.36500
1761111;-0.35500
1763888;-0.34000
1766666;-0.34500
1769444;-0.34500
1772222;-0.34000
1775000;-0.35000
1777777;-0.36000
1780555;-0.34000
1783333;-0.33500
1786111;-0.33500
1788888;-0.34500
1791666;-0.34500
1794444;-0.36000
1797222;-0.35000
1799999;-0.34000
1802777;-0.33500
1805555;-0.33500
1808333;-0.34500
1811111;-0.35500
1813888;-0.35000
1816666;-0.33500
1819444;-0.33500
1822222;-0.34000
1824999;-0.34500
1827777;-0.35500
1830555;-0.35000
1833333;-0.34000
1836111;-0.33500
1838888;-0.31500
1841666;-0.31500
1844444;-0.31500
1847222;-0.30500
1849999;-0.30500
1852777;-0.29000
1855555;-0.27500
1858333;-0.27500
1861111;-0.29000
1863888;-0.27500
1866666;-0.25000
1869444;-0.25000
1872222;-0.25000
1874999;-0.25500
1877777;-0.25500
1880555;-0.24500
1883333;-0.23000
1886111;-0.23000
1888888;-0.23000
1891666;-0.24500
1894444;-0.25000
1897222;-0.23000
1899999;-0.21500
1902777;-0.21500
1905555;-0.21500
1908333;-0.22500
1911111;-0.23000
1913888;-0.22000
1916666;-0.21000
1919444;-0.22000
1922222;-0.22000
1924999;-0.24000
1927777;-0.22500
1930555;-0.22500
1933333;-0.22000
1936111;-0.22000
1938888;-0.23500
1941666;-0.24000
1944444;-0.24500
1947222;-0.23500
1949999;-0.22500
1952777;-0.23000
1955555;-0.23000
1958333;-0.24000
1961111;-0.24500
1963888;-0.23500
1966666;-0.24000
1969444;-0.23500
1972222;-0.24000
1974999;-0.25500
1977777;-0.26000
1980555;-0.25000
1983333;-0.24000
1986111;-0.24000
1988888;-0.25500
1991666;-0.25500
1994444;-0.25500
1997222;-0.25500
1999999;-0.25000
2002777;-0.25000
2005555;-0.26000
2008333;-0.26500
2011111;-0.28000
2013888;-0.27000
2016666;-0.25500
2019444;-0.26000
2022222;-0.26500
2024999;-0.27500
2027777;-0.27500
2030555;-0.26500
2033333;-0.25500
2036111;-0.25500
2038888;-0.26000
2041666;-0.27500
2044444;-0.27000
2047222;-0.27000
2049999;-0.25500
2052777;-0.25500
2055555;-0.24500
2058333;-0.24500
2061111;-0.24500
2063888;-0.22500
2066666;-0.21500
2069444;-0.20000
2072222;-0.20500
2074999;-0.20500
2077777;-0.19500
2080555;-0.20000
2083333;-0.17000
2086111;-0.15000
2088888;-0.14000
2091666;-0.14500
2094444;-0.14000
2097222;-0.13500
2099999;-0.11500
2102777;-0.12500
2105555;-0.15000
2108333;-0.15500
2111111;-0.16500
2113888;-0.15000
2116666;-0.13500
2119444;-0.13500
2122222;-0.14500
2124999;-0.14000
2127777;-0.12000
2130555;-0.09500
2133333;-0.08500
2136111;-0.11000
2138888;-0.15500
2141666;-0.19000
2144444;-0.20000
2147222;-0.20500
2149999;-0.21000
2152777;-0.22500
2155555;-0.23500
2158333;-0.25500
2161111;-0.27000
2163888;-0.26500
2166666;-0.27500
2169444;-0.28000
2172222;-0.27500
2174999;-0.28500
2177777;-0.28500
2180555;-0.27500
2183333;-0.28000
2186110;-0.28000
2188888;-0.29500
2191666;-0.30000
2194444;-0.30500
2197222;-0.29500
2199999;-0.29000
2202777;-0.29000
2205555;-0.29500
2208333;-0.32000
2211110;-0.31000
2213888;-0.30000
2216666;-0.31000
2219444;-0.29500
2222222;-0.30000
2224999;-0.31500
2227777;-0.33500
2230555;-0.35000
2233333;-0.38000
2236110;-0.40500
2238888;-0.43500
2241666;-0.47500
2244444;-0.50500
2247222;-0.47000
2249999;-0.36000
2252777;-0.22000
2255555;-0.06500
2258333;0.12500
2261110;0.37500
2263888;0.64000
2266666;0.83500
2269444;0.91500
2272222;0.81500
2274999;0.52000
2277777;0.11500
2280555;-0.26000
2283333;-0.45000
2286110;-0.49500
2288888;-0.46500
2291666;-0.40500
2294444;-0.38000
2297222;-0.35000
2299999;-0.33000
2302777;-0.35000
2305555;-0.35500
2308333;-0.36500
2311110;-0.37500
2313888;-0.36000
2316666;-0.35500
2319444;-0.34500
2322222;-0.35000
2324999;-0.36000
2327777;-0.37000
2330555;-0.35000
2333333;-0.34000
2336110;-0.33500
2338888;-0.34500
2341666;-0.36000
2344444;-0.36500
2347222;-0.35500
2349999;-0.35500
2352777;-0.36000
2355555;-0.36000
2358333;-0.36000
2361110;-0.37500
2363888;-0.36000
2366666;-0.35500
2369444;-0.35500
2372222;-0.35500
2374999;-0.35500
2377777;-0.36000
2380555;-0.35000
2383333;-0.36500
2386110;-0.35000
2388888;-0.35500
2391666;-0.36500
2394444;-0.36000
2397222;-0.35500
2399999;-0.33000
2402777;-0.35000
2405555;-0.35500
2408333;-0.37000
2411110;-0.38000
2413888;-0.37500
2416666;-0.35000
2419444;-0.35000
2422222;-0.34500
2424999;-0.35000
2427777;-0.36500
2430555;-0.34500
2433333;-0.36000
2436110;-0.35000
2438888;-0.36500
2441666;-0.38000
2444444;-0.37500
2447222;-0.36500
2449999;-0.35500
2452777;-0.34000
2455555;-0.33500
2458333;-0.33500
2461110;-0.34500
2463888;-0.35500
2466666;-0.35000
2469444;-0.34000
2472222;-0.35500
2474999;-0.35000
2477777;-0.36500
2480555;-0.35000
2483333;-0.35000
2486110;-0.34500
2488888;-0.35500
2491666;-0.35500
2494444;-0.37000
2497222;-0.34500
2499999;-0.33000
2502777;-0.33500
2505555;-0.35000
2508333;-0.36000
2511110;-0.36500
2513888;-0.35500
2516666;-0.35500
2519444;-0.35000
2522222;-0.36000
2524999;-0.36500
2527777;-0.37500
2530555;-0.37000
2533333;-0.35500
2536110;-0.34500
2538888;-0.35000
2541666;-0.35000
2544444;-0.36000
2547222;-0.36000
2549999;-0.35000
2552777;-0.33500
2555555;-0.34000
2558333;-0.33500
2561110;-0.34000
2563888;-0.32000
2566666;-0.31500
2569444;-0.30000
2572222;-0.30000
2574999;-0.30000
2577777;-0.29500
2580555;-0.29000
2583333;-0.29000
2586110;-0.28000
2588888;-0.28000
2591666;-0.27500
2594444;-0.27500
2597221;-0.27500
2599999;-0.27000
2602777;-0.26000
2605555;-0.27000
2608333;-0.28000
2611110;-0.28000
2613888;-0.27500
2616666;-0.27000
2619444;-0.26000
2622221;-0.25000
2624999;-0.25500
2627777;-0.26000
2630555;-0.25500
2633333;-0.24500
2636110;-0.26000
2638888;-0.27500
2641666;-0.30500
2644444;-0.29000
2647221;-0.28500
2649999;-0.27500
2652777;-0.27500
2655555;-0.28000
2658333;-0.28500
2661110;-0.29000
2663888;-0.28000
2666666;-0.28000
2669444;-0.29000
2672221;-0.30000
2674999;-0.31500
2677777;-0.32500
2680555;-0.31500
2683333;-0.30500
2686110;-0.30000
2688888;-0.30000
2691666;-0.30500
2694444;-0.30500
2697221;-0.30000
2699999;-0.29500
2702777;-0.30500
2705555;-0.31500
2708333;-0.33500
2711110;-0.35500
2713888;-0.34500
2716666;-0.33000
2719444;-0.32500
2722221;-0.33000
2724999;-0.34000
2727777;-0.35000
2730555;-0.35500
2733333;-0.34000
2736110;-0.34000
2738888;-0.34000
2741666;-0.35500
2744444;-0.35500
2747221;-0.35500
2749999;-0.35000
2752777;-0.34500
2755555;-0.36000
2758333;-0.35500
2761110;-0.34500
2763888;-0.32000
2766666;-0.30500
2769444;-0.30500
2772221;-0.29500
2774999;-0.30500
2777777;-0.30000
2780555;-0.27500
2783333;-0.27000
2786110;-0.26500
2788888;-0.25500
2791666;-0.26000
2794444;-0.27000
2797221;-0.25500
2799999;-0.25000
2802777;-0.25500
2805555;-0.24500
2808333;-0.25000
2811110;-0.25000
2813888;-0.24500
2816666;-0.23500
2819444;-0.23500
2822221;-0.22500
2824999;-0.25500
2827777;-0.25500
2830555;-0.25000
2833333;-0.22500
2836110;-0.22500
2838888;-0.23000
2841666;-0.23500
2844444;-0.23000
2847221;-0.21500
2849999;-0.22000
2852777;-0.26000
2855555;-0.30000
2858333;-0.31500
2861110;-0.32500
2863888;-0.34000
2866666;-0.35000
2869444;-0.36000
2872221;-0.37500
2874999;-0.38000
2877777;-0.40000
2880555;-0.39500
2883333;-0.38500
2886110;-0.37500
2888888;-0.38500
2891666;-0.39500
2894444;-0.39500
2897221;-0.39000
2899999;-0.39000
2902777;-0.39000
2905555;-0.39000
2908333;-0.41000
2911110;-0.42500
2913888;-0.40500
2916666;-0.40500
2919444;-0.41000
2922221;-0.41500
2924999;-0.42000
2927777;-0.42500
2930555;-0.41000
2933333;-0.41000
2936110;-0.42000
2938888;-0.46000
2941666;-0.48000
2944444;-0.50000
2947221;-0.51500
2949999;-0.55500
2952777;-0.59500
2955555;-0.60000
2958333;-0.54000
2961110;-0.42000
2963888;-0.27500
2966666;-0.12000
2969444;0.06000
2972221;0.29000
2974999;0.53500
2977777;0.72000
2980555;0.85000
2983332;0.87500
2986110;0.69000
2988888;0.30000
2991666;-0.13000
2994444;-0.45500
2997221;-0.59000
2999999;-0.58500
3002777;-0.53000
3005555;-0.50000
3008332;-0.48000
3011110;-0.47500
3013888;-0.47500
3016666;-0.45500
3019444;-0.46500
3022221;-0.47500
3024999;-0.49000
3027777;-0.49000
3030555;-0.47500
3033332;-0.45500
3036110;-0.45500
3038888;-0.45000
3041666;-0.46500
3044444;-0.46000
3047221;-0.44500
3049999;-0.43000
3052777;-0.44500
3055555;-0.45500
3058332;-0.46000
3061110;-0.47000
3063888;-0.46500
3066666;-0.46000
3069444;-0.47500
3072221;-0.48500
3074999;-0.48500
3077777;-0.50500
3080555;-0.49000
3083332;-0.46500
3086110;-0.46000
3088888;-0.46000
3091666;-0.48000
3094444;-0.48500
3097221;-0.46500
3099999;-0.46000
3102777;-0.47500
3105555;-0.48000
3108332;-0.48500
3111110;-0.48500
3113888;-0.47500
3116666;-0.46000
3119444;-0.47000
3122221;-0.47500
3124999;-0.50500
3127777;-0.51000
3130555;-0.50000
3133332;-0.48000
3136110;-0.49500
3138888;-0.48500
3141666;-0.50000
3144444;-0.48000
3147221;-0.47000
3149999;-0.48000
3152777;-0.47000
3155555;-0.47000
3158332;-0.48500
3161110;-0.47500
3163888;-0.47500
3166666;-0.46000
3169444;-0.47500
3172221;-0.48000
3174999;-0.50000
3177777;-0.49500
3180555;-0.49500
3183332;-0.48500
3186110;-0.49000
3188888;-0.49500
3191666;-0.50500
3194444;-0.50000
3197221;-0.49500
3199999;-0.49000
3202777;-0.49500
3205555;-0.50000
3208332;-0.51500
3211110;-0.52500
3213888;-0.50500
3216666;-0.49000
3219444;-0.49500
3222221;-0.51500
3224999;-0.52500
3227777;-0.54500
3230555;-0.53500
3233332;-0.52500
3236110;-0.53000
3238888;-0.53000
3241666;-0.52500
3244444;-0.53500
3247221;-0.51500
3249999;-0.50000
3252777;-0.47500
3255555;-0.46000
3258332;-0.45500
3261110;-0.44500
3263888;-0.43500
3266666;-0.42000
3269444;-0.41500
3272221;-0.40500
3274999;-0.39000
3277777;-0.38500
3280555;-0.37000
3283332;-0.35500
3286110;-0.34000
3288888;-0.34500
3291666;-0.34000
3294444;-0.34000
3297221;-0.33000
3299999;-0.32000
3302777;-0.32500
3305555;-0.34000
3308332;-0.35500
3311110;-0.35500
3313888;-0.34000
3316666;-0.34000
3319444;-0.32000
3322221;-0.33500
3324999;-0.34000
3327777;-0.33000
3330555;-0.33500
3333332;-0.33000
3336110;-0.33000
3338888;-0.33500
3341666;-0.35000
3344444;-0.35000
3347221;-0.34500
3349999;-0.34000
3352777;-0.32000
3355555;-0.32500
3358332;-0.33000
3361110;-0.34000
3363888;-0.32500
3366666;-0.32000
3369444;-0.32000
3372221;-0.32500
3374999;-0.33500
3377777;-0.34000
3380555;-0.33500
3383332;-0.33500
3386110;-0.34000
3388888;-0.34500
3391666;-0.35500
3394443;-0.36000
3397221;-0.35000
3399999;-0.33500
3402777;-0.33500
3405555;-0.34500
3408332;-0.35000
3411110;-0.36000
3413888;-0.35500
3416666;-0.34500
3419443;-0.34000
3422221;-0.35000
3424999;-0.35500
3427777;-0.36500
3430555;-0.34500
3433332;-0.34000
3436110;-0.34500
3438888;-0.34500
3441666;-0.37000
3444443;-0.37000
3447221;-0.36000
3449999;-0.36000
3452777;-0.36000
3455555;-0.36500
3458332;-0.36500
3461110;-0.36500
3463888;-0.36000
3466666;-0.34500
3469443;-0.34000
3472221;-0.34500
3474999;-0.35000
3477777;-0.33500
3480555;-0.32000
3483332;-0.30500
3486110;-0.29500
3488888;-0.29500
3491666;-0.29000
3494443;-0.28500
3497221;-0.26000
3499999;-0.24500
3502777;-0.24500
3505555;-0.24500
3508332;-0.24500
3511110;-0.24500
3513888;-0.23500
3516666;-0.20500
3519443;-0.20500
3522221;-0.20500
3524999;-0.21500
3527777;-0.21500
3530555;-0.21500
3533332;-0.21500
3536110;-0.22500
3538888;-0.22500
3541666;-0.23500
3544443;-0.23500
3547221;-0.22000
3549999;-0.21000
3552777;-0.22000
3555555;-0.20500
3558332;-0.20000
3561110;-0.19000
3563888;-0.19000
3566666;-0.22500
3569443;-0.24500
3572221;-0.26000
3574999;-0.27000
3577777;-0.29500
3580555;-0.30500
3583332;-0.31000
3586110;-0.31500
3588888;-0.33500
3591666;-0.34000
3594443;-0.34000
3597221;-0.34500
3599999;-0.33000
3602777;-0.32000
3605555;-0.34000
3608332;-0.36000
3611110;-0.36000
3613888;-0.35000
3616666;-0.34000
3619443;-0.33500
3622221;-0.34500
3624999;-0.34500
3627777;-0.35500
3630555;-0.33500
3633332;-0.32500
3636110;-0.32000
3638888;-0.34000
3641666;-0.34500
3644443;-0.35000
3647221;-0.36000
3649999;-0.38500
3652777;-0.41500
3655555;-0.45500
3658332;-0.47000
3661110;-0.51500
3663888;-0.53500
3666666;-0.49000
3669443;-0.39000
3672221;-0.24500
3674999;-0.09000
3677777;0.10000
3680555;0.37000
3683332;0.67000
3686110;0.88500
3688888;1.00000
3691666;0.98500
3694443;0.77500
3697221;0.42000
3699999;0.03500
3702777;-0.28500
3705555;-0.48000
3708332;-0.54500
3711110;-0.55500
3713888;-0.54000
3716666;-0.51500
3719443;-0.46000
3722221;-0.41000
3724999;-0.38000
3727777;-0.38500
3730555;-0.38500
3733332;-0.38000
3736110;-0.38000
3738888;-0.38000
3741666;-0.39000
3744443;-0.39500
3747221;-0.38000
3749999;-0.39000
3752777;-0.37500
3755555;-0.38500
3758332;-0.40000
3761110;-0.41000
3763888;-0.40000
3766666;-0.39000
3769443;-0.39000
3772221;-0.38500
3774999;-0.38500
3777777;-0.39500
3780554;-0.39000
3783332;-0.38000
3786110;-0.37000
3788888;-0.37000
3791666;-0.38500
3794443;-0.38000
3797221;-0.37500
3799999;-0.37500
3802777;-0.37500
3805554;-0.38000
3808332;-0.38500
3811110;-0.39000
3813888;-0.39500
3816666;-0.38000
3819443;-0.38500
3822221;-0.38500
3824999;-0.39000
3827777;-0.40000
3830554;-0.38000
3833332;-0.37500
3836110;-0.38000
3838888;-0.38500
3841666;-0.38000
3844443;-0.39500
3847221;-0.38000
3849999;-0.38000
3852777;-0.37500
3855554;-0.37000
3858332;-0.38000
3861110;-0.38500
3863888;-0.36500
3866666;-0.36500
3869443;-0.37000
3872221;-0.36500
3874999;-0.37500
3877777;-0.37500
3880554;-0.36500
3883332;-0.35000
3886110;-0.35500
3888888;-0.36500
3891666;-0.38000
3894443;-0.38500
3897221;-0.38000
3899999;-0.38500
3902777;-0.36000
3905554;-0.38000
3908332;-0.38000
3911110;-0.39000
3913888;-0.39000
3916666;-0.39000
3919443;-0.37500
3922221;-0.38500
3924999;-0.39000
3927777;-0.40000
3930554;-0.39500
3933332;-0.39000
3936110;-0.38000
3938888;-0.38000
3941666;-0.38500
3944443;-0.39500
3947221;-0.38500
3949999;-0.37500
3952777;-0.37000
3955554;-0.38000
3958332;-0.38500
3961110;-0.38000
3963888;-0.36500
3966666;-0.35000
3969443;-0.35000
3972221;-0.35000
3974999;-0.35000
3977777;-0.33500
3980554;-0.31000
3983332;-0.29500
3986110;-0.29000
3988888;-0.28500
3991666;-0.28000
3994443;-0.28500
3997221;-0.27500
3999999;-0.26500
4002777;-0.25000
4005554;-0.25000
4008332;-0.26000
4011110;-0.25500
4013888;-0.25000
4016666;-0.24500
4019443;-0.22500
4022221;-0.23000
4024999;-0.23000
4027777;-0.24500
4030554;-0.22500
4033332;-0.21000
4036110;-0.20000
4038888;-0.20500
4041666;-0.22000
4044443;-0.22000
4047221;-0.21500
4049999;-0.20000
4052777;-0.20500
4055554;-0.21500
4058332;-0.23000
4061110;-0.22500
4063888;-0.22500
4066666;-0.21000
4069443;-0.20000
4072221;-0.21500
4074999;-0.23000
4077777;-0.22500
4080554;-0.22000
4083332;-0.22000
4086110;-0.21000
4088888;-0.22500
4091666;-0.23500
4094443;-0.25000
4097221;-0.23000
4099999;-0.22000
4102777;-0.21500
4105554;-0.21500
4108332;-0.22500
4111110;-0.22500
4113888;-0.22000
4116666;-0.21500
4119443;-0.21500
4122221;-0.22000
4124999;-0.23000
4127777;-0.24000
4130554;-0.22500
4133332;-0.22500
4136110;-0.23000
4138888;-0.23500
4141666;-0.24500
4144443;-0.25000
4147221;-0.23500
4149999;-0.23000
4152777;-0.23500
4155554;-0.24000
4158332;-0.24500
4161110;-0.25000
4163888;-0.25000
4166666;-0.24000
4169443;-0.24000
4172221;-0.26000
4174999;-0.25000
4177777;-0.25500
4180554;-0.24500
4183332;-0.23500
4186110;-0.22500
4188888;-0.23500
4191665;-0.22000
4194443;-0.22000
4197221;-0.20000
4199999;-0.18500
4202777;-0.18500
4205554;-0.18500
4208332;-0.19000
4211110;-0.19500
4213888;-0.17500
4216665;-0.16000
4219443;-0.15500
4222221;-0.15000
4224999;-0.15000
4227777;-0.15500
4230554;-0.13500
4233332;-0.12500
4236110;-0.11500
4238888;-0.12000
4241665;-0.13500
4244443;-0.14000
4247221;-0.13500
4249999;-0.14500
4252777;-0.12500
4255554;-0.13000
4258332;-0.13000
4261110;-0.13000
4263888;-0.12000
4266665;-0.09500
4269443;-0.08000
4272221;-0.07000
4274999;-0.08000
4277777;-0.13000
4280554;-0.14000
4283332;-0.17000
4286110;-0.16500
4288888;-0.19000
4291665;-0.21500
4294443;-0.22000
4297221;-0.24000
4299999;-0.23500
4302777;-0.24500
4305554;-0.25500
4308332;-0.25500
4311110;-0.26500
4313888;-0.25500
4316665;-0.25000
4319443;-0.25500
4322221;-0.26000
4324999;-0.26500
4327777;-0.27000
4330554;-0.27500
4333332;-0.25500
4336110;-0.27000
4338888;-0.26000
4341665;-0.26500
4344443;-0.27000
4347221;-0.25500
4349999;-0.25500
4352777;-0.24500
4355554;-0.25000
4358332;-0.26500
4361110;-0.27500
4363888;-0.27500
4366665;-0.24500
4369443;-0.25500
4372221;-0.26500
4374999;-0.28000
4377777;-0.27500
4380554;-0.29000
4383332;-0.30000
4386110;-0.33500
4388888;-0.36500
4391665;-0.39000
4394443;-0.42000
4397221;-0.45500
4399999;-0.47500
4402777;-0.45500
4405554;-0.35500
4408332;-0.23000
4411110;-0.08000
4413888;0.10000
4416665;0.34000
4419443;0.61500
4422221;0.87000
4424999;0.99000
4427777;0.99500
4430554;0.83500
4433332;0.52000
4436110;0.10000
4438888;-0.23500
4441665;-0.42500
4444443;-0.47500
4447221;-0.41000
4449999;-0.34500
4452777;-0.30500
4455554;-0.30000
4458332;-0.31500
4461110;-0.31500
4463888;-0.31000
4466665;-0.29500
4469443;-0.29500
4472221;-0.31000
4474999;-0.32000
4477777;-0.32000
4480554;-0.31500
4483332;-0.31000
4486110;-0.30500
4488888;-0.30500
4491665;-0.31000
4494443;-0.31000
4497221;-0.30000
4499999;-0.29500
4502777;-0.28500
4505554;-0.29000
4508332;-0.29500
4511110;-0.30500
4513888;-0.30500
4516665;-0.30000
4519443;-0.29500
4522221;-0.30500
4524999;-0.30500
4527777;-0.31500
4530554;-0.31500
4533332;-0.30000
4536110;-0.30500
4538888;-0.30500
4541665;-0.30500
4544443;-0.32000
4547221;-0.30500
4549999;-0.29000
4552777;-0.30000
4555554;-0.29000
4558332;-0.31500
4561110;-0.31000
4563888;-0.30500
4566665;-0.30500
4569443;-0.29000
4572221;-0.30000
4574999;-0.29500
4577776;-0.30500
4580554;-0.29500
4583332;-0.30500
4586110;-0.29500
4588888;-0.29500
4591665;-0.31000
4594443;-0.31000
4597221;-0.28500
4599999;-0.29500
4602776;-0.29500
4605554;-0.31000
4608332;-0.31000
4611110;-0.31500
4613888;-0.30500
4616665;-0.30000
4619443;-0.30000
4622221;-0.30000
4624999;-0.31000
4627776;-0.31500
4630554;-0.30500
4633332;-0.30000
4636110;-0.30000
4638888;-0.30000
4641665;-0.30500
4644443;-0.30000
4647221;-0.29500
4649999;-0.29000
4652776;-0.28000
4655554;-0.29000
4658332;-0.30000
4661110;-0.31000
4663888;-0.31000
4666665;-0.29500
4669443;-0.28500
4672221;-0.30500
4674999;-0.32000
4677776;-0.32000
4680554;-0.31000
4683332;-0.29500
4686110;-0.30500
4688888;-0.30000
4691665;-0.31000
4694443;-0.31000
4697221;-0.31000
4699999;-0.30500
4702776;-0.29500
4705554;-0.30000
4708332;-0.29000
4711110;-0.29000
4713888;-0.27500
4716665;-0.26000
4719443;-0.26000
4722221;-0.26000
4724999;-0.26500
4727776;-0.26000
4730554;-0.25500
4733332;-0.23000
4736110;-0.22500
4738888;-0.23500
4741665;-0.24000
4744443;-0.23500
4747221;-0.23500
4749999;-0.20500
4752776;-0.20000
4755554;-0.20000
4758332;-0.21000
4761110;-0.21000
4763888;-0.20000
4766665;-0.19500
4769443;-0.19000
4772221;-0.19000
4774999;-0.19500
4777776;-0.20500
4780554;-0.18500
4783332;-0.18000
4786110;-0.17500
4788888;-0.17000
4791665;-0.19000
4794443;-0.20000
4797221;-0.19500
4799999;-0.19000
4802776;-0.20000
4805554;-0.20000
4808332;-0.20000
4811110;-0.21000
4813888;-0.20500
4816665;-0.20000
4819443;-0.20000
4822221;-0.19000
4824999;-0.21000
4827776;-0.22000
4830554;-0.20500
4833332;-0.22500
4836110;-0.21500
4838888;-0.21500
4841665;-0.22000
4844443;-0.22000
4847221;-0.21500
4849999;-0.20500
4852776;-0.20500
4855554;-0.21000
4858332;-0.22500
4861110;-0.23000
4863888;-0.22500
4866665;-0.21500
4869443;-0.21000
4872221;-0.21500
4874999;-0.23500
4877776;-0.24000
4880554;-0.25500
4883332;-0.23000
4886110;-0.24000
4888888;-0.24500
4891665;-0.24000
4894443;-0.25500
4897221;-0.23500
4899999;-0.23000
4902776;-0.24500
4905554;-0.26000
4908332;-0.26500
4911110;-0.26500
4913888;-0.27000
4916665;-0.26000
4919443;-0.26000
4922221;-0.26000
4924999;-0.27000
4927776;-0.26500
4930554;-0.25000
4933332;-0.24500
4936110;-0.24500
4938888;-0.25000
4941665;-0.26500
4944443;-0.26500
4947221;-0.25500
4949999;-0.25000
4952776;-0.24000
4955554;-0.25500
4958332;-0.26500
4961110;-0.27000
4963887;-0.26000
4966665;-0.24000
4969443;-0.23000
4972221;-0.22000
4974999;-0.24000
4977776;-0.23000
4980554;-0.20500
4983332;-0.20000
4986110;-0.20500
4988887;-0.19000
4991665;-0.19500
4994443;-0.19500
4997221;-0.18500
4999999;-0.16500
5002776;-0.15500
5005554;-0.15000
5008332;-0.15000
5011110;-0.14500
5013887;-0.14000
5016665;-0.13000
5019443;-0.12500
5022221;-0.12500
5024999;-0.13000
5027776;-0.14000
5030554;-0.14500
5033332;-0.16000
5036110;-0.16000
5038887;-0.16000
5041665;-0.16000
5044443;-0.16500
5047221;-0.16000
5049999;-0.14000
5052776;-0.13500
5055554;-0.12500
5058332;-0.12500
5061110;-0.15000
5063887;-0.17000
5066665;-0.20000
5069443;-0.19500
5072221;-0.20000
5074999;-0.22000
5077776;-0.24500
5080554;-0.25000
5083332;-0.25000
5086110;-0.25000
5088887;-0.28000
5091665;-0.30000
5094443;-0.30000
5097221;-0.31000
5099999;-0.30500
5102776;-0.30500
5105554;-0.31000
5108332;-0.32000
5111110;-0.31000
5113887;-0.30500
5116665;-0.30000
5119443;-0.30000
5122221;-0.31000
5124999;-0.32000
5127776;-0.32500
5130554;-0.31500
5133332;-0.31500
5136110;-0.31000
5138887;-0.32500
5141665;-0.33500
5144443;-0.33000
5147221;-0.32000
5149999;-0.32000
5152776;-0.34000
5155554;-0.36000
5158332;-0.39500
5161110;-0.42500
5163887;-0.44000
5166665;-0.45500
5169443;-0.49500
5172221;-0.57500
5174999;-0.61500
5177776;-0.59000
5180554;-0.55000
5183332;-0.51000
5186110;-0.46000
5188887;-0.39500
5191665;-0.31500
5194443;-0.24500
5197221;-0.13500
5199999;0.01000
5202776;0.22000
5205554;0.46500
5208332;0.68500
5211110;0.81000
5213887;0.88000
5216665;0.79500
5219443;0.53500
5222221;0.15000
5224999;-0.20000
5227776;-0.43500
5230554;-0.50500
5233332;-0.49000
5236110;-0.42500
5238887;-0.38500
5241665;-0.38000
5244443;-0.38500
5247221;-0.37000
5249999;-0.36000
5252776;-0.36000
5255554;-0.36000
5258332;-0.36500
5261110;-0.39000
5263887;-0.37500
5266665;-0.35000
5269443;-0.37000
5272221;-0.38500
5274999;-0.39500
5277776;-0.40500
5280554;-0.38500
5283332;-0.38500
5286110;-0.37500
5288887;-0.39000
5291665;-0.40000
5294443;-0.39500
5297221;-0.39000
5299999;-0.39000
5302776;-0.38000
5305554;-0.38500
5308332;-0.38500
5311110;-0.38000
5313887;-0.37500
5316665;-0.36500
5319443;-0.36500
5322221;-0.36500
5324999;-0.38500
5327776;-0.39500
5330554;-0.39000
5333332;-0.37500
5336110;-0.37500
5338887;-0.39000
5341665;-0.40500
5344443;-0.41500
5347221;-0.41000
5349999;-0.39500
5352776;-0.39000
5355554;-0.38500
5358332;-0.40000
5361110;-0.41500
5363887;-0.40000
5366665;-0.38000
5369443;-0.41000
5372221;-0.39500
5374998;-0.39500
5377776;-0.40000
5380554;-0.39500
5383332;-0.39500
5386110;-0.38000
5388887;-0.39500
5391665;-0.40000
5394443;-0.41500
5397221;-0.39000
5399998;-0.39500
5402776;-0.39500
5405554;-0.41000
5408332;-0.41500
5411110;-0.41500
5413887;-0.40000
5416665;-0.38500
5419443;-0.38500
5422221;-0.40000
5424998;-0.40000
5427776;-0.41000
5430554;-0.40500
5433332;-0.39000
5436110;-0.38500
5438887;-0.40000
5441665;-0.41500
5444443;-0.44000
5447221;-0.42000
5449998;-0.41500
5452776;-0.40000
5455554;-0.42000
5458332;-0.43500
5461110;-0.46500
5463887;-0.44500
5466665;-0.43500
5469443;-0.42500
5472221;-0.42000
5474998;-0.43000
5477776;-0.44000
5480554;-0.43500
5483332;-0.42000
5486110;-0.42000
5488887;-0.42000
5491665;-0.43500
5494443;-0.43000
5497221;-0.41500
5499998;-0.39000
5502776;-0.37000
5505554;-0.38500
5508332;-0.37500
5511110;-0.38500
5513887;-0.37500
5516665;-0.35500
5519443;-0.35000
5522221;-0.34000
5524998;-0.33000
5527776;-0.33500
5530554;-0.31000
5533332;-0.30000
5536110;-0.30000
5538887;-0.30000
5541665;-0.31500
5544443;-0.30500
5547221;-0.30000
5549998;-0.29000
5552776;-0.28500
5555554;-0.28000
5558332;-0.28500
5561110;-0.29500
5563887;-0.27500
5566665;-0.28000
5569443;-0.26500
5572221;-0.27500
5574998;-0.28000
5577776;-0.29500
5580554;-0.29000
5583332;-0.29000
5586110;-0.29000
5588887;-0.30000
5591665;-0.29500
5594443;-0.29500
5597221;-0.29000
5599998;-0.29500
5602776;-0.29500
5605554;-0.31000
5608332;-0.31500
5611110;-0.32500
5613887;-0.30500
5616665;-0.28500
5619443;-0.30000
5622221;-0.31000
5624998;-0.30500
5627776;-0.30500
5630554;-0.30500
5633332;-0.29000
5636110;-0.30500
5638887;-0.31000
5641665;-0.31000
5644443;-0.33000
5647221;-0.32500
5649998;-0.33500
5652776;-0.32500
5655554;-0.33500
5658332;-0.34000
5661110;-0.34000
5663887;-0.33500
5666665;-0.33500
5669443;-0.34500
5672221;-0.34000
5674998;-0.34000
5677776;-0.33500
5680554;-0.33000
5683332;-0.32000
5686110;-0.31500
5688887;-0.31500
5691665;-0.34000
5694443;-0.35000
5697221;-0.35000
5699998;-0.34500
5702776;-0.34000
5705554;-0.32500
5708332;-0.34000
5711110;-0.35500
5713887;-0.36000
5716665;-0.35500
5719443;-0.34500
5722221;-0.37000
5724998;-0.37000
5727776;-0.36000
5730554;-0.34000
5733332;-0.31000
5736110;-0.32500
5738887;-0.33000
5741665;-0.35500
5744443;-0.34500
5747221;-0.32500
5749998;-0.30000
5752776;-0.29000
5755554;-0.28500
5758332;-0.29500
5761109;-0.29500
5763887;-0.27000
5766665;-0.27000
5769443;-0.25500
5772221;-0.25000
5774998;-0.24500
5777776;-0.25500
5780554;-0.22500
5783332;-0.21000
5786109;-0.20000
5788887;-0.21000
5791665;-0.22000
5794443;-0.23000
5797221;-0.23500
5799998;-0.23000
5802776;-0.21000
5805554;-0.22000
5808332;-0.23500
5811109;-0.24500
5813887;-0.23500
5816665;-0.23000
5819443;-0.23000
5822221;-0.21000
5824998;-0.21000
5827776;-0.23000
5830554;-0.26000
5833332;-0.26500
5836109;-0.26500
5838887;-0.27000
5841665;-0.29500
5844443;-0.30000
5847221;-0.31500
5849998;-0.30500
5852776;-0.32000
5855554;-0.32500
5858332;-0.33500
5861109;-0.35500
5863887;-0.35000
5866665;-0.35500
5869443;-0.35500
5872221;-0.37000
5874998;-0.36500
5877776;-0.38000
5880554;-0.37000
5883332;-0.37500
5886109;-0.36500
5888887;-0.37000
5891665;-0.38000
5894443;-0.38500
5897221;-0.37500
5899998;-0.38000
5902776;-0.38000
5905554;-0.37500
5908332;-0.38500
5911109;-0.39000
5913887;-0.38500
5916665;-0.38000
5919443;-0.38500
5922221;-0.41500
5924998;-0.45000
5927776;-0.48500
5930554;-0.51500
5933332;-0.54000
5936109;-0.55000
5938887;-0.51500
5941665;-0.40000
5944443;-0.25000
5947221;-0.08000
5949998;0.10000
5952776;0.35500
5955554;0.62000
5958332;0.84500
5961109;0.99000
5963887;1.03000
5966665;0.90500
5969443;0.62000
5972221;0.23500
5974998;-0.09500
5977776;-0.31000
5980554;-0.46000
5983332;-0.53000
5986109;-0.55500
5988887;-0.53500
5991665;-0.51000
5994443;-0.46500
5997221;-0.43500
5999998;-0.43000
6002776;-0.42000
6005554;-0.43000
6008332;-0.42500
6011109;-0.43000
6013887;-0.42500
6016665;-0.41500
6019443;-0.42000
6022221;-0.42000
6024998;-0.43000
6027776;-0.44000
6030554;-0.43500
6033332;-0.43000
6036109;-0.42500
6038887;-0.42500
6041665;-0.43500
6044443;-0.45500
6047221;-0.43000
6049998;-0.42500
6052776;-0.42500
6055554;-0.42000
6058332;-0.42500
6061109;-0.43500
6063887;-0.44500
6066665;-0.43000
6069443;-0.41500
6072221;-0.41500
6074998;-0.42500
6077776;-0.43000
6080554;-0.41500
6083332;-0.40000
6086109;-0.40500
6088887;-0.42000
6091665;-0.43000
6094443;-0.42500
6097221;-0.42500
6099998;-0.41500
6102776;-0.41500
6105554;-0.43000
6108332;-0.43000
6111109;-0.44000
6113887;-0.42000
6116665;-0.42000
6119443;-0.41500
6122221;-0.41500
6124998;-0.42000
6127776;-0.42500
6130554;-0.42000
6133332;-0.42000
6136109;-0.42000
6138887;-0.41000
6141665;-0.43000
6144443;-0.43000
6147221;-0.43000
6149998;-0.42000
6152776;-0.41500
6155554;-0.42000
6158332;-0.42000
6161109;-0.43000
6163887;-0.41500
6166665;-0.42000
6169443;-0.40500
6172220;-0.41000
6174998;-0.43500
6177776;-0.43000
6180554;-0.43500
6183332;-0.42500
6186109;-0.42500
6188887;-0.43500
6191665;-0.44000
6194443;-0.44000
6197220;-0.44500
6199998;-0.44500
6202776;-0.44000
6205554;-0.44500
6208332;-0.45500
6211109;-0.48000
6213887;-0.46500
6216665;-0.46500
6219443;-0.45000
6222220;-0.45000
6224998;-0.47000
6227776;-0.46000
6230554;-0.46500
6233332;-0.46000
6236109;-0.45000
6238887;-0.45500
6241665;-0.46000
6244443;-0.46500
6247220;-0.44000
6249998;-0.42500
6252776;-0.42000
6255554;-0.41500
6258332;-0.39000
6261109;-0.39000
6263887;-0.37000
6266665;-0.35000
6269443;-0.34500
6272220;-0.32500
6274998;-0.32500
6277776;-0.32000
6280554;-0.30500
6283332;-0.28500
6286109;-0.28500
6288887;-0.28500
6291665;-0.28000
6294443;-0.28500
6297220;-0.27000
6299998;-0.26000
6302776;-0.25000
6305554;-0.25000
6308332;-0.26000
6311109;-0.27000
6313887;-0.25500
6316665;-0.25500
6319443;-0.25000
6322220;-0.25000
6324998;-0.26000
6327776;-0.26500
6330554;-0.26000
6333332;-0.24500
6336109;-0.25000
6338887;-0.24500
6341665;-0.26500
6344443;-0.26500
6347220;-0.26000
6349998;-0.26000
6352776;-0.24500
6355554;-0.25000
6358332;-0.27000
6361109;-0.27500
6363887;-0.26000
6366665;-0.25000
6369443;-0.25000
6372220;-0.26000
6374998;-0.26000
6377776;-0.27500
6380554;-0.27000
6383332;-0.25500
6386109;-0.26000
6388887;-0.26000
6391665;-0.27500
6394443;-0.27500
6397220;-0.27500
6399998;-0.27000
6402776;-0.26500
6405554;-0.26500
6408332;-0.28500
6411109;-0.30000
6413887;-0.29500
6416665;-0.28500
6419443;-0.28000
6422220;-0.28500
6424998;-0.29500
6427776;-0.31000
6430554;-0.29500
6433332;-0.29000
6436109;-0.29500
6438887;-0.29000
6441665;-0.30000
6444443;-0.30000
6447220;-0.28500
6449998;-0.29000
6452776;-0.27500
6455554;-0.28500
6458332;-0.29500
6461109;-0.30000
6463887;-0.30000
6466665;-0.29500
6469443;-0.28500
6472220;-0.29500
6474998;-0.31500
6477776;-0.31500
6480554;-0.30000
6483332;-0.29500
6486109;-0.28500
6488887;-0.29500
6491665;-0.29500
6494443;-0.30000
6497220;-0.30000
6499998;-0.26500
6502776;-0.25000
6505554;-0.25500
6508332;-0.24500
6511109;-0.24500
6513887;-0.22500
6516665;-0.21000
6519443;-0.20000
6522220;-0.20000
6524998;-0.19500
6527776;-0.20500
6530554;-0.20000
6533332;-0.17000
6536109;-0.16000
6538887;-0.17000
6541665;-0.17000
6544443;-0.17500
6547220;-0.19000
6549998;-0.18000
6552776;-0.17500
6555554;-0.17500
6558331;-0.16000
6561109;-0.17500
6563887;-0.15500
6566665;-0.13500
6569443;-0.11500
6572220;-0.11000
6574998;-0.15500
6577776;-0.20500
6580554;-0.23000
6583331;-0.22000
6586109;-0.22500
6588887;-0.25000
6591665;-0.27000
6594443;-0.30000
6597220;-0.30000
6599998;-0.30500
6602776;-0.29000
6605554;-0.29500
6608331;-0.30500
6611109;-0.31000
6613887;-0.28500
6616665;-0.28500
6619443;-0.29000
6622220;-0.29000
6624998;-0.29500
6627776;-0.30000
6630554;-0.30000
6633331;-0.29500
6636109;-0.29000
6638887;-0.31500
6641665;-0.32000
6644443;-0.33000
6647220;-0.31500
6649998;-0.30500
6652776;-0.31500
6655554;-0.32000
6658331;-0.31000
6661109;-0.32000
6663887;-0.32500
6666665;-0.33000
6669443;-0.35500
6672220;-0.40000
6674998;-0.44000
6677776;-0.48000
6680554;-0.51000
6683331;-0.51000
6686109;-0.44000
6688887;-0.30000
6691665;-0.12000
6694443;0.07500
6697220;0.33500
6699998;0.66000
6702776;0.94500
6705554;1.10000
6708331;1.08500
6711109;0.83500
6713887;0.41500
6716665;-0.06000
6719443;-0.39000
6722220;-0.50500
6724998;-0.48000
6727776;-0.40500
6730554;-0.35000
6733331;-0.35000
6736109;-0.36000
6738887;-0.37000
6741665;-0.36500
6744443;-0.38500
6747220;-0.36500
6749998;-0.37500
6752776;-0.37500
6755554;-0.38000
6758331;-0.38000
6761109;-0.38500
6763887;-0.36000
6766665;-0.36000
6769443;-0.36500
6772220;-0.36000
6774998;-0.38000
6777776;-0.38000
6780554;-0.36500
6783331;-0.37000
6786109;-0.37000
6788887;-0.37000
6791665;-0.38000
6794443;-0.39000
6797220;-0.39000
6799998;-0.38000
6802776;-0.37500
6805554;-0.38000
6808331;-0.38000
6811109;-0.38500
6813887;-0.37500
6816665;-0.36500
6819443;-0.37500
6822220;-0.38000
6824998;-0.38500
6827776;-0.39000
6830554;-0.38500
6833331;-0.37500
6836109;-0.36000
6838887;-0.36000
6841665;-0.37500
6844443;-0.39000
6847220;-0.37500
6849998;-0.36500
6852776;-0.38000
6855554;-0.37500
6858331;-0.37500
6861109;-0.38500
6863887;-0.38000
6866665;-0.37500
6869443;-0.36500
6872220;-0.37500
6874998;-0.39000
6877776;-0.38500
6880554;-0.39000
6883331;-0.36000
6886109;-0.36500
6888887;-0.36000
6891665;-0.37500
6894443;-0.37500
6897220;-0.37500
6899998;-0.36000
6902776;-0.35500
6905554;-0.36500
6908331;-0.37500
6911109;-0.38000
6913887;-0.37000
6916665;-0.37000
6919443;-0.36500
6922220;-0.38000
6924998;-0.39000
6927776;-0.40000
6930554;-0.38500
6933331;-0.38500
6936109;-0.38500
6938887;-0.40500
6941665;-0.40000
6944442;-0.40500
6947220;-0.40500
6949998;-0.40000
6952776;-0.40000
6955554;-0.38500
6958331;-0.39000
6961109;-0.39000
6963887;-0.39500
6966665;-0.37000
6969442;-0.36500
6972220;-0.35500
6974998;-0.36000
6977776;-0.35000
6980554;-0.33500
6983331;-0.31500
6986109;-0.30500
6988887;-0.30000
6991665;-0.29500
6994442;-0.30000
6997220;-0.29000
6999998;-0.26500
7002776;-0.25000
7005554;-0.25500
7008331;-0.25500
7011109;-0.26000
7013887;-0.25500
7016665;-0.24000
7019442;-0.23500
7022220;-0.24500
7024998;-0.24000
7027776;-0.24500
7030554;-0.24000
7033331;-0.22500
7036109;-0.22000
7038887;-0.24000
7041665;-0.24000
7044442;-0.25000
7047220;-0.24000
7049998;-0.21500
7052776;-0.21500
7055554;-0.22500
7058331;-0.23500
7061109;-0.23500
7063887;-0.24500
7066665;-0.23000
7069442;-0.23000
7072220;-0.22500
7074998;-0.24000
7077776;-0.25500
7080554;-0.25000
7083331;-0.24000
7086109;-0.24000
7088887;-0.25000
7091665;-0.26000
7094442;-0.26500
7097220;-0.27000
7099998;-0.26500
7102776;-0.25000
7105554;-0.26500
7108331;-0.27500
7111109;-0.27000
7113887;-0.27500
7116665;-0.26000
7119442;-0.25000
7122220;-0.25500
7124998;-0.25500
7127776;-0.26500
7130554;-0.26500
7133331;-0.26500
7136109;-0.25500
7138887;-0.27000
7141665;-0.28500
7144442;-0.29500
7147220;-0.28500
7149998;-0.27500
7152776;-0.27500
7155554;-0.27500
7158331;-0.29000
7161109;-0.29500
7163887;-0.29500
7166665;-0.29000
7169442;-0.27500
7172220;-0.28000
7174998;-0.29500
7177776;-0.29500
7180554;-0.30000
7183331;-0.29500
7186109;-0.29500
7188887;-0.29000
7191665;-0.29500
7194442;-0.29500
7197220;-0.28500
7199998;-0.28500
7202776;-0.27500
7205554;-0.27000
7208331;-0.28000
7211109;-0.26500
7213887;-0.26000
7216665;-0.23500
7219442;-0.22500
7222220;-0.22500
7224998;-0.23000
7227776;-0.22500
7230554;-0.23000
7233331;-0.20000
7236109;-0.19500
7238887;-0.18000
7241665;-0.17500
7244442;-0.18500
7247220;-0.17000
7249998;-0.15000
7252776;-0.14500
7255554;-0.16500
7258331;-0.17500
7261109;-0.19000
7263887;-0.19000
7266665;-0.16000
7269442;-0.14500
7272220;-0.15000
7274998;-0.15500
7277776;-0.14000
7280554;-0.12000
7283331;-0.11000
7286109;-0.15000
7288887;-0.19000
7291665;-0.21500
7294442;-0.23000
7297220;-0.25500
7299998;-0.24000
7302776;-0.27000
7305554;-0.28500
7308331;-0.29000
7311109;-0.30000
7313887;-0.29000
7316665;-0.29000
7319442;-0.28500
7322220;-0.29000
7324998;-0.29500
7327776;-0.31500
7330554;-0.30500
7333331;-0.29500
7336109;-0.30000
7338887;-0.30000
7341665;-0.30500
7344442;-0.33000
7347220;-0.31000
7349998;-0.30000
7352776;-0.29500
7355553;-0.30000
7358331;-0.31500
7361109;-0.32000
7363887;-0.30500
7366665;-0.30500
7369442;-0.31000
7372220;-0.31000
7374998;-0.33500
7377776;-0.35000
7380553;-0.39500
7383331;-0.42000
7386109;-0.45000
7388887;-0.49000
7391665;-0.51500
7394442;-0.48500
7397220;-0.35500
7399998;-0.15500
7402776;0.02000
7405553;0.25000
7408331;0.55000
7411109;0.84500
7413887;1.04000
7416665;1.10000
7419442;0.95000
7422220;0.57500
7424998;0.07500
7427776;-0.32000
7430553;-0.48500
7433331;-0.46000
7436109;-0.37500
7438887;-0.34000
7441665;-0.35500
7444442;-0.38000
7447220;-0.37000
7449998;-0.36000
7452776;-0.35500
7455553;-0.35500
7458331;-0.36500
7461109;-0.38000
7463887;-0.36500
7466665;-0.37500
7469442;-0.37500
7472220;-0.37500
7474998;-0.39500
7477776;-0.39500
7480553;-0.39500
7483331;-0.37000
7486109;-0.37000
7488887;-0.37000
7491665;-0.37500
7494442;-0.38000
7497220;-0.37500
7499998;-0.36500
7502776;-0.36000
7505553;-0.36500
7508331;-0.37000
7511109;-0.38500
7513887;-0.38500
7516665;-0.37000
7519442;-0.36000
7522220;-0.36500
7524998;-0.36500
7527776;-0.37500
7530553;-0.38000
7533331;-0.37000
7536109;-0.38000
7538887;-0.37500
7541665;-0.39000
7544442;-0.38500
7547220;-0.38000
7549998;-0.38500
7552776;-0.36000
7555553;-0.37500
7558331;-0.38000
7561109;-0.38500
7563887;-0.37500
7566665;-0.35500
7569442;-0.36500
7572220;-0.37500
7574998;-0.36500
7577776;-0.38000
7580553;-0.37000
7583331;-0.37000
7586109;-0.35000
7588887;-0.36500
7591665;-0.35000
7594442;-0.37500
7597220;-0.37000
7599998;-0.36000
7602776;-0.36000
7605553;-0.36500
7608331;-0.37000
7611109;-0.38500
7613887;-0.38000
7616665;-0.37500
7619442;-0.36000
7622220;-0.37500
7624998;-0.37500
7627776;-0.39500
7630553;-0.38500
7633331;-0.37500
7636109;-0.37000
7638887;-0.38000
7641665;-0.39000
7644442;-0.39000
7647220;-0.39000
7649998;-0.37500
7652776;-0.36500
7655553;-0.37000
7658331;-0.37000
7661109;-0.37500
7663887;-0.36500
7666665;-0.36500
7669442;-0.35500
7672220;-0.36000
7674998;-0.36000
7677776;-0.36500
7680553;-0.36000
7683331;-0.35000
7686109;-0.32000
7688887;-0.31500
7691665;-0.31500
7694442;-0.30500
7697220;-0.28500
7699998;-0.27500
7702776;-0.26500
7705553;-0.27000
7708331;-0.26000
7711109;-0.26000
7713887;-0.24000
7716665;-0.23500
7719442;-0.22000
7722220;-0.22500
7724998;-0.23000
7727776;-0.22500
7730553;-0.22500
7733331;-0.21000
7736109;-0.21500
7738887;-0.21500
7741664;-0.22000
7744442;-0.23000
7747220;-0.22500
7749998;-0.22000
7752776;-0.22000
7755553;-0.21500
7758331;-0.22000
7761109;-0.22500
7763887;-0.22000
7766664;-0.22500
7769442;-0.21500
7772220;-0.23000
7774998;-0.25000
7777776;-0.24500
7780553;-0.22500
7783331;-0.22500
7786109;-0.22000
7788887;-0.22500
7791664;-0.23000
7794442;-0.24000
7797220;-0.23000
7799998;-0.21500
7802776;-0.22000
7805553;-0.24000
7808331;-0.23000
7811109;-0.24500
7813887;-0.24500
7816664;-0.24000
7819442;-0.24000
7822220;-0.25500
7824998;-0.25000
7827776;-0.27000
7830553;-0.25500
7833331;-0.24500
7836109;-0.25000
7838887;-0.26500
7841664;-0.28000
7844442;-0.29000
7847220;-0.28500
7849998;-0.27000
7852776;-0.28000
7855553;-0.27500
7858331;-0.27500
7861109;-0.29500
7863887;-0.28000
7866664;-0.28500
7869442;-0.26500
7872220;-0.27000
7874998;-0.28000
7877776;-0.29000
7880553;-0.27000
7883331;-0.26000
7886109;-0.26000
7888887;-0.27000
7891664;-0.28500
7894442;-0.28000
7897220;-0.29000
7899998;-0.26500
7902776;-0.26500
7905553;-0.26500
7908331;-0.27500
7911109;-0.28000
7913887;-0.26000
7916664;-0.26000
7919442;-0.25500
7922220;-0.26000
7924998;-0.27500
7927776;-0.28000
7930553;-0.26500
7933331;-0.23500
7936109;-0.23000
7938887;-0.22500
7941664;-0.23500
7944442;-0.23000
7947220;-0.21500
7949998;-0.19000
7952776;-0.18500
7955553;-0.18000
7958331;-0.17000
7961109;-0.17000
7963887;-0.15000
7966664;-0.14500
7969442;-0.12000
7972220;-0.12500
7974998;-0.12000
7977776;-0.14500
7980553;-0.16000
7983331;-0.15500
7986109;-0.15000
7988887;-0.14500
7991664;-0.15500
7994442;-0.16000
7997220;-0.16000
7999998;-0.15000
8002776;-0.11000
8005553;-0.10500
8008331;-0.12000
8011109;-0.17000
8013887;-0.18000
8016664;-0.19500
8019442;-0.19500
8022220;-0.21000
8024998;-0.23000
8027776;-0.25500
8030553;-0.25000
8033331;-0.25500
8036109;-0.25500
8038887;-0.27500
8041664;-0.27500
8044442;-0.27500
8047220;-0.28500
8049998;-0.27500
8052776;-0.26500
8055553;-0.27000
8058331;-0.28500
8061109;-0.30000
8063887;-0.30000
8066664;-0.29500
8069442;-0.28500
8072220;-0.29500
8074998;-0.31000
8077776;-0.31500
8080553;-0.30000
8083331;-0.30500
8086109;-0.28500
8088887;-0.28500
8091664;-0.28500
8094442;-0.30500
8097220;-0.31000
8099998;-0.34000
8102776;-0.37500
8105553;-0.41000
8108331;-0.45500
8111109;-0.50500
8113887;-0.51000
8116664;-0.42500
8119442;-0.29500
8122220;-0.17000
8124998;-0.07000
8127776;0.04000
8130553;0.22500
8133331;0.45500
8136109;0.72000
8138887;0.92000
8141664;1.04500
8144442;1.10000
8147220;1.03500
8149998;0.77000
8152775;0.34500
8155553;-0.08000
8158331;-0.36500
8161109;-0.45500
8163887;-0.40000
8166664;-0.32500
8169442;-0.29000
8172220;-0.31000
8174998;-0.33500
8177775;-0.34000
8180553;-0.33500
8183331;-0.33500
8186109;-0.33000
8188887;-0.34500
8191664;-0.35000
8194442;-0.35500
8197220;-0.34500
8199998;-0.34000
8202775;-0.33000
8205553;-0.34000
8208331;-0.35000
8211109;-0.36500
8213887;-0.36000
8216664;-0.34500
8219442;-0.32000
8222220;-0.33000
8224998;-0.33500
8227775;-0.33500
8230553;-0.33000
8233331;-0.33000
8236109;-0.32500
8238887;-0.33000
8241664;-0.34500
8244442;-0.36500
8247220;-0.36000
8249998;-0.34500
8252775;-0.33500
8255553;-0.34500
8258331;-0.37000
8261109;-0.37000
8263887;-0.36000
8266664;-0.34500
8269442;-0.35000
8272220;-0.35500
8274998;-0.35500
8277775;-0.37000
8280553;-0.38000
8283331;-0.35500
8286109;-0.37000
8288887;-0.37000
8291664;-0.36000
8294442;-0.36000
8297220;-0.36000
8299998;-0.34500
8302775;-0.34000
8305553;-0.35000
8308331;-0.35500
8311109;-0.36500
8313887;-0.36000
8316664;-0.35000
8319442;-0.35000
8322220;-0.35500
8324998;-0.37000
8327775;-0.36500
8330553;-0.36000
8333331;-0.36000
8336109;-0.35500
8338887;-0.36000
8341664;-0.38000
8344442;-0.37500
8347220;-0.38500
8349998;-0.38000
8352775;-0.37000
8355553;-0.37500
8358331;-0.38000
8361109;-0.39000
8363887;-0.38000
8366664;-0.38500
8369442;-0.38500
8372220;-0.37500
8374998;-0.37500
8377775;-0.38000
8380553;-0.37000
8383331;-0.37500
8386109;-0.38500
8388887;-0.38000
8391664;-0.39000
8394442;-0.38500
8397220;-0.36000
8399998;-0.35000
8402775;-0.34500
8405553;-0.34500
8408331;-0.34500
8411109;-0.34000
8413887;-0.32500
8416664;-0.29500
8419442;-0.29000
8422220;-0.29500
8424998;-0.28500
8427775;-0.28500
8430553;-0.27000
8433331;-0.25500
8436109;-0.26000
8438887;-0.26000
8441664;-0.26000
8444442;-0.28000
8447220;-0.26500
8449998;-0.25000
8452775;-0.23000
8455553;-0.23000
8458331;-0.23000
8461109;-0.24500
8463887;-0.25000
8466664;-0.25000
8469442;-0.24000
8472220;-0.24000
8474998;-0.25000
8477775;-0.26000
8480553;-0.25000
8483331;-0.23500
8486109;-0.22000
8488887;-0.22500
8491664;-0.24500
8494442;-0.25500
8497220;-0.25500
8499998;-0.25500
8502775;-0.26000
8505553;-0.25500
8508331;-0.28000
8511109;-0.29000
8513887;-0.27000
8516664;-0.27000
8519442;-0.24000
8522220;-0.25500
8524998;-0.27500
8527775;-0.27500
8530553;-0.27000
8533331;-0.27000
8536109;-0.26500
8538886;-0.27000
8541664;-0.27500
8544442;-0.28000
8547220;-0.28500
8549998;-0.28000
8552775;-0.28000
8555553;-0.29500
8558331;-0.31500
8561109;-0.32000
8563886;-0.31000
8566664;-0.29500
8569442;-0.30000
8572220;-0.29500
8574998;-0.29000
8577775;-0.32000
8580553;-0.32000
8583331;-0.32000
8586109;-0.32000
8588886;-0.30500
8591664;-0.31000
8594442;-0.31500
8597220;-0.31000
8599998;-0.30000
8602775;-0.30000
8605553;-0.30000
8608331;-0.32000
8611109;-0.33500
8613886;-0.32500
8616664;-0.30500
8619442;-0.31000
8622220;-0.31000
8624998;-0.31500
8627775;-0.32000
8630553;-0.31000
8633331;-0.30000
8636109;-0.29500
8638886;-0.30000
8641664;-0.31500
8644442;-0.31000
8647220;-0.31500
8649998;-0.32000
8652775;-0.29500
8655553;-0.30500
8658331;-0.31000
8661109;-0.32000
8663886;-0.31000
8666664;-0.29500
8669442;-0.28000
8672220;-0.28000
8674998;-0.27500
8677775;-0.26500
8680553;-0.26000
8683331;-0.23000
8686109;-0.22500
8688886;-0.21500
8691664;-0.23000
8694442;-0.23000
8697220;-0.21500
8699998;-0.20500
8702775;-0.18000
8705553;-0.18500
8708331;-0.19500
8711109;-0.20500
8713886;-0.19500
8716664;-0.20000
8719442;-0.19000
8722220;-0.21000
8724998;-0.22000
8727775;-0.22500
8730553;-0.19500
8733331;-0.19500
8736109;-0.19000
8738886;-0.20000
8741664;-0.20000
8744442;-0.18500
8747220;-0.17000
8749998;-0.16000
8752775;-0.17500
8755553;-0.21000
8758331;-0.23000
8761109;-0.25500
8763886;-0.26500
8766664;-0.28500
8769442;-0.29000
8772220;-0.29000
8774998;-0.31500
8777775;-0.32500
8780553;-0.32500
8783331;-0.32000
8786109;-0.32000
8788886;-0.32500
8791664;-0.34000
8794442;-0.35000
8797220;-0.34500
8799998;-0.34500
8802775;-0.33000
8805553;-0.33000
8808331;-0.32500
8811109;-0.34000
8813886;-0.34000
8816664;-0.34000
8819442;-0.32500
8822220;-0.33000
8824998;-0.33500
8827775;-0.34500
8830553;-0.34000
8833331;-0.33000
8836109;-0.32000
8838886;-0.32000
8841664;-0.33000
8844442;-0.34500
8847220;-0.36000
8849998;-0.39000
8852775;-0.41000
8855553;-0.45000
8858331;-0.47500
8861109;-0.52000
8863886;-0.55500
8866664;-0.54000
8869442;-0.46000
8872220;-0.31500
8874998;-0.17000
8877775;0.01000
8880553;0.25000
8883331;0.52000
8886109;0.77000
8888886;0.94000
8891664;0.97500
8894442;0.83000
8897220;0.49000
8899998;0.06500
8902775;-0.27500
8905553;-0.46000
8908331;-0.50500
8911109;-0.49000
8913886;-0.44500
8916664;-0.40000
8919442;-0.39500
8922220;-0.41000
8924998;-0.39500
8927775;-0.41500
8930553;-0.40000
8933331;-0.40000
8936109;-0.40000
8938886;-0.40500
8941664;-0.42500
8944442;-0.42500
8947220;-0.41500
8949997;-0.41500
8952775;-0.39500
8955553;-0.40000
8958331;-0.40500
8961109;-0.39500
8963886;-0.40500
8966664;-0.39500
8969442;-0.40000
8972220;-0.39500
8974997;-0.41500
8977775;-0.42500
8980553;-0.41000
8983331;-0.40000
8986109;-0.40500
8988886;-0.40500
8991664;-0.41500
8994442;-0.42500
8997220;-0.42000
8999997;-0.41000
9002775;-0.41500
9005553;-0.41500
9008331;-0.43000
9011109;-0.44500
9013886;-0.42500
9016664;-0.43500
9019442;-0.42000
9022220;-0.42000
9024997;-0.43000
9027775;-0.44000
9030553;-0.42500
9033331;-0.41500
9036109;-0.40000
9038886;-0.41000
9041664;-0.42000
9044442;-0.42500
9047220;-0.42000
9049997;-0.41000
9052775;-0.41000
9055553;-0.42000
9058331;-0.42500
9061109;-0.43500
9063886;-0.43000
9066664;-0.43000
9069442;-0.41500
9072220;-0.42500
9074997;-0.42500
9077775;-0.44000
9080553;-0.42500
9083331;-0.41500
9086109;-0.41000
9088886;-0.41500
9091664;-0.42000
9094442;-0.44500
9097220;-0.44500
9099997;-0.42000
9102775;-0.42000
9105553;-0.42500
9108331;-0.44000
9111109;-0.44000
9113886;-0.44500
9116664;-0.43000
9119442;-0.44000
9122220;-0.45500
9124997;-0.46500
9127775;-0.47000
9130553;-0.46500
9133331;-0.44500
9136109;-0.46000
9138886;-0.46500
9141664;-0.47000
9144442;-0.48000
9147220;-0.48000
9149997;-0.47000
9152775;-0.45000
9155553;-0.46000
9158331;-0.45500
9161109;-0.45000
9163886;-0.42000
9166664;-0.39500
9169442;-0.37500
9172220;-0.38000
9174997;-0.36000
9177775;-0.36000
9180553;-0.34000
9183331;-0.31500
9186109;-0.29500
9188886;-0.29500
9191664;-0.29000
9194442;-0.30000
9197220;-0.28500
9199997;-0.28000
9202775;-0.26000
9205553;-0.25500
9208331;-0.26000
9211109;-0.26000
9213886;-0.25500
9216664;-0.25000
9219442;-0.23500
9222220;-0.23500
9224997;-0.23000
9227775;-0.24500
9230553;-0.23500
9233331;-0.22000
9236109;-0.22000
9238886;-0.24000
9241664;-0.24500
9244442;-0.24500
9247220;-0.24500
9249997;-0.23000
9252775;-0.23000
9255553;-0.24000
9258331;-0.25500
9261109;-0.25500
9263886;-0.26000
9266664;-0.24500
9269442;-0.24500
9272220;-0.25000
9274997;-0.26500
9277775;-0.26000
9280553;-0.25500
9283331;-0.25000
9286109;-0.25000
9288886;-0.25000
9291664;-0.26000
9294442;-0.26500
9297220;-0.27000
9299997;-0.26500
9302775;-0.25500
9305553;-0.27000
9308331;-0.26500
9311109;-0.28500
9313886;-0.26500
9316664;-0.25500
9319442;-0.25000
9322220;-0.26500
9324997;-0.27500
9327775;-0.27500
9330553;-0.27000
9333331;-0.29000
9336108;-0.28500
9338886;-0.28500
9341664;-0.29500
9344442;-0.30000
9347220;-0.30000
9349997;-0.28500
9352775;-0.27000
9355553;-0.28000
9358331;-0.29000
9361108;-0.30500
9363886;-0.29000
9366664;-0.28500
9369442;-0.27500
9372220;-0.28000
9374997;-0.29000
9377775;-0.29500
9380553;-0.29000
9383331;-0.28000
9386108;-0.28000
9388886;-0.28500
9391664;-0.27500
9394442;-0.28000
9397220;-0.27000
9399997;-0.26500
9402775;-0.26500
9405553;-0.27000
9408331;-0.26500
9411108;-0.27500
9413886;-0.28000
9416664;-0.27500
9419442;-0.26500
9422220;-0.25500
9424997;-0.27500
9427775;-0.28000
9430553;-0.25000
9433331;-0.24000
9436108;-0.23500
9438886;-0.22500
9441664;-0.23500
9444442;-0.24500
9447220;-0.22000
9449997;-0.20500
9452775;-0.19500
9455553;-0.18500
9458331;-0.19500
9461108;-0.19500
9463886;-0.18000
9466664;-0.15500
9469442;-0.15000
9472220;-0.14000
9474997;-0.14500
9477775;-0.15000
9480553;-0.14500
9483331;-0.14500
9486108;-0.15000
9488886;-0.15500
9491664;-0.16500
9494442;-0.17500
9497220;-0.16000
9499997;-0.14000
9502775;-0.14000
9505553;-0.16500
9508331;-0.18000
9511108;-0.17000
9513886;-0.15000
9516664;-0.12000
9519442;-0.09500
9522220;-0.11500
9524997;-0.15500
9527775;-0.20500
9530553;-0.21000
9533331;-0.22000
9536108;-0.22000
9538886;-0.24000
9541664;-0.27000
9544442;-0.29500
9547220;-0.28500
9549997;-0.28000
9552775;-0.28000
9555553;-0.27500
9558331;-0.28000
9561108;-0.30000
9563886;-0.28500
9566664;-0.28000
9569442;-0.28500
9572220;-0.29000
9574997;-0.29000
9577775;-0.31000
9580553;-0.31500
9583331;-0.31000
9586108;-0.30500
9588886;-0.30000
9591664;-0.30500
9594442;-0.31000
9597220;-0.32000
9599997;-0.30000
9602775;-0.29000
9605553;-0.30500
9608331;-0.31500
9611108;-0.34000
9613886;-0.35000
9616664;-0.38000
9619442;-0.40500
9622220;-0.41500
9624997;-0.46500
9627775;-0.50500
9630553;-0.49000
9633331;-0.42000
9636108;-0.27000
9638886;-0.11000
9641664;0.04000
9644442;0.24500
9647220;0.53000
9649997;0.80000
9652775;1.03000
9655553;1.15500
9658331;1.18000
9661108;1.06000
9663886;0.75500
9666664;0.32500
9669442;-0.07000
9672220;-0.35000
9674997;-0.46500
9677775;-0.46000
9680553;-0.40000
9683331;-0.36000
9686108;-0.33000
9688886;-0.33000
9691664;-0.35500
9694442;-0.36500
9697220;-0.34500
9699997;-0.34500
9702775;-0.34000
9705553;-0.34000
9708331;-0.35500
9711108;-0.36000
9713886;-0.36000
9716664;-0.36500
9719442;-0.34500
9722220;-0.35500
9724997;-0.37000
9727775;-0.38000
9730553;-0.36000
9733331;-0.35000
9736108;-0.35500
9738886;-0.36500
9741664;-0.37000
9744442;-0.37500
9747219;-0.36500
9749997;-0.37500
9752775;-0.37000
9755553;-0.35500
9758331;-0.37500
9761108;-0.38000
9763886;-0.38000
9766664;-0.37500
9769442;-0.36000
9772219;-0.36000
9774997;-0.36000
9777775;-0.36500
9780553;-0.37000
9783331;-0.36000
9786108;-0.35500
9788886;-0.35500
9791664;-0.35000
9794442;-0.36500
9797219;-0.35500
9799997;-0.35500
9802775;-0.34500
9805553;-0.34500
9808331;-0.35500
9811108;-0.37500
9813886;-0.37000
9816664;-0.36500
9819442;-0.35000
9822219;-0.36500
9824997;-0.37000
9827775;-0.37500
9830553;-0.37000
9833331;-0.36500
9836108;-0.35500
9838886;-0.38000
9841664;-0.38500
9844442;-0.39500
9847219;-0.38000
9849997;-0.37500
9852775;-0.36500
9855553;-0.37500
9858331;-0.38500
9861108;-0.38000
9863886;-0.36500
9866664;-0.36000
9869442;-0.34000
9872219;-0.35500
9874997;-0.36000
9877775;-0.37000
9880553;-0.37500
9883331;-0.36000
9886108;-0.35000
9888886;-0.36500
9891664;-0.37000
9894442;-0.39500
9897219;-0.37000
9899997;-0.37000
9902775;-0.37000
9905553;-0.37000
9908331;-0.38500
9911108;-0.38500
9913886;-0.38500
9916664;-0.37500
9919442;-0.37500
9922219;-0.37000
9924997;-0.38000
9927775;-0.37500
9930553;-0.36500
9933331;-0.36000
9936108;-0.34500
9938886;-0.34000
9941664;-0.34000
9944442;-0.33500
9947219;-0.31500
9949997;-0.30000
9952775;-0.28500
9955553;-0.26500
9958331;-0.26000
9961108;-0.25500
9963886;-0.25000
9966664;-0.23000
9969442;-0.22500
9972219;-0.22000
9974997;-0.23000
9977775;-0.23500
9980553;-0.22500
9983331;-0.22000
9986108;-0.23000
9988886;-0.21500
9991664;-0.22500
9994442;-0.23500
9997219;-0.21500
9999997;-0.22000
10002775;-0.21000
10005553;-0.22000
10008331;-0.22000
10011108;-0.23000
10013886;-0.23000
10016664;-0.21500
10019442;-0.20000
10022219;-0.21000
10024997;-0.22000
10027775;-0.22000
10030553;-0.22500
10033331;-0.21500
10036108;-0.21500
10038886;-0.21000
10041664;-0.23000
10044442;-0.23500
10047219;-0.23500
10049997;-0.23500
10052775;-0.23000
10055553;-0.21500
10058331;-0.24000
10061108;-0.25000
10063886;-0.26500
10066664;-0.23500
10069442;-0.23000
10072219;-0.24000
10074997;-0.24500
10077775;-0.26000
10080553;-0.23500
10083331;-0.25000
10086108;-0.23000
10088886;-0.22500
10091664;-0.25000
10094442;-0.24500
10097219;-0.24000
10099997;-0.24000
10102775;-0.24000
10105553;-0.24000
10108331;-0.25500
10111108;-0.26500
10113886;-0.26500
10116664;-0.25500
10119442;-0.25000
10122219;-0.26500
10124997;-0.27500
10127775;-0.28500
10130553;-0.27500
10133330;-0.26500
10136108;-0.26500
10138886;-0.28000
10141664;-0.28500
10144442;-0.30000
10147219;-0.29500
10149997;-0.28000
10152775;-0.28000
10155553;-0.27500
10158330;-0.28500
10161108;-0.29000
10163886;-0.28000
10166664;-0.27500
10169442;-0.26500
10172219;-0.26500
10174997;-0.26500
10177775;-0.27500
10180553;-0.28000
10183330;-0.27000
10186108;-0.27500
10188886;-0.25500
10191664;-0.25500
10194442;-0.26000
10197219;-0.24500
10199997;-0.22500
10202775;-0.21500
10205553;-0.20500
10208330;-0.21000
10211108;-0.21500
10213886;-0.20500
10216664;-0.19500
10219442;-0.20000
10222219;-0.19500
10224997;-0.18500
10227775;-0.18500
10230553;-0.16500
10233330;-0.15500
10236108;-0.13500
10238886;-0.14000
10241664;-0.13000
10244442;-0.15000
10247219;-0.14000
10249997;-0.14500
10252775;-0.13500
10255553;-0.15000
10258330;-0.15000
10261108;-0.15000
10263886;-0.13500
10266664;-0.14500
10269442;-0.12500
10272219;-0.10500
10274997;-0.11000
10277775;-0.14000
10280553;-0.18000
10283330;-0.19500
10286108;-0.21000
10288886;-0.21500
10291664;-0.23500
10294442;-0.24500
10297219;-0.26500
10299997;-0.27000
10302775;-0.26500
10305553;-0.27000
10308330;-0.27500
10311108;-0.27500
10313886;-0.28000
10316664;-0.26500
10319442;-0.26500
10322219;-0.27000
10324997;-0.28500
10327775;-0.29500
10330553;-0.28500
10333330;-0.28500
10336108;-0.28000
10338886;-0.29000
10341664;-0.28500
10344442;-0.31000
10347219;-0.30000
10349997;-0.29000
10352775;-0.29500
10355553;-0.30500
10358330;-0.31500
10361108;-0.31500
10363886;-0.30500
10366664;-0.33000
10369442;-0.35500
10372219;-0.39500
10374997;-0.41500
10377775;-0.42500
10380553;-0.43500
10383330;-0.47000
10386108;-0.52000
10388886;-0.55000
10391664;-0.53500
10394442;-0.50000
10397219;-0.38500
10399997;-0.25000
10402775;-0.10000
10405553;0.08000
10408330;0.31000
10411108;0.59000
10413886;0.86000
10416664;1.04500
10419442;1.11000
10422219;1.01000
10424997;0.71500
10427775;0.26500
10430553;-0.13500
10433330;-0.38500
10436108;-0.43500
10438886;-0.41000
10441664;-0.36000
10444442;-0.34500
10447219;-0.33000
10449997;-0.32500
10452775;-0.33000
10455553;-0.32500
10458330;-0.33500
10461108;-0.36500
10463886;-0.35500
10466664;-0.33500
10469442;-0.33000
10472219;-0.34500
10474997;-0.34500
10477775;-0.34500
10480553;-0.35000
10483330;-0.35000
10486108;-0.34500
10488886;-0.34500
10491664;-0.36000
10494442;-0.35000
10497219;-0.34500
10499997;-0.34500
10502775;-0.34000
10505553;-0.34500
10508330;-0.34500
10511108;-0.35500
10513886;-0.34500
10516664;-0.34500
10519441;-0.33500
10522219;-0.34000
10524997;-0.34500
10527775;-0.35000
10530553;-0.35000
10533330;-0.34000
10536108;-0.33500
10538886;-0.34000
10541664;-0.32500
10544441;-0.33500
10547219;-0.33500
10549997;-0.32000
10552775;-0.32000
10555553;-0.32500
10558330;-0.33500
10561108;-0.34000
10563886;-0.35000
10566664;-0.34000
10569441;-0.33000
10572219;-0.33000
10574997;-0.35000
10577775;-0.35000
10580553;-0.35000
10583330;-0.34500
10586108;-0.33500
10588886;-0.34500
10591664;-0.35500
10594441;-0.38000
10597219;-0.36500
10599997;-0.35500
10602775;-0.34000
10605553;-0.34000
10608330;-0.36000
10611108;-0.35500
10613886;-0.35000
10616664;-0.34500
10619441;-0.33000
10622219;-0.34000
10624997;-0.35000
10627775;-0.36000
10630553;-0.36500
10633330;-0.35000
10636108;-0.35000
10638886;-0.36000
10641664;-0.36000
10644441;-0.36500
10647219;-0.36000
10649997;-0.35500
10652775;-0.35500
10655553;-0.35000
10658330;-0.35500
10661108;-0.37500
10663886;-0.37000
10666664;-0.36000
10669441;-0.34000
10672219;-0.34500
10674997;-0.35000
10677775;-0.36500
10680553;-0.36000
10683330;-0.34500
10686108;-0.34500
10688886;-0.35000
10691664;-0.35000
10694441;-0.35500
10697219;-0.34500
10699997;-0.34000
10702775;-0.31500
10705553;-0.31000
10708330;-0.31000
10711108;-0.30500
10713886;-0.28500
10716664;-0.26000
10719441;-0.24000
10722219;-0.23500
10724997;-0.24000
10727775;-0.24000
10730553;-0.22500
10733330;-0.22500
10736108;-0.21500
10738886;-0.22000
10741664;-0.21500
10744441;-0.22000
10747219;-0.22000
10749997;-0.21000
10752775;-0.20000
10755553;-0.21000
10758330;-0.20000
10761108;-0.22000
10763886;-0.21500
10766664;-0.20500
10769441;-0.20500
10772219;-0.21000
10774997;-0.21500
10777775;-0.23000
10780553;-0.21500
10783330;-0.20000
10786108;-0.20000
10788886;-0.19500
10791664;-0.20500
10794441;-0.21000
10797219;-0.20500
10799997;-0.21000
10802775;-0.20500
10805553;-0.20000
10808330;-0.20500
10811108;-0.22000
10813886;-0.22500
10816664;-0.21500
10819441;-0.22500
10822219;-0.22000
10824997;-0.22000
10827775;-0.24000
10830553;-0.24500
10833330;-0.23000
10836108;-0.22500
10838886;-0.22500
10841664;-0.22000
10844441;-0.24000
10847219;-0.24500
10849997;-0.24500
10852775;-0.23500
10855553;-0.23000
10858330;-0.24500
10861108;-0.25000
10863886;-0.25000
10866664;-0.24500
10869441;-0.24500
10872219;-0.24500
10874997;-0.24500
10877775;-0.25500
10880553;-0.24500
10883330;-0.25000
10886108;-0.24500
10888886;-0.25000
10891664;-0.25000
10894441;-0.25500
10897219;-0.26500
10899997;-0.27000
10902775;-0.25000
10905553;-0.27000
10908330;-0.26500
10911108;-0.28000
10913886;-0.28000
10916664;-0.26500
10919441;-0.25500
10922219;-0.25500
10924997;-0.27000
10927775;-0.27000
10930552;-0.27000
10933330;-0.26000
10936108;-0.25500
10938886;-0.25000
10941664;-0.27500
10944441;-0.27500
10947219;-0.26500
10949997;-0.26000
10952775;-0.25500
10955552;-0.25500
10958330;-0.26500
10961108;-0.26500
10963886;-0.26000
10966664;-0.26500
10969441;-0.25500
10972219;-0.25000
10974997;-0.25500
10977775;-0.25000
10980552;-0.25000
10983330;-0.24000
10986108;-0.23000
10988886;-0.22000
10991664;-0.22500
10994441;-0.22500
10997219;-0.21500
10999997;-0.20000
11002775;-0.17500
11005552;-0.17000
11008330;-0.17500
11011108;-0.19000
11013886;-0.19000
11016664;-0.17500
11019441;-0.16000
11022219;-0.15000
11024997;-0.13500
11027775;-0.14500
11030552;-0.13500
11033330;-0.12000
11036108;-0.13000
11038886;-0.13000
11041664;-0.15000
11044441;-0.16000
11047219;-0.16000
11049997;-0.14500
11052775;-0.13500
11055552;-0.13500
11058330;-0.15000
11061108;-0.16000
11063886;-0.14000
11066664;-0.10500
11069441;-0.09500
11072219;-0.10500
11074997;-0.15000
11077775;-0.19500
11080552;-0.21000
11083330;-0.21000
11086108;-0.20500
11088886;-0.22500
11091664;-0.25500
11094441;-0.26500
11097219;-0.27500
11099997;-0.27500
11102775;-0.27500
11105552;-0.28500
11108330;-0.28000
11111108;-0.29000
11113886;-0.29500
11116664;-0.29000
11119441;-0.28000
11122219;-0.28000
11124997;-0.29000
11127775;-0.29000
11130552;-0.29000
11133330;-0.29000
11136108;-0.28000
11138886;-0.29000
11141664;-0.28500
11144441;-0.29500
11147219;-0.30000
11149997;-0.29500
11152775;-0.29500
11155552;-0.29500
11158330;-0.32000
11161108;-0.35000
11163886;-0.36000
11166664;-0.37500
11169441;-0.39000
11172219;-0.39500
11174997;-0.41000
11177775;-0.41500
11180552;-0.42000
11183330;-0.47000
11186108;-0.52000
11188886;-0.54500
11191664;-0.51000
11194441;-0.41000
11197219;-0.25500
11199997;-0.09500
11202775;0.10500
11205552;0.38000
11208330;0.66500
11211108;0.87000
11213886;0.97000
11216664;0.91000
11219441;0.63000
11222219;0.18000
11224997;-0.20500
11227775;-0.44500
11230552;-0.48500
11233330;-0.42000
11236108;-0.35500
11238886;-0.34000
11241664;-0.36500
11244441;-0.38500
11247219;-0.37500
11249997;-0.36000
11252775;-0.35000
11255552;-0.34500
11258330;-0.34500
11261108;-0.36500
11263886;-0.37500
11266664;-0.36500
11269441;-0.36000
11272219;-0.36500
11274997;-0.36500
11277775;-0.36500
11280552;-0.36500
11283330;-0.35000
11286108;-0.34000
11288886;-0.35000
11291664;-0.36500
11294441;-0.36500
11297219;-0.36500
11299997;-0.36000
11302775;-0.37000
11305552;-0.37500
11308330;-0.38000
11311108;-0.38000
11313886;-0.38500
11316663;-0.37000
11319441;-0.35000
11322219;-0.36000
11324997;-0.37000
11327775;-0.38000
11330552;-0.37000
11333330;-0.36000
11336108;-0.33500
11338886;-0.35500
11341663;-0.36000
11344441;-0.38000
11347219;-0.36500
11349997;-0.36000
11352775;-0.36000
11355552;-0.35500
11358330;-0.38000
11361108;-0.38500
11363886;-0.37500
11366663;-0.37000
11369441;-0.37000
11372219;-0.38000
11374997;-0.38500
11377775;-0.39500
11380552;-0.38500
11383330;-0.37000
11386108;-0.36000
11388886;-0.36000
11391663;-0.36500
11394441;-0.37500
11397219;-0.37500
11399997;-0.36500
11402775;-0.35500
11405552;-0.36000
11408330;-0.36500
11411108;-0.37000
11413886;-0.36000
11416663;-0.36000
11419441;-0.35000
11422219;-0.35000
11424997;-0.36000
11427775;-0.36500
11430552;-0.35000
11433330;-0.35000
11436108;-0.36000
11438886;-0.35000
11441663;-0.36500
11444441;-0.37500
11447219;-0.37000
11449997;-0.37500
11452775;-0.37500
11455552;-0.38500
11458330;-0.40000
11461108;-0.40500
11463886;-0.40500
11466663;-0.39000
11469441;-0.39500
11472219;-0.38500
11474997;-0.39000
11477775;-0.40000
11480552;-0.40500
11483330;-0.39000
11486108;-0.37500
11488886;-0.37500
11491663;-0.37500
11494441;-0.37500
11497219;-0.36000
11499997;-0.34500
11502775;-0.32000
11505552;-0.31500
11508330;-0.31500
11511108;-0.31500
11513886;-0.31000
11516663;-0.29000
11519441;-0.28000
11522219;-0.27500
11524997;-0.28500
11527775;-0.28500
11530552;-0.27500
11533330;-0.24500
11536108;-0.26000
11538886;-0.26000
11541663;-0.26500
11544441;-0.26000
11547219;-0.26000
11549997;-0.24500
11552775;-0.23000
11555552;-0.23500
11558330;-0.25000
11561108;-0.25000
11563886;-0.24500
11566663;-0.24000
11569441;-0.22500
11572219;-0.23000
11574997;-0.24000
11577775;-0.25500
11580552;-0.25000
11583330;-0.25000
11586108;-0.24000
11588886;-0.25000
11591663;-0.26000
11594441;-0.26500
11597219;-0.26500
11599997;-0.24500
11602775;-0.23500
11605552;-0.24000
11608330;-0.25500
11611108;-0.26500
11613886;-0.27500
11616663;-0.26500
11619441;-0.26000
11622219;-0.26500
11624997;-0.26500
11627775;-0.28000
11630552;-0.27000
11633330;-0.26500
11636108;-0.26000
11638886;-0.26000
11641663;-0.26000
11644441;-0.27000
11647219;-0.28500
11649997;-0.27500
11652775;-0.28500
11655552;-0.28000
11658330;-0.29500
11661108;-0.30000
11663886;-0.28500
11666663;-0.28000
11669441;-0.28500
11672219;-0.29500
11674997;-0.31000
11677775;-0.32000
11680552;-0.31000
11683330;-0.30000
11686108;-0.30000
11688886;-0.30000
11691663;-0.31000
11694441;-0.31500
11697219;-0.31500
11699997;-0.30500
11702775;-0.30000
11705552;-0.29500
11708330;-0.31500
11711108;-0.32000
11713886;-0.30500
11716663;-0.29000
11719441;-0.29000
11722219;-0.30500
11724997;-0.31500
11727774;-0.32500
11730552;-0.31000
11733330;-0.31000
11736108;-0.29000
11738886;-0.30500
11741663;-0.31000
11744441;-0.34000
11747219;-0.33000
11749997;-0.31500
11752774;-0.31000
11755552;-0.30500
11758330;-0.31000
11761108;-0.32000
11763886;-0.30500
11766663;-0.29500
11769441;-0.29500
11772219;-0.29500
11774997;-0.29500
11777774;-0.30500
11780552;-0.30000
11783330;-0.29000
11786108;-0.28500
11788886;-0.28500
11791663;-0.30000
11794441;-0.31000
11797219;-0.29500
11799997;-0.29500
11802774;-0.27500
11805552;-0.27500
11808330;-0.28500
11811108;-0.28500
11813886;-0.28500
11816663;-0.27000
11819441;-0.25500
11822219;-0.24500
11824997;-0.24500
11827774;-0.25500
11830552;-0.25000
11833330;-0.23000
11836108;-0.22000
11838886;-0.21000
11841663;-0.20000
11844441;-0.20500
11847219;-0.20000
11849997;-0.19000
11852774;-0.19000
11855552;-0.20000
11858330;-0.20000
11861108;-0.21500
11863886;-0.21000
11866663;-0.21000
11869441;-0.21500
11872219;-0.20000
11874997;-0.21000
11877774;-0.22500
11880552;-0.22500
11883330;-0.21500
11886108;-0.19500
11888886;-0.17500
11891663;-0.20000
11894441;-0.23500
11897219;-0.23500
11899997;-0.25500
11902774;-0.25500
11905552;-0.27500
11908330;-0.30000
11911108;-0.31500
11913886;-0.31500
11916663;-0.32500
11919441;-0.33000
11922219;-0.33500
11924997;-0.34000
11927774;-0.33500
11930552;-0.33500
11933330;-0.34000
11936108;-0.32500
11938886;-0.33000
11941663;-0.34500
11944441;-0.36500
11947219;-0.36000
11949997;-0.35500
11952774;-0.34500
11955552;-0.32500
11958330;-0.34500
11961108;-0.34500
11963886;-0.36000
11966663;-0.34500
11969441;-0.34500
11972219;-0.35000
11974997;-0.35500
11977774;-0.36000
11980552;-0.34500
11983330;-0.33500
11986108;-0.33000
11988886;-0.33500
11991663;-0.36000
11994441;-0.39500
11997219;-0.41500
11999997;-0.46000
12002774;-0.44500
12005552;-0.49000
12008330;-0.53500
12011108;-0.54500
12013886;-0.48000
12016663;-0.35500
12019441;-0.21000
12022219;-0.03500
12024997;0.18500
12027774;0.44000
12030552;0.71000
12033330;0.87000
12036108;0.90500
12038886;0.77500
12041663;0.45500
12044441;0.05500
12047219;-0.26500
12049997;-0.45500
12052774;-0.49500
12055552;-0.48000
12058330;-0.45500
12061108;-0.44000
12063886;-0.41500
12066663;-0.40000
12069441;-0.40000
12072219;-0.40000
12074997;-0.41500
12077774;-0.42000
12080552;-0.41500
12083330;-0.40000
12086108;-0.39500
12088886;-0.39500
12091663;-0.40000
12094441;-0.41500
12097219;-0.42000
12099997;-0.41500
12102774;-0.40000
12105552;-0.41000
12108330;-0.41000
12111108;-0.42500
12113885;-0.43000
12116663;-0.40500
12119441;-0.41500
12122219;-0.40500
12124997;-0.41500
12127774;-0.42000
12130552;-0.41000
12133330;-0.40000
12136108;-0.38500
12138885;-0.39000
12141663;-0.40500
12144441;-0.42000
12147219;-0.39500
12149997;-0.38500
12152774;-0.39500
12155552;-0.40000
12158330;-0.40500
12161108;-0.42000
12163885;-0.41500
12166663;-0.40500
12169441;-0.40000
12172219;-0.40000
12174997;-0.41500
12177774;-0.43000
12180552;-0.42000
12183330;-0.41000
12186108;-0.40500
12188885;-0.41000
12191663;-0.42000
12194441;-0.43000
12197219;-0.42500
12199997;-0.43000
12202774;-0.41500
12205552;-0.41500
12208330;-0.42000
12211108;-0.44000
12213885;-0.42500
12216663;-0.41500
12219441;-0.41000
12222219;-0.42500
12224997;-0.42000
12227774;-0.42000
12230552;-0.42000
12233330;-0.41500
12236108;-0.41000
12238885;-0.41500
12241663;-0.41500
12244441;-0.43000
12247219;-0.43000
12249997;-0.42500
12252774;-0.41500
12255552;-0.43000
12258330;-0.44500
12261108;-0.45500
12263885;-0.44500
12266663;-0.44000
12269441;-0.45500
12272219;-0.45000
12274997;-0.45500
12277774;-0.47500
12280552;-0.47500
12283330;-0.46500
12286108;-0.47000
12288885;-0.47000
12291663;-0.48500
12294441;-0.49000
12297219;-0.48500
12299997;-0.47500
12302774;-0.46000
12305552;-0.47000
12308330;-0.47000
12311108;-0.48000
12313885;-0.47000
12316663;-0.45000
12319441;-0.43500
12322219;-0.44000
12324997;-0.45000
12327774;-0.44500
12330552;-0.44500
12333330;-0.42500
12336108;-0.40000
12338885;-0.39000
12341663;-0.39000
12344441;-0.37500
12347219;-0.35500
12349997;-0.33500
12352774;-0.33000
12355552;-0.32500
12358330;-0.31000
12361108;-0.31000
12363885;-0.30000
12366663;-0.29000
12369441;-0.27500
12372219;-0.28000
12374997;-0.28000
12377774;-0.29000
12380552;-0.28000
12383330;-0.27000
12386108;-0.25500
12388885;-0.26000
12391663;-0.27500
12394441;-0.27000
12397219;-0.26000
12399997;-0.25500
12402774;-0.24500
12405552;-0.25000
12408330;-0.25000
12411108;-0.26500
12413885;-0.27000
12416663;-0.25000
12419441;-0.24000
12422219;-0.24000
12424997;-0.25500
12427774;-0.26500
12430552;-0.28000
12433330;-0.26500
12436108;-0.25500
12438885;-0.26000
12441663;-0.27500
12444441;-0.28500
12447219;-0.28000
12449997;-0.27000
12452774;-0.27000
12455552;-0.28000
12458330;-0.28000
12461108;-0.28500
12463885;-0.28000
12466663;-0.27000
12469441;-0.25500
12472219;-0.26500
12474997;-0.27500
12477774;-0.28000
12480552;-0.28000
12483330;-0.27500
12486108;-0.26500
12488885;-0.27500
12491663;-0.27000
12494441;-0.28000
12497219;-0.30000
12499996;-0.28500
12502774;-0.28000
12505552;-0.28000
12508330;-0.28500
12511108;-0.29500
12513885;-0.28000
12516663;-0.27500
12519441;-0.28000
12522219;-0.28000
12524996;-0.28500
12527774;-0.29000
12530552;-0.31000
12533330;-0.29000
12536108;-0.28000
12538885;-0.28000
12541663;-0.29000
12544441;-0.29500
12547219;-0.28500
12549996;-0.26500
12552774;-0.28000
12555552;-0.28000
12558330;-0.29500
12561108;-0.28500
12563885;-0.29000
12566663;-0.27000
12569441;-0.27500
12572219;-0.27000
12574996;-0.28500
12577774;-0.29000
12580552;-0.28500
12583330;-0.28500
12586108;-0.27500
12588885;-0.27500
12591663;-0.27500
12594441;-0.28000
12597219;-0.27500
12599996;-0.25500
12602774;-0.25000
12605552;-0.25500
12608330;-0.26000
12611108;-0.26000
12613885;-0.26000
12616663;-0.24000
12619441;-0.23000
12622219;-0.23000
12624996;-0.23500
12627774;-0.25000
12630552;-0.23500
12633330;-0.22000
12636108;-0.20500
12638885;-0.19500
12641663;-0.20500
12644441;-0.21000
12647219;-0.20000
12649996;-0.17000
12652774;-0.17000
12655552;-0.16000
12658330;-0.16000
12661108;-0.17000
12663885;-0.15500
12666663;-0.14500
12669441;-0.13500
12672219;-0.15000
12674996;-0.17000
12677774;-0.18500
12680552;-0.16000
12683330;-0.16500
12686108;-0.15500
12688885;-0.15500
12691663;-0.14500
12694441;-0.15500
12697219;-0.13500
12699996;-0.10500
12702774;-0.09500
12705552;-0.12500
12708330;-0.17500
12711108;-0.20500
12713885;-0.21000
12716663;-0.20500
12719441;-0.21000
12722219;-0.23000
12724996;-0.24500
12727774;-0.26500
12730552;-0.27000
12733330;-0.27500
12736108;-0.28000
12738885;-0.27500
12741663;-0.27500
12744441;-0.28500
12747219;-0.28000
12749996;-0.28000
12752774;-0.27500
12755552;-0.28500
12758330;-0.29500
12761108;-0.29500
12763885;-0.30000
12766663;-0.28500
12769441;-0.28500
12772219;-0.28000
12774996;-0.29000
12777774;-0.30500
12780552;-0.30500
12783330;-0.29500
12786108;-0.28500
12788885;-0.29500
12791663;-0.33000
12794441;-0.34500
12797219;-0.38000
12799996;-0.39000
12802774;-0.41500
12805552;-0.44500
12808330;-0.48000
12811108;-0.45500
12813885;-0.37000
12816663;-0.20000
12819441;-0.03000
12822219;0.16000
12824996;0.40500
12827774;0.68500
12830552;0.93500
12833330;1.07000
12836108;1.03500
12838885;0.77500
12841663;0.33500
12844441;-0.13000
12847219;-0.39500
12849996;-0.46000
12852774;-0.40000
12855552;-0.34000
12858330;-0.32500
12861108;-0.33000
12863885;-0.34500
12866663;-0.34500
12869441;-0.32500
12872219;-0.32500
12874996;-0.33500
12877774;-0.34500
12880552;-0.35500
12883330;-0.33500
12886108;-0.32000
12888885;-0.33000
12891663;-0.32500
12894441;-0.34000
12897219;-0.34000
12899996;-0.33000
12902774;-0.32500
12905552;-0.33000
12908330;-0.33500
12911107;-0.34500
12913885;-0.34500
12916663;-0.33000
12919441;-0.32500
12922219;-0.33000
12924996;-0.33500
12927774;-0.36000
12930552;-0.34000
12933330;-0.34000
12936107;-0.33000
12938885;-0.33000
12941663;-0.34500
12944441;-0.34500
12947219;-0.34500
12949996;-0.34000
12952774;-0.33500
12955552;-0.32000
12958330;-0.33000
12961107;-0.34000
12963885;-0.33000
12966663;-0.32000
12969441;-0.31500
12972219;-0.31000
12974996;-0.32500
12977774;-0.33500
12980552;-0.33500
12983330;-0.32000
12986107;-0.32500
12988885;-0.33000
12991663;-0.34500
12994441;-0.36000
12997219;-0.34500
12999996;-0.33500
13002774;-0.33000
13005552;-0.33500
13008330;-0.34000
13011107;-0.35500
13013885;-0.34000
13016663;-0.33500
13019441;-0.32000
13022219;-0.32500
13024996;-0.32500
13027774;-0.33000
13030552;-0.33000
13033330;-0.32500
13036107;-0.32500
13038885;-0.33000
13041663;-0.33500
13044441;-0.34000
13047219;-0.34000
13049996;-0.34500
13052774;-0.33500
13055552;-0.34000
13058330;-0.34500
13061107;-0.35000
13063885;-0.37000
13066663;-0.35500
13069441;-0.35000
13072219;-0.34000
13074996;-0.35500
13077774;-0.36500
13080552;-0.36000
13083330;-0.34500
13086107;-0.34500
13088885;-0.34000
13091663;-0.34000
13094441;-0.34500
13097219;-0.33000
13099996;-0.31500
13102774;-0.30000
13105552;-0.28500
13108330;-0.28500
13111107;-0.29000
13113885;-0.26500
13116663;-0.25000
13119441;-0.23500
13122219;-0.23500
13124996;-0.22500
13127774;-0.22500
13130552;-0.22500
13133330;-0.21000
13136107;-0.19500
13138885;-0.20000
13141663;-0.20000
13144441;-0.21000
13147219;-0.20000
13149996;-0.19000
13152774;-0.17500
13155552;-0.18000
13158330;-0.18000
13161107;-0.20000
13163885;-0.19000
13166663;-0.17500
13169441;-0.17000
13172219;-0.17500
13174996;-0.17500
13177774;-0.19000
13180552;-0.19000
13183330;-0.18500
13186107;-0.18500
13188885;-0.18500
13191663;-0.20000
13194441;-0.20500
13197219;-0.20500
13199996;-0.19500
13202774;-0.19000
13205552;-0.19000
13208330;-0.20500
13211107;-0.21500
13213885;-0.21500
13216663;-0.21500
13219441;-0.20500
13222219;-0.21000
13224996;-0.21500
13227774;-0.23500
13230552;-0.22500
13233330;-0.21500
13236107;-0.20500
13238885;-0.21500
13241663;-0.21500
13244441;-0.23000
13247219;-0.22000
13249996;-0.22000
13252774;-0.21500
13255552;-0.21500
13258330;-0.23000
13261107;-0.25000
13263885;-0.24500
13266663;-0.24000
13269441;-0.23500
13272219;-0.23500
13274996;-0.24500
13277774;-0.25500
13280552;-0.25500
13283330;-0.24500
13286107;-0.23500
13288885;-0.23500
13291663;-0.25500
13294441;-0.26000
13297218;-0.25500
13299996;-0.24500
13302774;-0.24000
13305552;-0.24500
13308330;-0.24500
13311107;-0.25000
13313885;-0.24000
13316663;-0.24500
13319441;-0.23500
13322218;-0.24500
13324996;-0.24000
13327774;-0.26000
13330552;-0.26500
13333330;-0.25000
13336107;-0.25000
13338885;-0.23500
13341663;-0.25500
13344441;-0.25500
13347218;-0.25000
13349996;-0.24000
13352774;-0.23000
13355552;-0.21000
13358330;-0.22000
13361107;-0.22000
13363885;-0.20500
13366663;-0.20000
13369441;-0.17500
13372218;-0.17500
13374996;-0.17500
13377774;-0.18000
13380552;-0.16500
13383330;-0.15000
13386107;-0.13500
13388885;-0.12500
13391663;-0.12500
13394441;-0.12500
13397218;-0.12500
13399996;-0.11000
13402774;-0.11500
13405552;-0.12500
13408330;-0.14000
13411107;-0.16000
13413885;-0.15000
13416663;-0.13500
13419441;-0.13000
13422218;-0.11000
13424996;-0.10500
13427774;-0.10000
13430552;-0.10000
13433330;-0.12500
13436107;-0.15000
13438885;-0.18500
13441663;-0.19000
13444441;-0.22000
13447218;-0.21500
13449996;-0.22000
13452774;-0.22000
13455552;-0.22000
13458330;-0.23500
13461107;-0.26000
13463885;-0.24500
13466663;-0.24000
13469441;-0.24000
13472218;-0.24000
13474996;-0.25000
13477774;-0.28500
13480552;-0.26000
13483330;-0.25500
13486107;-0.25500
13488885;-0.27000
13491663;-0.27500
13494441;-0.28500
13497218;-0.28000
13499996;-0.27000
13502774;-0.26000
13505552;-0.26000
13508330;-0.27500
13511107;-0.28500
13513885;-0.29000
13516663;-0.27500
13519441;-0.27000
13522218;-0.28000
13524996;-0.30500
13527774;-0.34500
13530552;-0.38500
13533330;-0.39500
13536107;-0.41500
13538885;-0.48000
13541663;-0.51000
13544441;-0.48500
13547218;-0.40000
13549996;-0.28500
13552774;-0.16000
13555552;-0.07000
13558330;0.00500
13561107;0.13000
13563885;0.34500
13566663;0.62000
13569441;0.86000
13572218;1.03500
