time_ms;ecg_value
0;-0.48000
2778;-0.48000
5556;-0.48000
8333;-0.49500
11111;-0.49000
13889;-0.47000
16667;-0.46000
19444;-0.46000
22222;-0.46500
25000;-0.46000
27778;-0.46500
30556;-0.47500
33333;-0.47000
36111;-0.46500
38889;-0.48000
41667;-0.47000
44444;-0.48000
47222;-0.47000
50000;-0.48000
52778;-0.48000
55556;-0.49000
58333;-0.48500
61111;-0.48500
63889;-0.48000
66667;-0.47500
69444;-0.47500
72222;-0.47500
75000;-0.48000
77778;-0.47000
80556;-0.46500
83333;-0.46500
86111;-0.46000
88889;-0.48000
91667;-0.49000
94444;-0.48500
97222;-0.47500
100000;-0.46500
102778;-0.47000
105556;-0.47000
108333;-0.48500
111111;-0.48000
113889;-0.47500
116667;-0.48500
119444;-0.48500
122222;-0.49000
125000;-0.49500
127778;-0.49000
130556;-0.48000
133333;-0.48000
136111;-0.47500
138889;-0.48500
141667;-0.50000
144444;-0.49000
147222;-0.47500
150000;-0.47000
152778;-0.46500
155556;-0.47000
158333;-0.48000
161111;-0.48500
163889;-0.46500
166667;-0.45000
169444;-0.47000
172222;-0.48000
175000;-0.48000
177778;-0.47500
180556;-0.47500
183333;-0.45500
186111;-0.47000
188889;-0.47000
191667;-0.48000
194444;-0.49000
197222;-0.48500
200000;-0.48000
202778;-0.48000
205555;-0.49500
208333;-0.50500
211111;-0.52000
213889;-0.51000
216667;-0.51000
219444;-0.51500
222222;-0.52000
225000;-0.54000
227778;-0.53500
230555;-0.52500
233333;-0.51500
236111;-0.52000
238889;-0.52500
241667;-0.53500
244444;-0.51000
247222;-0.50000
250000;-0.48500
252778;-0.47500
255555;-0.48000
258333;-0.47500
261111;-0.45500
263889;-0.44000
266667;-0.42500
269444;-0.41500
272222;-0.40500
275000;-0.40000
277778;-0.39500
280555;-0.38500
283333;-0.38000
286111;-0.37500
288889;-0.37500
291667;-0.38500
294444;-0.37000
297222;-0.36500
300000;-0.36000
302778;-0.35500
305555;-0.36000
308333;-0.37500
311111;-0.35500
313889;-0.35000
316667;-0.35000
319444;-0.34500
322222;-0.35000
325000;-0.36000
327778;-0.35500
330555;-0.33500
333333;-0.34000
336111;-0.34500
338889;-0.35500
341667;-0.37000
344444;-0.35500
347222;-0.35000
350000;-0.35500
352778;-0.34500
355555;-0.35500
358333;-0.37500
361111;-0.37000
363889;-0.35500
366667;-0.35000
369444;-0.37500
372222;-0.36000
375000;-0.38500
377778;-0.36500
380555;-0.36500
383333;-0.35500
386111;-0.35500
388889;-0.35500
391667;-0.36000
394444;-0.36000
397222;-0.35500
400000;-0.35000
402778;-0.36500
405555;-0.37000
408333;-0.38500
411111;-0.38000
413889;-0.37500
416667;-0.36500
419444;-0.37000
422222;-0.37500
425000;-0.39000
427778;-0.37500
430555;-0.37500
433333;-0.38000
436111;-0.38500
438889;-0.38500
441667;-0.39000
444444;-0.39000
447222;-0.37500
450000;-0.37000
452778;-0.37000
455555;-0.37500
458333;-0.38500
461111;-0.37500
463889;-0.37000
466667;-0.36500
469444;-0.36000
472222;-0.36500
475000;-0.37000
477778;-0.36500
480555;-0.36500
483333;-0.35500
486111;-0.35500
488889;-0.36000
491667;-0.37500
494444;-0.36000
497222;-0.36500
500000;-0.34500
502778;-0.35500
505555;-0.36000
508333;-0.36500
511111;-0.37000
513889;-0.37500
516667;-0.36000
519444;-0.37000
522222;-0.37000
525000;-0.37500
527778;-0.36500
530555;-0.36500
533333;-0.36500
536111;-0.34000
538889;-0.35000
541667;-0.36000
544444;-0.36500
547222;-0.35000
550000;-0.34000
552778;-0.33500
555555;-0.34000
558333;-0.33500
561111;-0.32000
563889;-0.29500
566667;-0.29000
569444;-0.28500
572222;-0.28000
575000;-0.29000
577778;-0.28000
580555;-0.26500
583333;-0.24000
586111;-0.24000
588889;-0.25000
591667;-0.25000
594444;-0.24500
597222;-0.25500
600000;-0.25000
602778;-0.26000
605555;-0.28000
608333;-0.28000
611111;-0.28500
613889;-0.26500
616666;-0.26500
619444;-0.27000
622222;-0.27500
625000;-0.27000
627778;-0.24500
630555;-0.21500
633333;-0.23000
636111;-0.27500
638889;-0.30000
641666;-0.32000
644444;-0.32500
647222;-0.33500
650000;-0.33000
652778;-0.34500
655555;-0.36500
658333;-0.39000
661111;-0.37500
663889;-0.37000
666666;-0.34500
669444;-0.35500
672222;-0.36500
675000;-0.38000
677778;-0.37000
680555;-0.37500
683333;-0.37000
686111;-0.37000
688889;-0.39000
691666;-0.39000
694444;-0.38000
697222;-0.38000
700000;-0.36000
702778;-0.36500
705555;-0.37500
708333;-0.38500
711111;-0.38500
713889;-0.37500
716666;-0.37000
719444;-0.37500
722222;-0.38000
725000;-0.39500
727778;-0.39500
730555;-0.40000
733333;-0.43000
736111;-0.47000
738889;-0.51000
741666;-0.53500
744444;-0.57000
747222;-0.57500
750000;-0.53500
752778;-0.41500
755555;-0.28500
758333;-0.14000
761111;0.05500
763889;0.31000
766666;0.59500
769444;0.81500
772222;0.92500
775000;0.90000
777778;0.71500
780555;0.38000
783333;0.00000
786111;-0.32500
788889;-0.49500
791666;-0.52500
794444;-0.48000
797222;-0.42500
800000;-0.40000
802778;-0.39500
805555;-0.40000
808333;-0.41000
811111;-0.41000
813889;-0.40500
816666;-0.39000
819444;-0.39500
822222;-0.42500
825000;-0.42000
827778;-0.41500
830555;-0.41000
833333;-0.40000
836111;-0.41500
838889;-0.41000
841666;-0.42000
844444;-0.43000
847222;-0.40500
850000;-0.40500
852778;-0.40500
855555;-0.41000
858333;-0.41500
861111;-0.41500
863889;-0.41000
866666;-0.39500
869444;-0.39500
872222;-0.40500
875000;-0.40000
877778;-0.40000
880555;-0.40500
883333;-0.38000
886111;-0.38000
888889;-0.39500
891666;-0.40000
894444;-0.40500
897222;-0.39500
900000;-0.39000
902778;-0.39000
905555;-0.40000
908333;-0.41500
911111;-0.41000
913889;-0.40000
916666;-0.38500
919444;-0.41500
922222;-0.40000
925000;-0.41000
927778;-0.41500
930555;-0.40500
933333;-0.39500
936111;-0.40000
938889;-0.41000
941666;-0.41500
944444;-0.40500
947222;-0.40500
950000;-0.38500
952778;-0.39000
955555;-0.39500
958333;-0.41500
961111;-0.40000
963889;-0.38500
966666;-0.38500
969444;-0.38500
972222;-0.39000
975000;-0.40000
977778;-0.39000
980555;-0.39500
983333;-0.38500
986111;-0.39000
988889;-0.40000
991666;-0.41000
994444;-0.41000
997222;-0.41500
1000000;-0.40000
1002777;-0.40000
1005555;-0.41000
1008333;-0.41500
1011111;-0.41500
1013889;-0.41000
1016666;-0.39000
1019444;-0.39000
1022222;-0.40500
1025000;-0.42000
1027777;-0.43000
1030555;-0.41000
1033333;-0.40500
1036111;-0.41000
1038889;-0.42000
1041666;-0.42000
1044444;-0.41500
1047222;-0.41500
1050000;-0.41000
1052777;-0.40000
1055555;-0.41000
1058333;-0.41500
1061111;-0.41500
1063889;-0.39500
1066666;-0.38500
1069444;-0.38000
1072222;-0.37000
1075000;-0.37500
1077777;-0.36000
1080555;-0.34500
1083333;-0.32500
1086111;-0.31000
1088889;-0.31500
1091666;-0.30500
1094444;-0.30500
1097222;-0.29000
1100000;-0.28500
1102777;-0.27500
1105555;-0.28000
1108333;-0.29500
1111111;-0.29500
1113889;-0.28000
1116666;-0.27000
1119444;-0.28000
1122222;-0.28500
1125000;-0.29000
1127777;-0.29000
1130555;-0.28500
1133333;-0.26500
1136111;-0.28000
1138889;-0.29000
1141666;-0.30000
1144444;-0.30000
1147222;-0.28500
1150000;-0.27500
1152777;-0.26500
1155555;-0.28500
1158333;-0.30000
1161111;-0.29500
1163889;-0.29500
1166666;-0.28500
1169444;-0.30000
1172222;-0.30500
1175000;-0.31000
1177777;-0.31000
1180555;-0.30000
1183333;-0.28500
1186111;-0.30000
1188889;-0.30500
1191666;-0.32000
1194444;-0.31500
1197222;-0.30500
1200000;-0.30500
1202777;-0.31500
1205555;-0.32000
1208333;-0.33000
1211111;-0.32000
1213889;-0.31500
1216666;-0.31000
1219444;-0.30500
1222222;-0.32000
1225000;-0.32500
1227777;-0.32500
1230555;-0.32000
1233333;-0.32000
1236111;-0.32000
1238889;-0.32500
1241666;-0.34000
1244444;-0.33500
1247222;-0.33000
1250000;-0.32500
1252777;-0.33000
1255555;-0.34000
1258333;-0.33500
1261111;-0.34500
1263889;-0.34000
1266666;-0.33000
1269444;-0.32500
1272222;-0.33500
1275000;-0.33500
1277777;-0.33500
1280555;-0.34000
1283333;-0.33000
1286111;-0.33000
1288889;-0.34000
1291666;-0.35500
1294444;-0.35500
1297222;-0.32500
1300000;-0.32000
1302777;-0.33000
1305555;-0.33500
1308333;-0.36500
1311111;-0.34500
1313889;-0.34000
1316666;-0.32500
1319444;-0.33000
1322222;-0.33000
1325000;-0.34500
1327777;-0.34000
1330555;-0.33500
1333333;-0.33500
1336111;-0.33500
1338889;-0.34000
1341666;-0.35500
1344444;-0.34500
1347222;-0.33500
1350000;-0.33000
1352777;-0.32500
1355555;-0.34000
1358333;-0.34500
1361111;-0.33500
1363889;-0.32500
1366666;-0.31500
1369444;-0.31500
1372222;-0.30500
1375000;-0.31000
1377777;-0.28000
1380555;-0.26500
1383333;-0.26000
1386111;-0.25500
1388888;-0.26500
1391666;-0.26500
1394444;-0.25000
1397222;-0.23500
1400000;-0.21500
1402777;-0.21500
1405555;-0.21500
1408333;-0.22500
1411111;-0.23000
1413888;-0.23000
1416666;-0.23000
1419444;-0.22500
1422222;-0.25500
1425000;-0.26000
1427777;-0.25500
1430555;-0.23500
1433333;-0.25500
1436111;-0.24500
1438888;-0.24000
1441666;-0.24000
1444444;-0.21000
1447222;-0.22000
1450000;-0.24000
1452777;-0.26000
1455555;-0.28500
1458333;-0.31000
1461111;-0.32000
1463888;-0.32000
1466666;-0.31000
1469444;-0.34000
1472222;-0.35500
1475000;-0.36500
1477777;-0.36500
1480555;-0.35500
1483333;-0.34000
1486111;-0.35500
1488888;-0.36500
1491666;-0.37500
1494444;-0.37000
1497222;-0.36500
1500000;-0.35500
1502777;-0.36000
1505555;-0.35500
1508333;-0.37500
1511111;-0.36000
1513888;-0.36500
1516666;-0.36000
1519444;-0.35500
1522222;-0.36000
1525000;-0.36500
1527777;-0.36500
1530555;-0.36500
1533333;-0.36000
1536111;-0.37500
1538888;-0.41500
1541666;-0.46000
1544444;-0.48500
1547222;-0.49500
1550000;-0.51500
1552777;-0.55500
1555555;-0.59500
1558333;-0.53500
1561111;-0.41500
1563888;-0.25500
1566666;-0.09500
1569444;0.11500
1572222;0.37500
1575000;0.62000
1577777;0.81000
1580555;0.87500
1583333;0.79000
1586111;0.52500
1588888;0.14000
1591666;-0.22500
1594444;-0.44500
1597222;-0.50000
1600000;-0.47000
1602777;-0.42500
1605555;-0.40000
1608333;-0.40500
1611111;-0.41000
1613888;-0.40000
1616666;-0.40000
1619444;-0.39500
1622222;-0.41000
1625000;-0.42000
1627777;-0.41000
1630555;-0.40500
1633333;-0.39500
1636111;-0.40000
1638888;-0.41000
1641666;-0.40500
1644444;-0.40500
1647222;-0.40000
1650000;-0.39000
1652777;-0.39000
1655555;-0.41500
1658333;-0.42000
1661111;-0.41000
1663888;-0.40000
1666666;-0.38000
1669444;-0.38000
1672222;-0.40000
1675000;-0.41000
1677777;-0.40000
1680555;-0.39500
1683333;-0.38500
1686111;-0.39000
1688888;-0.40500
1691666;-0.41000
1694444;-0.40000
1697222;-0.39500
1700000;-0.39000
1702777;-0.40000
1705555;-0.40000
1708333;-0.42500
1711111;-0.41000
1713888;-0.39500
1716666;-0.39500
1719444;-0.39500
1722222;-0.40000
1725000;-0.40500
1727777;-0.39000
1730555;-0.38000
1733333;-0.37500
1736111;-0.38000
1738888;-0.39500
1741666;-0.40000
1744444;-0.40500
1747222;-0.39000
1750000;-0.39000
1752777;-0.39000
1755555;-0.39500
1758333;-0.38500
1761111;-0.39000
1763888;-0.39500
1766666;-0.37500
1769444;-0.38500
1772222;-0.39500
1775000;-0.41000
1777777;-0.40500
1780555;-0.40000
1783333;-0.38500
1786111;-0.39000
1788888;-0.40000
1791666;-0.41000
1794444;-0.40500
1797222;-0.39000
1799999;-0.37000
1802777;-0.37500
1805555;-0.38500
1808333;-0.39500
1811111;-0.40000
1813888;-0.39000
1816666;-0.38500
1819444;-0.38000
1822222;-0.40000
1824999;-0.40500
1827777;-0.40000
1830555;-0.40000
1833333;-0.39500
1836111;-0.39000
1838888;-0.40000
1841666;-0.41500
1844444;-0.41000
1847222;-0.40500
1849999;-0.40000
1852777;-0.41000
1855555;-0.40000
1858333;-0.41000
1861111;-0.40000
1863888;-0.38500
1866666;-0.39000
1869444;-0.39000
1872222;-0.41000
1874999;-0.41500
1877777;-0.41500
1880555;-0.40000
1883333;-0.37000
1886111;-0.37000
1888888;-0.36000
1891666;-0.38500
1894444;-0.38000
1897222;-0.34500
1899999;-0.33500
1902777;-0.34000
1905555;-0.34500
1908333;-0.34500
1911111;-0.34500
1913888;-0.33000
1916666;-0.31500
1919444;-0.31000
1922222;-0.32500
1924999;-0.34000
1927777;-0.33000
1930555;-0.30500
1933333;-0.30500
1936111;-0.29500
1938888;-0.32000
1941666;-0.33500
1944444;-0.32500
1947222;-0.32500
1949999;-0.31500
1952777;-0.31500
1955555;-0.32000
1958333;-0.33000
1961111;-0.33500
1963888;-0.33000
1966666;-0.31000
1969444;-0.31500
1972222;-0.32500
1974999;-0.34000
1977777;-0.34000
1980555;-0.34000
1983333;-0.34000
1986111;-0.33500
1988888;-0.35500
1991666;-0.36500
1994444;-0.35500
1997222;-0.34000
1999999;-0.34000
2002777;-0.34000
2005555;-0.34000
2008333;-0.35500
2011111;-0.35000
2013888;-0.34000
2016666;-0.34500
2019444;-0.36000
2022222;-0.35500
2024999;-0.36000
2027777;-0.36500
2030555;-0.35000
2033333;-0.34000
2036111;-0.34500
2038888;-0.36000
2041666;-0.36000
2044444;-0.36500
2047222;-0.35500
2049999;-0.36000
2052777;-0.37000
2055555;-0.36500
2058333;-0.38000
2061111;-0.38000
2063888;-0.37000
2066666;-0.36000
2069444;-0.36500
2072222;-0.38000
2074999;-0.38000
2077777;-0.38000
2080555;-0.38000
2083333;-0.36500
2086111;-0.37000
2088888;-0.39500
2091666;-0.40500
2094444;-0.39500
2097222;-0.39000
2099999;-0.38000
2102777;-0.37500
2105555;-0.38000
2108333;-0.38500
2111111;-0.38500
2113888;-0.38000
2116666;-0.37500
2119444;-0.37500
2122222;-0.39500
2124999;-0.39000
2127777;-0.38000
2130555;-0.38500
2133333;-0.37000
2136111;-0.38000
2138888;-0.38000
2141666;-0.39000
2144444;-0.39500
2147222;-0.39500
2149999;-0.38000
2152777;-0.38000
2155555;-0.39000
2158333;-0.39000
2161111;-0.38500
2163888;-0.37000
2166666;-0.37000
2169444;-0.39500
2172222;-0.38500
2174999;-0.38000
2177777;-0.36500
2180555;-0.35000
2183333;-0.33500
2186110;-0.32500
2188888;-0.32000
2191666;-0.33500
2194444;-0.34000
2197222;-0.33000
2199999;-0.30500
2202777;-0.31000
2205555;-0.31000
2208333;-0.31500
2211110;-0.31000
2213888;-0.30000
2216666;-0.29000
2219444;-0.27500
2222222;-0.27500
2224999;-0.28500
2227777;-0.28500
2230555;-0.28500
2233333;-0.28500
2236110;-0.29000
2238888;-0.31500
2241666;-0.31500
2244444;-0.30000
2247222;-0.29500
2249999;-0.29000
2252777;-0.31000
2255555;-0.31000
2258333;-0.29000
2261110;-0.27000
2263888;-0.25000
2266666;-0.26000
2269444;-0.29000
2272222;-0.32000
2274999;-0.36000
2277777;-0.38000
2280555;-0.39000
2283333;-0.38500
2286110;-0.38500
2288888;-0.39000
2291666;-0.39500
2294444;-0.41000
2297222;-0.41500
2299999;-0.40000
2302777;-0.40500
2305555;-0.41000
2308333;-0.41500
2311110;-0.42000
2313888;-0.41500
2316666;-0.39500
2319444;-0.40500
2322222;-0.41500
2324999;-0.41500
2327777;-0.42500
2330555;-0.42500
2333333;-0.41000
2336110;-0.41000
2338888;-0.41000
2341666;-0.41500
2344444;-0.41000
2347222;-0.40500
2349999;-0.40000
2352777;-0.41000
2355555;-0.41500
2358333;-0.42500
2361110;-0.43500
2363888;-0.44000
2366666;-0.46500
2369444;-0.50500
2372222;-0.52000
2374999;-0.54500
2377777;-0.59000
2380555;-0.62000
2383333;-0.61500
2386110;-0.56500
2388888;-0.47000
2391666;-0.36000
2394444;-0.22500
2397222;-0.03500
2399999;0.20500
2402777;0.45500
2405555;0.65500
2408333;0.77500
2411110;0.77500
2413888;0.64000
2416666;0.36000
2419444;0.02000
2422222;-0.27000
2424999;-0.44500
2427777;-0.54000
2430555;-0.56500
2433333;-0.54500
2436110;-0.51000
2438888;-0.46500
2441666;-0.45500
2444444;-0.45000
2447222;-0.44000
2449999;-0.43500
2452777;-0.43500
2455555;-0.44500
2458333;-0.45000
2461110;-0.47000
2463888;-0.45500
2466666;-0.45000
2469444;-0.45500
2472222;-0.45500
2474999;-0.46000
2477777;-0.46500
2480555;-0.45000
2483333;-0.43000
2486110;-0.43000
2488888;-0.45000
2491666;-0.46500
2494444;-0.47000
2497222;-0.46000
2499999;-0.45500
2502777;-0.45000
2505555;-0.46500
2508333;-0.46000
2511110;-0.45500
2513888;-0.45000
2516666;-0.42500
2519444;-0.44000
2522222;-0.44000
2524999;-0.45000
2527777;-0.45500
2530555;-0.45500
2533333;-0.44000
2536110;-0.45500
2538888;-0.46000
2541666;-0.47000
2544444;-0.46000
2547222;-0.45000
2549999;-0.44000
2552777;-0.43500
2555555;-0.44500
2558333;-0.46000
2561110;-0.45500
2563888;-0.44500
2566666;-0.44500
2569444;-0.44500
2572222;-0.45500
2574999;-0.45000
2577777;-0.47000
2580555;-0.45500
2583333;-0.43500
2586110;-0.44500
2588888;-0.45000
2591666;-0.45000
2594444;-0.45500
2597221;-0.44000
2599999;-0.44000
2602777;-0.44500
2605555;-0.44000
2608333;-0.44500
2611110;-0.46000
2613888;-0.44000
2616666;-0.43500
2619444;-0.43500
2622221;-0.45000
2624999;-0.45000
2627777;-0.45000
2630555;-0.43000
2633333;-0.42500
2636110;-0.43000
2638888;-0.43500
2641666;-0.45500
2644444;-0.45500
2647221;-0.44500
2649999;-0.44000
2652777;-0.44500
2655555;-0.46500
2658333;-0.45500
2661110;-0.46500
2663888;-0.46000
2666666;-0.45000
2669444;-0.45500
2672221;-0.47000
2674999;-0.48500
2677777;-0.47000
2680555;-0.47000
2683333;-0.46500
2686110;-0.47000
2688888;-0.48500
2691666;-0.48000
2694444;-0.48500
2697221;-0.48000
2699999;-0.47500
2702777;-0.49000
2705555;-0.51000
2708333;-0.50000
2711110;-0.51000
2713888;-0.50500
2716666;-0.49000
2719444;-0.49500
2722221;-0.48500
2724999;-0.47500
2727777;-0.46500
2730555;-0.44500
2733333;-0.42000
2736110;-0.41500
2738888;-0.41000
2741666;-0.40500
2744444;-0.39500
2747221;-0.37500
2749999;-0.35500
2752777;-0.35000
2755555;-0.35500
2758333;-0.35000
2761110;-0.35500
2763888;-0.34000
2766666;-0.34000
2769444;-0.34000
2772221;-0.34000
2774999;-0.34500
2777777;-0.35500
2780555;-0.34500
2783333;-0.33500
2786110;-0.34500
2788888;-0.35500
2791666;-0.35000
2794444;-0.36000
2797221;-0.34000
2799999;-0.34500
2802777;-0.35000
2805555;-0.34500
2808333;-0.35500
2811110;-0.34500
2813888;-0.34000
2816666;-0.33500
2819444;-0.33000
2822221;-0.33000
2824999;-0.35000
2827777;-0.34000
2830555;-0.33500
2833333;-0.32500
2836110;-0.33500
2838888;-0.33500
2841666;-0.35000
2844444;-0.35500
2847221;-0.34500
2849999;-0.34000
2852777;-0.34000
2855555;-0.34500
2858333;-0.35500
2861110;-0.36500
2863888;-0.35000
2866666;-0.35000
2869444;-0.34500
2872221;-0.34500
2874999;-0.36500
2877777;-0.37000
2880555;-0.35000
2883333;-0.33500
2886110;-0.34500
2888888;-0.35500
2891666;-0.37500
2894444;-0.36000
2897221;-0.36000
2899999;-0.35000
2902777;-0.36500
2905555;-0.37500
2908333;-0.37000
2911110;-0.38000
2913888;-0.38000
2916666;-0.35000
2919444;-0.36000
2922221;-0.36500
2924999;-0.37000
2927777;-0.38500
2930555;-0.37000
2933333;-0.37500
2936110;-0.37500
2938888;-0.38000
2941666;-0.38000
2944444;-0.39000
2947221;-0.38000
2949999;-0.36500
2952777;-0.37000
2955555;-0.36500
2958333;-0.37500
2961110;-0.36500
2963888;-0.36000
2966666;-0.36000
2969444;-0.36000
2972221;-0.37000
2974999;-0.37500
2977777;-0.36500
2980555;-0.35500
2983332;-0.36500
2986110;-0.37000
2988888;-0.37000
2991666;-0.38000
2994444;-0.38500
2997221;-0.36500
2999999;-0.35500
3002777;-0.35000
3005555;-0.36000
3008332;-0.36500
3011110;-0.37000
3013888;-0.35500
3016666;-0.35000
3019444;-0.35000
3022221;-0.35500
3024999;-0.36000
3027777;-0.36000
3030555;-0.34000
3033332;-0.33500
3036110;-0.32500
3038888;-0.32500
3041666;-0.31000
3044444;-0.31500
3047221;-0.30000
3049999;-0.28500
3052777;-0.28000
3055555;-0.28500
3058332;-0.28000
3061110;-0.26500
3063888;-0.25500
3066666;-0.24500
3069444;-0.24000
3072221;-0.25500
3074999;-0.26000
3077777;-0.27000
3080555;-0.25500
3083332;-0.25500
3086110;-0.26000
3088888;-0.26500
3091666;-0.29000
3094444;-0.28500
3097221;-0.28000
3099999;-0.27000
3102777;-0.26500
3105555;-0.24000
3108332;-0.24500
3111110;-0.25000
3113888;-0.27500
3116666;-0.28500
3119444;-0.30000
3122221;-0.32000
3124999;-0.34000
3127777;-0.35000
3130555;-0.35000
3133332;-0.35000
3136110;-0.36000
3138888;-0.36500
3141666;-0.37500
3144444;-0.38000
3147221;-0.36500
3149999;-0.35000
3152777;-0.35500
3155555;-0.36500
3158332;-0.38000
3161110;-0.37000
3163888;-0.37500
3166666;-0.35500
3169444;-0.36000
3172221;-0.38500
3174999;-0.38000
3177777;-0.37500
3180555;-0.37500
3183332;-0.36500
3186110;-0.36500
3188888;-0.38500
3191666;-0.38000
3194444;-0.38500
3197221;-0.36500
3199999;-0.37500
3202777;-0.39500
3205555;-0.42500
3208332;-0.45500
3211110;-0.50000
3213888;-0.50000
3216666;-0.49500
3219444;-0.54500
3222221;-0.59000
3224999;-0.62000
3227777;-0.58500
3230555;-0.50500
3233332;-0.40000
3236110;-0.28000
3238888;-0.15500
3241666;0.01500
3244444;0.27000
3247221;0.54000
3249999;0.78000
3252777;0.89000
3255555;0.86000
3258332;0.65000
3261110;0.27500
3263888;-0.10500
3266666;-0.34000
3269444;-0.46000
3272221;-0.48500
3274999;-0.45500
3277777;-0.42000
3280555;-0.39500
3283332;-0.40000
3286110;-0.39500
3288888;-0.40000
3291666;-0.40500
3294444;-0.40500
3297221;-0.40000
3299999;-0.39000
3302777;-0.40500
3305555;-0.40500
3308332;-0.41000
3311110;-0.41000
3313888;-0.39500
3316666;-0.38500
3319444;-0.39000
3322221;-0.39000
3324999;-0.40500
3327777;-0.39500
3330555;-0.38000
3333332;-0.38500
3336110;-0.38500
3338888;-0.38000
3341666;-0.41000
3344444;-0.41000
3347221;-0.39500
3349999;-0.38500
3352777;-0.39000
3355555;-0.39000
3358332;-0.40500
3361110;-0.40000
3363888;-0.39500
3366666;-0.39000
3369444;-0.39000
3372221;-0.39000
3374999;-0.40000
3377777;-0.39500
3380555;-0.39000
3383332;-0.38000
3386110;-0.38500
3388888;-0.38500
3391666;-0.39500
3394443;-0.39500
3397221;-0.38500
3399999;-0.38500
3402777;-0.38000
3405555;-0.39500
3408332;-0.40000
3411110;-0.39000
3413888;-0.39500
3416666;-0.38000
3419443;-0.38500
3422221;-0.39000
3424999;-0.39000
3427777;-0.39500
3430555;-0.41000
3433332;-0.37500
3436110;-0.39000
3438888;-0.39500
3441666;-0.40000
3444443;-0.40000
3447221;-0.39000
3449999;-0.38000
3452777;-0.38500
3455555;-0.39500
3458332;-0.39500
3461110;-0.40000
3463888;-0.38000
3466666;-0.37000
3469443;-0.37000
3472221;-0.37500
3474999;-0.38500
3477777;-0.38500
3480555;-0.38000
3483332;-0.36500
3486110;-0.37000
3488888;-0.38000
3491666;-0.39000
3494443;-0.39500
3497221;-0.38500
3499999;-0.38000
3502777;-0.38500
3505555;-0.39000
3508332;-0.40500
3511110;-0.41500
3513888;-0.41500
3516666;-0.39000
3519443;-0.40000
3522221;-0.41000
3524999;-0.41500
3527777;-0.42500
3530555;-0.41500
3533332;-0.40000
3536110;-0.40000
3538888;-0.40500
3541666;-0.41000
3544443;-0.41000
3547221;-0.40000
3549999;-0.38500
3552777;-0.37500
3555555;-0.39000
3558332;-0.37500
3561110;-0.38000
3563888;-0.36000
3566666;-0.35000
3569443;-0.34000
3572221;-0.34000
3574999;-0.34000
3577777;-0.33500
3580555;-0.31500
3583332;-0.29000
3586110;-0.29000
3588888;-0.29000
3591666;-0.29000
3594443;-0.28000
3597221;-0.27500
3599999;-0.26500
3602777;-0.26000
3605555;-0.27500
3608332;-0.27500
3611110;-0.28000
3613888;-0.26500
3616666;-0.26000
3619443;-0.26000
3622221;-0.27000
3624999;-0.27500
3627777;-0.28000
3630555;-0.27000
3633332;-0.26500
3636110;-0.25500
3638888;-0.26500
3641666;-0.27500
3644443;-0.27000
3647221;-0.26000
3649999;-0.25000
3652777;-0.25500
3655555;-0.26500
3658332;-0.25000
3661110;-0.26500
3663888;-0.26000
3666666;-0.25500
3669443;-0.26500
3672221;-0.26500
3674999;-0.27000
3677777;-0.28000
3680555;-0.27500
3683332;-0.26000
3686110;-0.27000
3688888;-0.27000
3691666;-0.29000
3694443;-0.30000
3697221;-0.28500
3699999;-0.28000
3702777;-0.28000
3705555;-0.30000
3708332;-0.30000
3711110;-0.30500
3713888;-0.30500
3716666;-0.29000
3719443;-0.29000
3722221;-0.29500
3724999;-0.31500
3727777;-0.31500
3730555;-0.30500
3733332;-0.29000
3736110;-0.30000
3738888;-0.31000
3741666;-0.32000
3744443;-0.32000
3747221;-0.30500
3749999;-0.30500
3752777;-0.31000
3755555;-0.31500
3758332;-0.32000
3761110;-0.32000
3763888;-0.31000
3766666;-0.30000
3769443;-0.31000
3772221;-0.31500
3774999;-0.33000
3777777;-0.34500
3780554;-0.32500
3783332;-0.31000
3786110;-0.30500
3788888;-0.30500
3791666;-0.32500
3794443;-0.32500
3797221;-0.32000
3799999;-0.30500
3802777;-0.31000
3805554;-0.32000
3808332;-0.33000
3811110;-0.33000
3813888;-0.32000
3816666;-0.31500
3819443;-0.31000
3822221;-0.31500
3824999;-0.32500
3827777;-0.33000
3830554;-0.31500
3833332;-0.30500
3836110;-0.30500
3838888;-0.30000
3841666;-0.31500
3844443;-0.32000
3847221;-0.30500
3849999;-0.30000
3852777;-0.30000
3855554;-0.31500
3858332;-0.31500
3861110;-0.31500
3863888;-0.30500
3866666;-0.30500
3869443;-0.30000
3872221;-0.29500
3874999;-0.28500
3877777;-0.26000
3880554;-0.25000
3883332;-0.24000
3886110;-0.23000
3888888;-0.24000
3891666;-0.23000
3894443;-0.23500
3897221;-0.21500
3899999;-0.20000
3902777;-0.19500
3905554;-0.19500
3908332;-0.19500
3911110;-0.19500
3913888;-0.19500
3916666;-0.19500
3919443;-0.19500
3922221;-0.21500
3924999;-0.23500
3927777;-0.22500
3930554;-0.23000
3933332;-0.21500
3936110;-0.22500
3938888;-0.23500
3941666;-0.25000
3944443;-0.22000
3947221;-0.18500
3949999;-0.19000
3952777;-0.23500
3955554;-0.26000
3958332;-0.27000
3961110;-0.29500
3963888;-0.29500
3966666;-0.30500
3969443;-0.28500
3972221;-0.31500
3974999;-0.33000
3977777;-0.33500
3980554;-0.32000
3983332;-0.31500
3986110;-0.31500
3988888;-0.31500
3991666;-0.33000
3994443;-0.34000
3997221;-0.33000
3999999;-0.34000
4002777;-0.33500
4005554;-0.34500
4008332;-0.35000
4011110;-0.35000
4013888;-0.35000
4016666;-0.33500
4019443;-0.35000
4022221;-0.35000
4024999;-0.36500
4027777;-0.36000
4030554;-0.35000
4033332;-0.33500
4036110;-0.34500
4038888;-0.36000
4041666;-0.38500
4044443;-0.42000
4047221;-0.45000
4049999;-0.46500
4052777;-0.49000
4055554;-0.55500
4058332;-0.56000
4061110;-0.53500
4063888;-0.42500
4066666;-0.30000
4069443;-0.20000
4072221;-0.11500
4074999;-0.00500
4077777;0.15000
4080554;0.35500
4083332;0.59500
4086110;0.76000
4088888;0.89000
4091666;0.96000
4094443;0.94500
4097221;0.76500
4099999;0.41000
4102777;-0.01000
4105554;-0.32500
4108332;-0.47500
4111110;-0.47000
4113888;-0.43500
4116666;-0.38000
4119443;-0.36500
4122221;-0.37000
4124999;-0.38500
4127777;-0.38000
4130554;-0.36500
4133332;-0.35000
4136110;-0.36500
4138888;-0.37500
4141666;-0.39000
4144443;-0.38500
4147221;-0.38500
4149999;-0.37500
4152777;-0.37500
4155554;-0.38500
4158332;-0.38500
4161110;-0.40000
4163888;-0.39000
4166666;-0.37500
4169443;-0.39500
4172221;-0.39500
4174999;-0.39000
4177777;-0.40000
4180554;-0.39000
4183332;-0.38500
4186110;-0.38000
4188888;-0.38500
4191665;-0.39000
4194443;-0.39000
4197221;-0.38000
4199999;-0.37000
4202777;-0.37000
4205554;-0.38000
4208332;-0.38500
4211110;-0.39500
4213888;-0.37500
4216665;-0.36500
4219443;-0.37000
4222221;-0.38500
4224999;-0.38500
4227777;-0.39000
4230554;-0.37500
4233332;-0.37000
4236110;-0.37000
4238888;-0.37000
4241665;-0.37500
4244443;-0.38000
4247221;-0.37000
4249999;-0.36000
4252777;-0.36500
4255554;-0.37500
4258332;-0.38000
4261110;-0.37500
4263888;-0.37000
4266665;-0.35500
4269443;-0.35500
4272221;-0.37000
4274999;-0.37000
4277777;-0.38500
4280554;-0.37500
4283332;-0.36500
4286110;-0.35500
4288888;-0.36000
4291665;-0.38000
4294443;-0.38000
4297221;-0.37500
4299999;-0.37500
4302777;-0.36000
4305554;-0.37000
4308332;-0.38500
4311110;-0.39000
4313888;-0.37500
4316665;-0.36500
4319443;-0.36500
4322221;-0.37500
4324999;-0.37500
4327777;-0.38000
4330554;-0.38000
4333332;-0.37500
4336110;-0.36500
4338888;-0.38500
4341665;-0.38500
4344443;-0.38500
4347221;-0.39000
4349999;-0.37000
4352777;-0.37000
4355554;-0.37000
4358332;-0.38500
4361110;-0.38000
4363888;-0.38000
4366665;-0.37000
4369443;-0.36000
4372221;-0.36000
4374999;-0.36000
4377777;-0.36000
4380554;-0.34500
4383332;-0.33500
4386110;-0.32500
4388888;-0.32000
4391665;-0.33000
4394443;-0.31000
4397221;-0.30000
4399999;-0.28000
4402777;-0.28000
4405554;-0.29500
4408332;-0.29000
4411110;-0.30500
4413888;-0.28500
4416665;-0.27500
4419443;-0.26000
4422221;-0.27000
4424999;-0.28000
4427777;-0.27500
4430554;-0.27500
4433332;-0.27500
4436110;-0.26500
4438888;-0.27500
4441665;-0.27000
4444443;-0.27500
4447221;-0.27000
4449999;-0.26500
4452777;-0.26500
4455554;-0.26500
4458332;-0.28000
4461110;-0.27500
4463888;-0.28000
4466665;-0.27000
4469443;-0.28000
4472221;-0.28000
4474999;-0.29000
4477777;-0.28500
4480554;-0.29000
4483332;-0.27000
4486110;-0.28000
4488888;-0.28500
4491665;-0.29000
4494443;-0.29000
4497221;-0.28500
4499999;-0.27000
4502777;-0.26500
4505554;-0.28500
4508332;-0.29000
4511110;-0.29500
4513888;-0.29000
4516665;-0.28000
4519443;-0.28000
4522221;-0.29000
4524999;-0.30000
4527777;-0.31000
4530554;-0.30500
4533332;-0.30500
4536110;-0.30500
4538888;-0.32000
4541665;-0.30500
4544443;-0.31500
4547221;-0.30500
4549999;-0.29000
4552777;-0.29000
4555554;-0.31500
4558332;-0.32000
4561110;-0.31500
4563888;-0.30500
4566665;-0.29500
4569443;-0.30000
4572221;-0.30500
4574999;-0.31000
4577776;-0.31000
4580554;-0.30500
4583332;-0.30500
4586110;-0.31000
4588888;-0.31000
4591665;-0.32000
4594443;-0.32000
4597221;-0.31500
4599999;-0.31500
4602776;-0.31000
4605554;-0.32500
4608332;-0.33000
4611110;-0.33000
4613888;-0.31500
4616665;-0.30500
4619443;-0.30500
4622221;-0.31000
4624999;-0.31500
4627776;-0.32000
4630554;-0.32000
4633332;-0.30000
4636110;-0.30000
4638888;-0.30500
4641665;-0.31000
4644443;-0.31000
4647221;-0.30500
4649999;-0.29500
4652776;-0.30500
4655554;-0.30500
4658332;-0.31500
4661110;-0.31500
4663888;-0.30500
4666665;-0.29500
4669443;-0.29000
4672221;-0.30500
4674999;-0.31500
4677776;-0.31000
4680554;-0.28500
4683332;-0.25500
4686110;-0.25000
4688888;-0.23500
4691665;-0.25000
4694443;-0.25000
4697221;-0.24000
4699999;-0.22000
4702776;-0.20000
4705554;-0.20000
4708332;-0.20000
4711110;-0.21000
4713888;-0.20000
4716665;-0.19000
4719443;-0.19000
4722221;-0.19000
4724999;-0.21000
4727776;-0.21000
4730554;-0.21000
4733332;-0.20000
4736110;-0.20000
4738888;-0.22000
4741665;-0.23500
4744443;-0.22500
4747221;-0.19500
4749999;-0.18000
4752776;-0.19000
4755554;-0.21500
4758332;-0.22500
4761110;-0.24500
4763888;-0.23500
4766665;-0.24500
4769443;-0.25500
4772221;-0.27000
4774999;-0.30000
4777776;-0.30500
4780554;-0.30500
4783332;-0.29500
4786110;-0.31500
4788888;-0.32500
4791665;-0.32500
4794443;-0.34000
4797221;-0.32500
4799999;-0.33000
4802776;-0.32500
4805554;-0.33000
4808332;-0.34500
4811110;-0.33500
4813888;-0.34000
4816665;-0.33000
4819443;-0.33000
4822221;-0.33500
4824999;-0.33500
4827776;-0.34500
4830554;-0.34000
4833332;-0.32500
4836110;-0.33000
4838888;-0.33500
4841665;-0.36000
4844443;-0.38500
4847221;-0.42000
4849999;-0.43500
4852776;-0.45500
4855554;-0.50500
4858332;-0.56000
4861110;-0.57000
4863888;-0.49500
4866665;-0.37000
4869443;-0.23500
4872221;-0.05500
4874999;0.16000
4877776;0.46000
4880554;0.72000
4883332;0.85500
4886110;0.81000
4888888;0.56000
4891665;0.15000
4894443;-0.21500
4897221;-0.43000
4899999;-0.49500
4902776;-0.46000
4905554;-0.42000
4908332;-0.40000
4911110;-0.39500
4913888;-0.39500
4916665;-0.38000
4919443;-0.36500
4922221;-0.37000
4924999;-0.37500
4927776;-0.38500
4930554;-0.37500
4933332;-0.36000
4936110;-0.37000
4938888;-0.38500
4941665;-0.38500
4944443;-0.39000
4947221;-0.38500
4949999;-0.37000
4952776;-0.37000
4955554;-0.38000
4958332;-0.39500
4961110;-0.40500
4963887;-0.39500
4966665;-0.38000
4969443;-0.38500
4972221;-0.38500
4974999;-0.39000
4977776;-0.38500
4980554;-0.38500
4983332;-0.38500
4986110;-0.38500
4988887;-0.39000
4991665;-0.38500
4994443;-0.38000
4997221;-0.37000
4999999;-0.37000
5002776;-0.37500
5005554;-0.38500
5008332;-0.39500
5011110;-0.39500
5013887;-0.38500
5016665;-0.38500
5019443;-0.38500
5022221;-0.38500
5024999;-0.41000
5027776;-0.41000
5030554;-0.39000
5033332;-0.38000
5036110;-0.39000
5038887;-0.40500
5041665;-0.39000
5044443;-0.39000
5047221;-0.37500
5049999;-0.38500
5052776;-0.38000
5055554;-0.40000
5058332;-0.39500
5061110;-0.39000
5063887;-0.38000
5066665;-0.36500
5069443;-0.37000
5072221;-0.38000
5074999;-0.37500
5077776;-0.39000
5080554;-0.37500
5083332;-0.36500
5086110;-0.36500
5088887;-0.37000
5091665;-0.38000
5094443;-0.39500
5097221;-0.38500
5099999;-0.38000
5102776;-0.37000
5105554;-0.38000
5108332;-0.41000
5111110;-0.40500
5113887;-0.40000
5116665;-0.38500
5119443;-0.38500
5122221;-0.39500
5124999;-0.40000
5127776;-0.41000
5130554;-0.40500
5133332;-0.40500
5136110;-0.40000
5138887;-0.41500
5141665;-0.42500
5144443;-0.43000
5147221;-0.41500
5149999;-0.40000
5152776;-0.40500
5155554;-0.41500
5158332;-0.42500
5161110;-0.44000
5163887;-0.42500
5166665;-0.41500
5169443;-0.40000
5172221;-0.39000
5174999;-0.39000
5177776;-0.39000
5180554;-0.37500
5183332;-0.35500
5186110;-0.35000
5188887;-0.34000
5191665;-0.34500
5194443;-0.33000
5197221;-0.31000
5199999;-0.30000
5202776;-0.30000
5205554;-0.30500
5208332;-0.31500
5211110;-0.31000
5213887;-0.28500
5216665;-0.27000
5219443;-0.28000
5222221;-0.29000
5224999;-0.30500
5227776;-0.30500
5230554;-0.28500
5233332;-0.28000
5236110;-0.28000
5238887;-0.29500
5241665;-0.29500
5244443;-0.30000
5247221;-0.30000
5249999;-0.30000
5252776;-0.31500
5255554;-0.32000
5258332;-0.31000
5261110;-0.30000
5263887;-0.29500
5266665;-0.28500
5269443;-0.28000
5272221;-0.28500
5274999;-0.30500
5277776;-0.31000
5280554;-0.29000
5283332;-0.29500
5286110;-0.29500
5288887;-0.29500
5291665;-0.30500
5294443;-0.30500
5297221;-0.30000
5299999;-0.30000
5302776;-0.30000
5305554;-0.30500
5308332;-0.32500
5311110;-0.33000
5313887;-0.32000
5316665;-0.31500
5319443;-0.32500
5322221;-0.32500
5324999;-0.33000
5327776;-0.33500
5330554;-0.32500
5333332;-0.31000
5336110;-0.31500
5338887;-0.32500
5341665;-0.34500
5344443;-0.34500
5347221;-0.32000
5349999;-0.31000
5352776;-0.32000
5355554;-0.32500
5358332;-0.33500
5361110;-0.34500
5363887;-0.34000
5366665;-0.35000
5369443;-0.33500
5372221;-0.33500
5374998;-0.34500
5377776;-0.34500
5380554;-0.33500
5383332;-0.32000
5386110;-0.32500
5388887;-0.33000
5391665;-0.34000
5394443;-0.36000
5397221;-0.35000
5399998;-0.34000
5402776;-0.33000
5405554;-0.32500
5408332;-0.33000
5411110;-0.34000
5413887;-0.33500
5416665;-0.32500
5419443;-0.31500
5422221;-0.33500
5424998;-0.33500
5427776;-0.34000
5430554;-0.33000
5433332;-0.31500
5436110;-0.31500
5438887;-0.34000
5441665;-0.34500
5444443;-0.34500
5447221;-0.33500
5449998;-0.33000
5452776;-0.32500
5455554;-0.32000
5458332;-0.32500
5461110;-0.33500
5463887;-0.32000
5466665;-0.32500
5469443;-0.28500
5472221;-0.28500
5474998;-0.29500
5477776;-0.29500
5480554;-0.27500
5483332;-0.26000
5486110;-0.25000
5488887;-0.25000
5491665;-0.25500
5494443;-0.25000
5497221;-0.24000
5499998;-0.21000
5502776;-0.21000
5505554;-0.21500
5508332;-0.23000
5511110;-0.24000
5513887;-0.24000
5516665;-0.24000
5519443;-0.23500
5522221;-0.24500
5524998;-0.26500
5527776;-0.27000
5530554;-0.26500
5533332;-0.24000
5536110;-0.21000
5538887;-0.22000
5541665;-0.25000
5544443;-0.28000
5547221;-0.28500
5549998;-0.29500
5552776;-0.31500
5555554;-0.34500
5558332;-0.35000
5561110;-0.35000
5563887;-0.34000
5566665;-0.33500
5569443;-0.33000
5572221;-0.33000
5574998;-0.34500
5577776;-0.35000
5580554;-0.34500
5583332;-0.34000
5586110;-0.33500
5588887;-0.34500
5591665;-0.35000
5594443;-0.36000
5597221;-0.34500
5599998;-0.34500
5602776;-0.34000
5605554;-0.35000
5608332;-0.36000
5611110;-0.36500
5613887;-0.35000
5616665;-0.34000
5619443;-0.33000
5622221;-0.35000
5624998;-0.36000
5627776;-0.39000
5630554;-0.41500
5633332;-0.44500
5636110;-0.46000
5638887;-0.49000
5641665;-0.53000
5644443;-0.55500
5647221;-0.49500
5649998;-0.38000
5652776;-0.24500
5655554;-0.08500
5658332;0.13000
5661110;0.41000
5663887;0.68500
5666665;0.88000
5669443;0.91000
5672221;0.75000
5674998;0.40000
5677776;-0.02500
5680554;-0.32500
5683332;-0.45000
5686110;-0.46000
5688887;-0.43000
5691665;-0.39500
5694443;-0.39000
5697221;-0.38000
5699998;-0.37000
5702776;-0.38000
5705554;-0.37000
5708332;-0.38000
5711110;-0.38000
5713887;-0.37500
5716665;-0.36000
5719443;-0.36500
5722221;-0.37500
5724998;-0.37000
5727776;-0.38000
5730554;-0.37500
5733332;-0.36500
5736110;-0.35500
5738887;-0.37000
5741665;-0.37500
5744443;-0.37500
5747221;-0.37000
5749998;-0.36000
5752776;-0.36000
5755554;-0.36000
5758332;-0.37000
5761109;-0.38000
5763887;-0.37000
5766665;-0.36000
5769443;-0.36500
5772221;-0.37500
5774998;-0.37000
5777776;-0.38000
5780554;-0.36000
5783332;-0.36500
5786109;-0.35500
5788887;-0.36000
5791665;-0.37000
5794443;-0.37500
5797221;-0.36000
5799998;-0.36000
5802776;-0.34500
5805554;-0.36000
5808332;-0.36500
5811109;-0.37000
5813887;-0.35000
5816665;-0.34500
5819443;-0.35500
5822221;-0.35500
5824998;-0.37000
5827776;-0.38500
5830554;-0.36000
5833332;-0.36000
5836109;-0.35500
5838887;-0.36000
5841665;-0.37000
5844443;-0.37000
5847221;-0.34500
5849998;-0.34500
5852776;-0.34500
5855554;-0.35000
5858332;-0.36000
5861109;-0.34500
5863887;-0.34500
5866665;-0.34500
5869443;-0.34500
5872221;-0.35000
5874998;-0.36000
5877776;-0.36500
5880554;-0.37000
5883332;-0.36000
5886109;-0.36000
5888887;-0.36000
5891665;-0.38000
5894443;-0.38500
5897221;-0.37500
5899998;-0.37500
5902776;-0.37500
5905554;-0.38000
5908332;-0.38500
5911109;-0.39000
5913887;-0.38000
5916665;-0.37500
5919443;-0.37000
5922221;-0.38500
5924998;-0.40000
5927776;-0.40500
5930554;-0.40500
5933332;-0.38500
5936109;-0.39000
5938887;-0.40000
5941665;-0.40000
5944443;-0.39000
5947221;-0.37500
5949998;-0.35500
5952776;-0.34000
5955554;-0.33500
5958332;-0.34000
5961109;-0.32500
5963887;-0.30000
5966665;-0.29000
5969443;-0.28500
5972221;-0.28000
5974998;-0.27500
5977776;-0.27000
5980554;-0.25500
5983332;-0.24000
5986109;-0.23500
5988887;-0.24000
5991665;-0.24500
5994443;-0.25000
5997221;-0.23000
5999998;-0.23000
6002776;-0.24000
6005554;-0.22500
6008332;-0.24000
6011109;-0.24000
6013887;-0.23500
6016665;-0.23000
6019443;-0.22500
6022221;-0.24000
6024998;-0.23500
6027776;-0.24500
6030554;-0.24500
6033332;-0.23000
6036109;-0.23500
6038887;-0.24500
6041665;-0.25000
6044443;-0.25500
6047221;-0.24000
6049998;-0.23000
6052776;-0.23000
6055554;-0.24000
6058332;-0.24000
6061109;-0.25500
6063887;-0.24500
6066665;-0.23000
6069443;-0.23000
6072221;-0.24500
6074998;-0.25000
6077776;-0.25000
6080554;-0.26000
6083332;-0.24000
6086109;-0.23500
6088887;-0.25000
6091665;-0.25500
6094443;-0.26000
6097221;-0.25500
6099998;-0.24500
6102776;-0.25000
6105554;-0.25500
6108332;-0.27000
6111109;-0.28000
6113887;-0.27500
6116665;-0.26000
6119443;-0.26000
6122221;-0.25500
6124998;-0.27000
6127776;-0.27000
6130554;-0.26500
6133332;-0.24000
6136109;-0.25000
6138887;-0.25500
6141665;-0.26000
6144443;-0.26000
6147221;-0.26000
6149998;-0.25500
6152776;-0.24500
6155554;-0.25500
6158332;-0.26500
6161109;-0.26500
6163887;-0.25000
6166665;-0.24500
6169443;-0.24500
6172220;-0.25500
6174998;-0.27500
6177776;-0.27000
6180554;-0.26500
6183332;-0.26500
6186109;-0.25500
6188887;-0.26000
6191665;-0.27000
6194443;-0.26500
6197220;-0.26500
6199998;-0.24000
6202776;-0.24500
6205554;-0.24500
6208332;-0.25500
6211109;-0.26500
6213887;-0.25500
6216665;-0.24500
6219443;-0.23000
6222220;-0.25000
6224998;-0.25500
6227776;-0.26000
6230554;-0.24500
6233332;-0.24000
6236109;-0.23000
6238887;-0.23500
6241665;-0.24500
6244443;-0.26000
6247220;-0.25500
6249998;-0.24500
6252776;-0.23000
6255554;-0.23000
6258332;-0.22500
6261109;-0.21500
6263887;-0.20000
6266665;-0.19000
6269443;-0.18000
6272220;-0.18000
6274998;-0.19000
6277776;-0.17000
6280554;-0.15000
6283332;-0.14500
6286109;-0.13500
6288887;-0.14500
6291665;-0.15000
6294443;-0.15000
6297220;-0.15000
6299998;-0.15500
6302776;-0.15000
6305554;-0.14500
6308332;-0.15500
6311109;-0.16000
6313887;-0.16500
6316665;-0.16000
6319443;-0.15000
6322220;-0.14000
6324998;-0.12000
6327776;-0.14500
6330554;-0.16000
6333332;-0.18500
6336109;-0.20000
6338887;-0.22500
6341665;-0.25500
6344443;-0.27000
6347220;-0.26000
6349998;-0.24500
6352776;-0.25500
6355554;-0.25500
6358332;-0.26500
6361109;-0.26500
6363887;-0.26000
6366665;-0.26000
6369443;-0.26000
6372220;-0.27500
6374998;-0.28000
6377776;-0.28000
6380554;-0.26500
6383332;-0.26000
6386109;-0.25500
6388887;-0.26000
6391665;-0.27500
6394443;-0.29000
6397220;-0.28000
6399998;-0.27500
6402776;-0.28500
6405554;-0.28000
6408332;-0.29500
6411109;-0.32000
6413887;-0.34000
6416665;-0.37000
6419443;-0.39500
6422220;-0.40000
6424998;-0.43000
6427776;-0.46500
6430554;-0.50000
6433332;-0.49500
6436109;-0.42500
6438887;-0.30500
6441665;-0.16000
6444443;-0.00500
6447220;0.22000
6449998;0.48500
6452776;0.75000
6455554;0.94500
6458332;1.01500
6461109;0.95500
6463887;0.69500
6466665;0.30500
6469443;-0.09000
6472220;-0.34000
6474998;-0.42500
6477776;-0.40000
6480554;-0.35000
6483332;-0.30500
6486109;-0.29500
6488887;-0.30500
6491665;-0.31500
6494443;-0.32500
6497220;-0.30500
6499998;-0.30000
6502776;-0.31000
6505554;-0.30500
6508332;-0.32000
6511109;-0.32500
6513887;-0.31500
6516665;-0.30000
6519443;-0.31000
6522220;-0.31000
6524998;-0.32000
6527776;-0.32000
6530554;-0.31000
6533332;-0.31000
6536109;-0.31500
6538887;-0.32500
6541665;-0.32500
6544443;-0.32500
6547220;-0.31000
6549998;-0.30500
6552776;-0.30000
6555554;-0.31500
6558331;-0.32000
6561109;-0.32000
6563887;-0.30500
6566665;-0.29500
6569443;-0.30000
6572220;-0.30000
6574998;-0.31500
6577776;-0.30500
6580554;-0.28500
6583331;-0.29000
6586109;-0.28500
6588887;-0.28500
6591665;-0.30000
6594443;-0.30000
6597220;-0.30000
6599998;-0.29000
6602776;-0.30500
6605554;-0.30500
6608331;-0.31000
6611109;-0.32500
6613887;-0.31000
6616665;-0.31500
6619443;-0.30500
6622220;-0.31000
6624998;-0.32000
6627776;-0.33000
6630554;-0.33000
6633331;-0.31500
6636109;-0.31000
6638887;-0.30500
6641665;-0.31000
6644443;-0.32500
6647220;-0.29500
6649998;-0.30000
6652776;-0.29500
6655554;-0.29500
6658331;-0.30500
6661109;-0.31500
6663887;-0.30500
6666665;-0.30000
6669443;-0.30500
6672220;-0.29000
6674998;-0.31000
6677776;-0.31000
6680554;-0.30000
6683331;-0.29000
6686109;-0.30000
6688887;-0.31000
6691665;-0.31000
6694443;-0.32500
6697220;-0.31000
6699998;-0.30500
6702776;-0.30500
6705554;-0.32000
6708331;-0.31500
6711109;-0.32500
6713887;-0.30500
6716665;-0.30000
6719443;-0.31000
6722220;-0.30500
6724998;-0.32500
6727776;-0.32000
6730554;-0.30500
6733331;-0.30000
6736109;-0.29500
6738887;-0.30000
6741665;-0.32000
6744443;-0.31500
6747220;-0.29000
6749998;-0.27000
6752776;-0.26500
6755554;-0.27000
6758331;-0.26500
6761109;-0.26500
6763887;-0.25000
6766665;-0.24000
6769443;-0.22000
6772220;-0.21000
6774998;-0.22000
6777776;-0.22500
6780554;-0.20500
6783331;-0.19500
6786109;-0.19000
6788887;-0.19500
6791665;-0.20500
6794443;-0.21000
6797220;-0.19500
6799998;-0.18000
6802776;-0.16500
6805554;-0.19500
6808331;-0.20000
6811109;-0.19500
6813887;-0.18000
6816665;-0.18500
6819443;-0.18500
6822220;-0.19000
6824998;-0.19500
6827776;-0.21000
6830554;-0.19500
6833331;-0.19500
6836109;-0.19500
6838887;-0.20000
6841665;-0.20000
6844443;-0.21000
6847220;-0.20000
6849998;-0.19500
6852776;-0.20000
6855554;-0.21000
6858331;-0.20500
6861109;-0.21500
6863887;-0.21500
6866665;-0.20000
6869443;-0.20500
6872220;-0.21000
6874998;-0.21500
6877776;-0.21500
6880554;-0.22000
6883331;-0.21000
6886109;-0.20500
6888887;-0.21500
6891665;-0.22000
6894443;-0.22500
6897220;-0.23000
6899998;-0.22000
6902776;-0.22000
6905554;-0.22500
6908331;-0.22500
6911109;-0.22500
6913887;-0.23000
6916665;-0.22000
6919443;-0.21000
6922220;-0.23000
6924998;-0.23500
6927776;-0.24500
6930554;-0.24000
6933331;-0.23000
6936109;-0.23000
6938887;-0.23000
6941665;-0.23500
6944442;-0.24500
6947220;-0.23500
6949998;-0.22500
6952776;-0.22500
6955554;-0.22000
6958331;-0.22000
6961109;-0.24500
6963887;-0.23500
6966665;-0.22500
6969442;-0.23000
6972220;-0.24000
6974998;-0.23500
6977776;-0.24000
6980554;-0.24000
6983331;-0.23000
6986109;-0.22500
6988887;-0.23500
6991665;-0.23500
6994442;-0.24500
6997220;-0.23000
6999998;-0.23000
7002776;-0.23000
7005554;-0.23000
7008331;-0.24000
7011109;-0.24500
7013887;-0.23500
7016665;-0.22500
7019442;-0.22500
7022220;-0.21500
7024998;-0.22500
7027776;-0.24000
7030554;-0.23500
7033331;-0.21500
7036109;-0.21000
7038887;-0.22500
7041665;-0.23000
7044442;-0.23000
7047220;-0.22500
7049998;-0.22000
7052776;-0.22000
7055554;-0.23000
7058331;-0.23000
7061109;-0.24000
7063887;-0.22500
7066665;-0.20500
7069442;-0.19500
7072220;-0.19500
7074998;-0.18000
7077776;-0.17000
7080554;-0.18000
7083331;-0.16500
7086109;-0.15500
7088887;-0.15500
7091665;-0.15000
7094442;-0.13500
7097220;-0.13500
7099998;-0.12000
7102776;-0.09500
7105554;-0.10000
7108331;-0.10500
7111109;-0.12500
7113887;-0.13000
7116665;-0.11000
7119442;-0.12500
7122220;-0.13000
7124998;-0.14000
7127776;-0.14000
7130554;-0.14000
7133331;-0.13000
7136109;-0.15000
7138887;-0.16500
7141665;-0.16000
7144442;-0.15500
7147220;-0.12000
7149998;-0.09000
7152776;-0.09000
7155554;-0.12000
7158331;-0.16000
7161109;-0.18000
7163887;-0.18000
7166665;-0.19000
7169442;-0.19500
7172220;-0.21500
7174998;-0.23000
7177776;-0.23500
7180554;-0.23000
7183331;-0.22500
7186109;-0.23000
7188887;-0.23000
7191665;-0.23000
7194442;-0.24000
7197220;-0.22500
7199998;-0.23500
7202776;-0.22500
7205554;-0.24500
7208331;-0.26000
7211109;-0.26000
7213887;-0.25000
7216665;-0.24500
7219442;-0.24500
7222220;-0.24000
7224998;-0.25500
7227776;-0.25500
7230554;-0.25000
7233331;-0.24500
7236109;-0.25000
7238887;-0.25000
7241665;-0.27500
7244442;-0.30500
7247220;-0.34000
7249998;-0.36500
7252776;-0.38000
7255554;-0.43000
7258331;-0.47000
7261109;-0.49000
7263887;-0.43000
7266665;-0.32000
7269442;-0.19000
7272220;-0.05500
7274998;0.11500
7277776;0.37000
7280554;0.65500
7283331;0.84000
7286109;0.95500
7288887;0.94500
7291665;0.76000
7294442;0.39500
7297220;-0.00500
7299998;-0.27000
7302776;-0.38000
7305554;-0.39000
7308331;-0.35500
7311109;-0.32000
7313887;-0.28500
7316665;-0.28500
7319442;-0.28000
7322220;-0.28000
7324998;-0.28500
7327776;-0.28500
7330554;-0.29000
7333331;-0.27500
7336109;-0.26000
7338887;-0.28000
7341665;-0.29000
7344442;-0.28500
7347220;-0.27000
7349998;-0.26000
7352776;-0.29000
7355553;-0.27500
7358331;-0.29000
7361109;-0.29500
7363887;-0.29500
7366665;-0.28000
7369442;-0.28500
7372220;-0.28000
7374998;-0.30500
7377776;-0.30500
7380553;-0.29500
7383331;-0.30500
7386109;-0.28500
7388887;-0.28500
7391665;-0.29000
7394442;-0.30000
7397220;-0.29000
7399998;-0.28500
7402776;-0.28000
7405553;-0.29000
7408331;-0.28500
7411109;-0.28500
7413887;-0.28000
7416665;-0.27500
7419442;-0.26500
7422220;-0.27500
7424998;-0.28500
7427776;-0.28000
7430553;-0.28000
7433331;-0.27000
7436109;-0.27500
7438887;-0.29000
7441665;-0.29500
7444442;-0.29500
7447220;-0.28500
7449998;-0.28000
7452776;-0.28500
7455553;-0.28500
7458331;-0.29500
7461109;-0.30000
7463887;-0.28500
7466665;-0.26500
7469442;-0.28000
7472220;-0.28000
7474998;-0.29500
7477776;-0.29500
7480553;-0.28500
7483331;-0.27500
7486109;-0.27000
7488887;-0.27000
7491665;-0.28000
7494442;-0.28500
7497220;-0.29000
7499998;-0.28000
7502776;-0.26500
7505553;-0.28000
7508331;-0.28500
7511109;-0.28000
7513887;-0.27000
7516665;-0.26500
7519442;-0.26000
7522220;-0.27000
7524998;-0.28000
7527776;-0.29000
7530553;-0.28500
7533331;-0.28000
7536109;-0.28000
7538887;-0.28500
7541665;-0.30500
7544442;-0.31500
7547220;-0.29500
7549998;-0.28000
7552776;-0.28500
7555553;-0.29500
7558331;-0.30000
7561109;-0.29500
7563887;-0.29500
7566665;-0.29000
7569442;-0.28000
7572220;-0.29000
7574998;-0.29500
7577776;-0.30500
7580553;-0.29000
7583331;-0.28000
7586109;-0.27000
7588887;-0.27000
7591665;-0.27000
7594442;-0.26000
7597220;-0.25500
7599998;-0.23500
7602776;-0.23000
7605553;-0.23000
7608331;-0.23000
7611109;-0.23000
7613887;-0.22000
7616665;-0.21000
7619442;-0.21000
7622220;-0.22000
7624998;-0.23500
7627776;-0.23000
7630553;-0.21500
7633331;-0.20500
7636109;-0.18500
7638887;-0.19500
7641665;-0.20000
7644442;-0.20500
7647220;-0.19500
7649998;-0.18500
7652776;-0.19500
7655553;-0.20500
7658331;-0.20000
7661109;-0.21500
7663887;-0.21000
7666665;-0.19500
7669442;-0.20000
7672220;-0.20500
7674998;-0.20500
7677776;-0.21000
7680553;-0.21000
7683331;-0.20500
7686109;-0.20000
7688887;-0.21500
7691665;-0.22000
7694442;-0.22500
7697220;-0.21000
7699998;-0.21000
7702776;-0.22000
7705553;-0.23000
7708331;-0.23500
7711109;-0.24500
7713887;-0.23500
7716665;-0.24000
7719442;-0.23000
7722220;-0.24500
7724998;-0.24000
7727776;-0.24500
7730553;-0.24000
7733331;-0.23500
7736109;-0.24000
7738887;-0.24000
7741664;-0.24500
7744442;-0.25000
7747220;-0.25500
7749998;-0.24500
7752776;-0.24000
7755553;-0.24000
7758331;-0.25000
7761109;-0.26000
7763887;-0.26000
7766664;-0.25500
7769442;-0.25500
7772220;-0.27500
7774998;-0.28000
7777776;-0.28500
7780553;-0.27000
7783331;-0.26000
7786109;-0.26000
7788887;-0.25500
7791664;-0.27500
7794442;-0.27500
7797220;-0.26500
7799998;-0.27000
7802776;-0.26500
7805553;-0.24500
7808331;-0.25000
7811109;-0.26000
7813887;-0.26000
7816664;-0.25500
7819442;-0.26500
7822220;-0.26000
7824998;-0.26500
7827776;-0.27500
7830553;-0.26000
7833331;-0.25000
7836109;-0.25000
7838887;-0.27500
7841664;-0.27000
7844442;-0.28500
7847220;-0.27000
7849998;-0.27000
7852776;-0.27000
7855553;-0.27000
7858331;-0.28000
7861109;-0.30000
7863887;-0.29500
7866664;-0.27000
7869442;-0.26500
7872220;-0.26500
7874998;-0.27500
7877776;-0.28000
7880553;-0.28000
7883331;-0.25000
7886109;-0.25500
7888887;-0.25500
7891664;-0.26500
7894442;-0.26500
7897220;-0.24500
7899998;-0.23500
7902776;-0.23000
7905553;-0.24000
7908331;-0.24000
7911109;-0.23000
7913887;-0.22000
7916664;-0.20500
7919442;-0.19500
7922220;-0.18500
7924998;-0.18000
7927776;-0.18000
7930553;-0.17000
7933331;-0.17000
7936109;-0.15500
7938887;-0.16500
7941664;-0.18000
7944442;-0.19000
7947220;-0.19000
7949998;-0.18500
7952776;-0.19000
7955553;-0.18500
7958331;-0.19500
7961109;-0.20500
7963887;-0.20500
7966664;-0.20500
7969442;-0.19500
7972220;-0.18500
7974998;-0.17500
7977776;-0.17000
7980553;-0.18000
7983331;-0.19500
7986109;-0.22000
7988887;-0.23500
7991664;-0.26000
7994442;-0.29000
7997220;-0.30000
7999998;-0.30000
8002776;-0.30000
8005553;-0.30500
8008331;-0.31500
8011109;-0.31000
8013887;-0.31000
8016664;-0.29000
8019442;-0.29000
8022220;-0.31500
8024998;-0.30000
8027776;-0.30000
8030553;-0.30000
8033331;-0.29500
8036109;-0.29500
8038887;-0.30000
8041664;-0.31000
8044442;-0.33000
8047220;-0.31500
8049998;-0.31000
8052776;-0.31500
8055553;-0.32000
8058331;-0.33000
8061109;-0.32500
8063887;-0.31000
8066664;-0.31000
8069442;-0.31500
8072220;-0.31500
8074998;-0.32000
8077776;-0.34500
8080553;-0.33500
8083331;-0.33000
8086109;-0.34000
8088887;-0.37000
8091664;-0.40000
8094442;-0.43500
8097220;-0.45000
8099998;-0.48500
8102776;-0.52000
8105553;-0.51000
8108331;-0.44000
8111109;-0.33000
8113887;-0.20000
8116664;-0.04500
8119442;0.15000
8122220;0.41500
8124998;0.64500
8127776;0.80500
8130553;0.87500
8133331;0.79000
8136109;0.52500
8138887;0.16500
8141664;-0.14500
8144442;-0.36500
8147220;-0.44500
8149998;-0.45000
8152775;-0.42500
8155553;-0.38500
8158331;-0.36500
8161109;-0.36500
8163887;-0.36500
8166664;-0.35000
8169442;-0.34500
8172220;-0.34500
8174998;-0.36500
8177775;-0.38500
8180553;-0.37000
8183331;-0.36500
8186109;-0.37500
8188887;-0.37500
8191664;-0.38000
8194442;-0.38000
8197220;-0.35500
8199998;-0.35000
8202775;-0.37000
8205553;-0.36500
8208331;-0.36500
8211109;-0.38500
8213887;-0.39000
8216664;-0.37500
8219442;-0.38500
8222220;-0.38500
8224998;-0.37000
8227775;-0.37500
8230553;-0.37000
8233331;-0.36000
8236109;-0.36500
8238887;-0.36000
8241664;-0.37500
8244442;-0.37000
8247220;-0.36500
8249998;-0.36000
8252775;-0.37500
8255553;-0.37000
8258331;-0.37500
8261109;-0.38500
8263887;-0.38000
8266664;-0.37500
8269442;-0.37500
8272220;-0.37500
8274998;-0.39000
8277775;-0.39000
8280553;-0.39000
8283331;-0.37500
8286109;-0.37000
8288887;-0.35500
8291664;-0.36000
8294442;-0.37000
8297220;-0.36000
8299998;-0.36500
8302775;-0.36500
8305553;-0.35500
8308331;-0.36000
8311109;-0.37000
8313887;-0.37000
8316664;-0.36000
8319442;-0.38500
8322220;-0.39000
8324998;-0.38000
8327775;-0.39500
8330553;-0.38000
8333331;-0.38000
8336109;-0.38000
8338887;-0.39500
8341664;-0.40000
8344442;-0.40000
8347220;-0.38000
8349998;-0.36500
8352775;-0.37000
8355553;-0.36500
8358331;-0.37500
8361109;-0.38500
8363887;-0.38500
8366664;-0.39000
8369442;-0.38500
8372220;-0.38500
8374998;-0.40500
8377775;-0.41500
8380553;-0.41500
8383331;-0.41000
8386109;-0.42500
8388887;-0.43000
8391664;-0.43500
8394442;-0.43500
8397220;-0.41500
8399998;-0.41500
8402775;-0.40500
8405553;-0.41000
8408331;-0.42000
8411109;-0.43500
8413887;-0.42500
8416664;-0.42000
8419442;-0.41000
8422220;-0.42000
8424998;-0.42000
8427775;-0.41000
8430553;-0.39000
8433331;-0.38000
8436109;-0.36000
8438887;-0.37000
8441664;-0.37000
8444442;-0.36500
8447220;-0.35500
8449998;-0.33000
8452775;-0.31500
8455553;-0.31000
8458331;-0.31500
8461109;-0.31000
8463887;-0.30500
8466664;-0.29000
8469442;-0.28000
8472220;-0.27000
8474998;-0.28000
8477775;-0.28000
8480553;-0.27000
8483331;-0.26500
8486109;-0.25500
8488887;-0.27500
8491664;-0.27000
8494442;-0.27500
8497220;-0.27000
8499998;-0.27000
8502775;-0.27000
8505553;-0.27000
8508331;-0.27500
8511109;-0.28500
8513887;-0.26500
8516664;-0.25000
8519442;-0.26000
8522220;-0.26500
8524998;-0.28000
8527775;-0.28000
8530553;-0.29000
8533331;-0.27500
8536109;-0.28000
8538886;-0.28500
8541664;-0.29000
8544442;-0.31500
8547220;-0.30500
8549998;-0.30000
8552775;-0.29000
8555553;-0.30000
8558331;-0.29000
8561109;-0.30000
8563886;-0.30000
8566664;-0.28500
8569442;-0.28500
8572220;-0.29000
8574998;-0.30000
8577775;-0.30500
8580553;-0.30500
8583331;-0.29000
8586109;-0.28500
8588886;-0.28500
8591664;-0.30000
8594442;-0.30500
8597220;-0.29500
8599998;-0.29000
8602775;-0.29500
8605553;-0.29000
8608331;-0.31000
8611109;-0.32000
8613886;-0.32000
8616664;-0.30000
8619442;-0.30500
8622220;-0.31500
8624998;-0.32500
8627775;-0.32000
8630553;-0.33000
8633331;-0.31000
8636109;-0.30500
8638886;-0.32000
8641664;-0.32500
8644442;-0.33000
8647220;-0.32500
8649998;-0.32500
8652775;-0.30500
8655553;-0.30500
8658331;-0.31000
8661109;-0.31500
8663886;-0.31500
8666664;-0.30500
8669442;-0.30500
8672220;-0.31000
8674998;-0.31000
8677775;-0.33000
8680553;-0.32500
8683331;-0.33000
8686109;-0.31500
8688886;-0.32000
8691664;-0.32500
8694442;-0.34500
8697220;-0.33500
8699998;-0.31500
8702775;-0.31000
8705553;-0.31500
8708331;-0.32500
8711109;-0.32000
8713886;-0.31000
8716664;-0.30000
8719442;-0.30000
8722220;-0.30000
8724998;-0.31000
8727775;-0.29500
8730553;-0.27500
8733331;-0.26500
8736109;-0.26000
8738886;-0.25500
8741664;-0.26500
8744442;-0.26000
8747220;-0.24000
8749998;-0.24000
8752775;-0.24000
8755553;-0.23500
8758331;-0.23000
8761109;-0.23000
8763886;-0.22500
8766664;-0.21000
8769442;-0.20000
8772220;-0.21000
8774998;-0.23000
8777775;-0.24000
8780553;-0.23500
8783331;-0.22500
8786109;-0.22000
8788886;-0.22000
8791664;-0.22000
8794442;-0.24000
8797220;-0.24000
8799998;-0.22500
8802775;-0.21500
8805553;-0.19500
8808331;-0.19500
8811109;-0.21500
8813886;-0.23500
8816664;-0.25000
8819442;-0.26000
8822220;-0.28000
8824998;-0.30500
8827775;-0.31000
8830553;-0.32000
8833331;-0.32000
8836109;-0.31500
8838886;-0.33500
8841664;-0.32500
8844442;-0.32500
8847220;-0.31000
8849998;-0.31000
8852775;-0.30000
8855553;-0.31500
8858331;-0.32500
8861109;-0.32500
8863886;-0.31500
8866664;-0.32000
8869442;-0.31500
8872220;-0.32000
8874998;-0.33000
8877775;-0.33500
8880553;-0.34000
8883331;-0.32000
8886109;-0.31500
8888886;-0.32000
8891664;-0.33000
8894442;-0.33000
8897220;-0.33000
8899998;-0.32000
8902775;-0.33500
8905553;-0.36500
8908331;-0.40500
8911109;-0.44500
8913886;-0.45000
8916664;-0.45500
8919442;-0.49000
8922220;-0.52000
8924998;-0.49500
8927775;-0.40500
8930553;-0.27500
8933331;-0.15000
8936109;0.01500
8938886;0.22000
8941664;0.47500
8944442;0.70000
8947220;0.87000
8949997;0.93500
8952775;0.85000
8955553;0.58500
8958331;0.21500
8961109;-0.12500
8963886;-0.34000
8966664;-0.41000
8969442;-0.42500
8972220;-0.39500
8974997;-0.38000
8977775;-0.36500
8980553;-0.36000
8983331;-0.34500
8986109;-0.34000
8988886;-0.34000
8991664;-0.33500
8994442;-0.34500
8997220;-0.35000
8999997;-0.34000
9002775;-0.32500
9005553;-0.34000
9008331;-0.36000
9011109;-0.35000
9013886;-0.35000
9016664;-0.34000
9019442;-0.33000
9022220;-0.34000
9024997;-0.34500
9027775;-0.35000
9030553;-0.34000
9033331;-0.33500
9036109;-0.33000
9038886;-0.32500
9041664;-0.34500
9044442;-0.36500
9047220;-0.35000
9049997;-0.34500
9052775;-0.34500
9055553;-0.35000
9058331;-0.35000
9061109;-0.36000
9063886;-0.34500
9066664;-0.34000
9069442;-0.33000
9072220;-0.34000
9074997;-0.34500
9077775;-0.35500
9080553;-0.35000
9083331;-0.33500
9086109;-0.33500
9088886;-0.34000
9091664;-0.34500
9094442;-0.35500
9097220;-0.34500
9099997;-0.33500
9102775;-0.32500
9105553;-0.34000
9108331;-0.34000
9111109;-0.35000
9113886;-0.34500
9116664;-0.34500
9119442;-0.33500
9122220;-0.35500
9124997;-0.35500
9127775;-0.37000
9130553;-0.33000
9133331;-0.33500
9136109;-0.32500
9138886;-0.33500
9141664;-0.33500
9144442;-0.35000
9147220;-0.34000
9149997;-0.33000
9152775;-0.32500
9155553;-0.33000
9158331;-0.33500
9161109;-0.33500
9163886;-0.32500
9166664;-0.32000
9169442;-0.32000
9172220;-0.31500
9174997;-0.34500
9177775;-0.34500
9180553;-0.34000
9183331;-0.34000
9186109;-0.33000
9188886;-0.34000
9191664;-0.35000
9194442;-0.36000
9197220;-0.36500
9199997;-0.34500
9202775;-0.35000
9205553;-0.36000
9208331;-0.36500
9211109;-0.37500
9213886;-0.37000
9216664;-0.36000
9219442;-0.35500
9222220;-0.36000
9224997;-0.37000
9227775;-0.37500
9230553;-0.37000
9233331;-0.34500
9236109;-0.35500
9238886;-0.36000
9241664;-0.35500
9244442;-0.37000
9247220;-0.36000
9249997;-0.34500
9252775;-0.33500
9255553;-0.34000
9258331;-0.33500
9261109;-0.33000
9263886;-0.31000
9266664;-0.29000
9269442;-0.28000
9272220;-0.27000
9274997;-0.26500
9277775;-0.26500
9280553;-0.25000
9283331;-0.24000
9286109;-0.24000
9288886;-0.23000
9291664;-0.24500
9294442;-0.24000
9297220;-0.23500
9299997;-0.23000
9302775;-0.22500
9305553;-0.22500
9308331;-0.22500
9311109;-0.25000
9313886;-0.23500
9316664;-0.22500
9319442;-0.23000
9322220;-0.23500
9324997;-0.24500
9327775;-0.24500
9330553;-0.23000
9333331;-0.23000
9336108;-0.22000
9338886;-0.23000
9341664;-0.22000
9344442;-0.23500
9347220;-0.23500
9349997;-0.22500
9352775;-0.22500
9355553;-0.22500
9358331;-0.25000
9361108;-0.25500
9363886;-0.24000
9366664;-0.24000
9369442;-0.23000
9372220;-0.22500
9374997;-0.23500
9377775;-0.24500
9380553;-0.23500
9383331;-0.23000
9386108;-0.24500
9388886;-0.25000
9391664;-0.25000
9394442;-0.25000
9397220;-0.25000
9399997;-0.24500
9402775;-0.25000
9405553;-0.25000
9408331;-0.26000
9411108;-0.27000
9413886;-0.25500
9416664;-0.25500
9419442;-0.26000
9422220;-0.25500
9424997;-0.26500
9427775;-0.26500
9430553;-0.26500
9433331;-0.25500
9436108;-0.25500
9438886;-0.25500
9441664;-0.25500
9444442;-0.27000
9447220;-0.26000
9449997;-0.25500
9452775;-0.24500
9455553;-0.25500
9458331;-0.26500
9461108;-0.26500
9463886;-0.26000
9466664;-0.26000
9469442;-0.26500
9472220;-0.26000
9474997;-0.26500
9477775;-0.27500
9480553;-0.27000
9483331;-0.27500
9486108;-0.26500
9488886;-0.27000
9491664;-0.28000
9494442;-0.28000
9497220;-0.28000
9499997;-0.27000
9502775;-0.28000
9505553;-0.26000
9508331;-0.27000
9511108;-0.27000
9513886;-0.26500
9516664;-0.25500
9519442;-0.26000
9522220;-0.26000
9524997;-0.27000
9527775;-0.27000
9530553;-0.26000
9533331;-0.24500
9536108;-0.25500
9538886;-0.26000
9541664;-0.25000
9544442;-0.26500
9547220;-0.26500
9549997;-0.25500
9552775;-0.24000
9555553;-0.24500
9558331;-0.26500
9561108;-0.26500
9563886;-0.24500
9566664;-0.23000
9569442;-0.21500
9572220;-0.20000
9574997;-0.21500
9577775;-0.21000
9580553;-0.20000
9583331;-0.19500
9586108;-0.18500
9588886;-0.17500
9591664;-0.18000
9594442;-0.19000
9597220;-0.17000
9599997;-0.15000
9602775;-0.14000
9605553;-0.14000
9608331;-0.14500
9611108;-0.15500
9613886;-0.16000
9616664;-0.16000
9619442;-0.14000
9622220;-0.14500
9624997;-0.16000
9627775;-0.18000
9630553;-0.16500
9633331;-0.16000
9636108;-0.16000
9638886;-0.17500
9641664;-0.18000
9644442;-0.17500
9647220;-0.14000
9649997;-0.13000
9652775;-0.15000
9655553;-0.18500
9658331;-0.20500
9661108;-0.23000
9663886;-0.23000
9666664;-0.24500
9669442;-0.25000
9672220;-0.25500
9674997;-0.27000
9677775;-0.28500
9680553;-0.26500
9683331;-0.26000
9686108;-0.26000
9688886;-0.26000
9691664;-0.27000
9694442;-0.28500
9697220;-0.27500
9699997;-0.27000
9702775;-0.28500
9705553;-0.28000
9708331;-0.29000
9711108;-0.31000
9713886;-0.29000
9716664;-0.28500
9719442;-0.29500
9722220;-0.30000
9724997;-0.30000
9727775;-0.31000
9730553;-0.30500
9733331;-0.29500
9736108;-0.27500
9738886;-0.28000
9741664;-0.29000
9744442;-0.29500
9747219;-0.30000
9749997;-0.31500
9752775;-0.34500
9755553;-0.39500
9758331;-0.41000
9761108;-0.42000
9763886;-0.44000
9766664;-0.47500
9769442;-0.50500
9772219;-0.48500
9774997;-0.40500
9777775;-0.29500
9780553;-0.15000
9783331;0.01500
9786108;0.22500
9788886;0.48000
9791664;0.72500
9794442;0.88500
9797219;0.99000
9799997;0.93000
9802775;0.66500
9805553;0.25000
9808331;-0.13000
9811108;-0.36000
9813886;-0.43000
9816664;-0.40500
9819442;-0.33500
9822219;-0.30500
9824997;-0.30500
9827775;-0.32000
9830553;-0.32000
9833331;-0.30000
9836108;-0.29500
9838886;-0.30000
9841664;-0.32000
9844442;-0.33000
9847219;-0.32500
9849997;-0.31000
9852775;-0.31500
9855553;-0.32000
9858331;-0.33500
9861108;-0.32500
9863886;-0.32500
9866664;-0.32500
9869442;-0.31500
9872219;-0.32500
9874997;-0.33000
9877775;-0.33000
9880553;-0.33500
9883331;-0.33000
9886108;-0.32500
9888886;-0.33000
9891664;-0.33000
9894442;-0.32500
9897219;-0.33000
9899997;-0.31000
9902775;-0.32000
9905553;-0.31000
9908331;-0.32000
9911108;-0.33000
9913886;-0.32500
9916664;-0.30500
9919442;-0.30000
9922219;-0.30000
9924997;-0.32000
9927775;-0.33000
9930553;-0.32000
9933331;-0.30500
9936108;-0.30000
9938886;-0.30500
9941664;-0.32000
9944442;-0.32500
9947219;-0.32500
9949997;-0.31500
9952775;-0.33000
9955553;-0.32500
9958331;-0.34000
9961108;-0.34000
9963886;-0.33000
9966664;-0.33000
9969442;-0.31000
9972219;-0.32000
9974997;-0.32000
9977775;-0.32500
9980553;-0.31500
9983331;-0.30500
9986108;-0.30000
9988886;-0.30500
9991664;-0.31500
9994442;-0.32000
9997219;-0.31500
9999997;-0.30500
10002775;-0.29000
10005553;-0.30000
10008331;-0.30500
10011108;-0.31500
10013886;-0.30500
10016664;-0.31000
10019442;-0.31000
10022219;-0.32000
10024997;-0.33000
10027775;-0.32500
10030553;-0.31500
10033331;-0.31000
10036108;-0.31000
10038886;-0.31000
10041664;-0.32500
10044442;-0.33000
10047219;-0.32500
10049997;-0.32000
10052775;-0.31000
10055553;-0.32000
10058331;-0.32500
10061108;-0.33500
10063886;-0.33500
10066664;-0.32500
10069442;-0.32000
10072219;-0.32000
10074997;-0.32500
10077775;-0.33000
10080553;-0.32000
10083331;-0.30500
10086108;-0.31000
10088886;-0.31000
10091664;-0.32000
10094442;-0.31500
10097219;-0.30500
10099997;-0.29000
10102775;-0.27500
10105553;-0.28500
10108331;-0.27500
10111108;-0.28500
10113886;-0.27000
10116664;-0.25500
10119442;-0.25500
10122219;-0.25000
10124997;-0.25000
10127775;-0.24500
10130553;-0.23500
10133330;-0.22000
10136108;-0.22000
10138886;-0.22000
10141664;-0.22500
10144442;-0.23000
10147219;-0.22000
10149997;-0.21000
10152775;-0.20500
10155553;-0.22500
10158330;-0.23000
10161108;-0.23500
10163886;-0.21500
10166664;-0.22000
10169442;-0.21500
10172219;-0.21500
10174997;-0.23000
10177775;-0.23500
10180553;-0.23000
10183330;-0.23500
10186108;-0.22500
10188886;-0.22500
10191664;-0.24000
10194442;-0.24500
10197219;-0.24500
10199997;-0.22000
10202775;-0.23500
10205553;-0.23500
10208330;-0.24000
10211108;-0.25500
10213886;-0.24000
10216664;-0.23500
10219442;-0.23500
10222219;-0.24500
10224997;-0.24500
10227775;-0.26000
10230553;-0.25000
10233330;-0.25000
10236108;-0.25000
10238886;-0.25000
10241664;-0.26000
10244442;-0.26500
10247219;-0.27000
10249997;-0.26500
10252775;-0.26000
10255553;-0.26500
10258330;-0.27000
10261108;-0.28500
10263886;-0.28000
10266664;-0.27000
10269442;-0.26500
10272219;-0.27000
10274997;-0.28500
10277775;-0.30000
10280553;-0.29000
10283330;-0.27500
10286108;-0.26000
10288886;-0.26500
10291664;-0.28000
10294442;-0.29000
10297219;-0.28000
10299997;-0.27000
10302775;-0.27000
10305553;-0.27500
10308330;-0.28000
10311108;-0.28500
10313886;-0.28000
10316664;-0.27500
10319442;-0.27000
10322219;-0.28000
10324997;-0.28500
10327775;-0.29500
10330553;-0.29000
10333330;-0.27500
10336108;-0.27500
10338886;-0.27500
10341664;-0.29000
10344442;-0.28500
10347219;-0.28500
10349997;-0.27500
10352775;-0.26000
10355553;-0.27500
10358330;-0.28500
10361108;-0.29000
10363886;-0.28000
10366664;-0.27000
10369442;-0.27500
10372219;-0.27500
10374997;-0.28500
10377775;-0.28500
10380553;-0.27500
10383330;-0.25000
10386108;-0.23500
10388886;-0.22500
10391664;-0.21500
10394442;-0.22500
10397219;-0.21500
10399997;-0.20000
10402775;-0.19000
10405553;-0.19500
10408330;-0.19500
10411108;-0.20000
10413886;-0.19500
10416664;-0.16500
10419442;-0.16500
10422219;-0.17500
10424997;-0.17000
10427775;-0.17000
10430553;-0.16500
10433330;-0.15500
10436108;-0.16000
10438886;-0.17000
10441664;-0.17500
10444442;-0.19500
10447219;-0.18000
10449997;-0.17500
10452775;-0.18500
10455553;-0.19000
10458330;-0.20000
10461108;-0.21500
10463886;-0.19000
10466664;-0.16500
10469442;-0.15500
10472219;-0.19500
10474997;-0.21500
10477775;-0.24500
10480553;-0.24000
10483330;-0.25500
10486108;-0.26500
10488886;-0.27000
10491664;-0.30500
10494442;-0.30500
10497219;-0.29500
10499997;-0.29000
10502775;-0.28000
10505553;-0.29000
10508330;-0.29500
10511108;-0.32000
10513886;-0.30500
10516664;-0.30000
10519441;-0.29500
10522219;-0.29500
10524997;-0.31000
10527775;-0.32500
10530553;-0.32000
10533330;-0.30000
10536108;-0.30500
10538886;-0.31000
10541664;-0.32000
10544441;-0.32000
10547219;-0.31500
10549997;-0.31500
10552775;-0.31000
10555553;-0.33500
10558330;-0.37500
10561108;-0.43500
10563886;-0.44500
10566664;-0.46500
10569441;-0.49500
10572219;-0.54500
10574997;-0.54000
10577775;-0.46000
10580553;-0.36500
10583330;-0.27500
10586108;-0.21500
10588886;-0.12500
10591664;-0.01500
10594441;0.15000
10597219;0.39000
10599997;0.60500
10602775;0.75000
10605553;0.84000
10608330;0.88000
10611108;0.74500
10613886;0.45500
10616664;0.06500
10619441;-0.25500
10622219;-0.42500
10624997;-0.45500
10627775;-0.42000
10630553;-0.37000
10633330;-0.35500
10636108;-0.33500
10638886;-0.35000
10641664;-0.35000
10644441;-0.36000
10647219;-0.34500
10649997;-0.33500
10652775;-0.32500
10655553;-0.33000
10658330;-0.33500
10661108;-0.36000
10663886;-0.35000
10666664;-0.34000
10669441;-0.33500
10672219;-0.34000
10674997;-0.34500
10677775;-0.35500
10680553;-0.36000
10683330;-0.35000
10686108;-0.35000
10688886;-0.35500
10691664;-0.35500
10694441;-0.36000
10697219;-0.35500
10699997;-0.33000
10702775;-0.33000
10705553;-0.34000
10708330;-0.34000
10711108;-0.35000
10713886;-0.34500
10716664;-0.34000
10719441;-0.33500
10722219;-0.33500
10724997;-0.34500
10727775;-0.35000
10730553;-0.34500
10733330;-0.35500
10736108;-0.34000
10738886;-0.34500
10741664;-0.34000
10744441;-0.35000
10747219;-0.34500
10749997;-0.35000
10752775;-0.34000
10755553;-0.34000
10758330;-0.33000
10761108;-0.35000
10763886;-0.34000
10766664;-0.32500
10769441;-0.33000
10772219;-0.33500
10774997;-0.34000
10777775;-0.35000
10780553;-0.34000
10783330;-0.32500
10786108;-0.33000
10788886;-0.35500
10791664;-0.35000
10794441;-0.35000
10797219;-0.35000
10799997;-0.34500
10802775;-0.33500
10805553;-0.35000
10808330;-0.34500
10811108;-0.34500
10813886;-0.34000
10816664;-0.33000
10819441;-0.32500
10822219;-0.33000
10824997;-0.34000
10827775;-0.35000
10830553;-0.33500
10833330;-0.33000
10836108;-0.34500
10838886;-0.34500
10841664;-0.35000
10844441;-0.37000
10847219;-0.37500
10849997;-0.35500
10852775;-0.35000
10855553;-0.35500
10858330;-0.36500
10861108;-0.37500
10863886;-0.37500
10866664;-0.36500
10869441;-0.36500
10872219;-0.37000
10874997;-0.37500
10877775;-0.37500
10880553;-0.36500
10883330;-0.36500
10886108;-0.35500
10888886;-0.35000
10891664;-0.35000
10894441;-0.35000
10897219;-0.34000
10899997;-0.33000
10902775;-0.32000
10905553;-0.32000
10908330;-0.31000
10911108;-0.31500
10913886;-0.29000
10916664;-0.28500
10919441;-0.27000
10922219;-0.26500
10924997;-0.26000
10927775;-0.27000
10930552;-0.26500
10933330;-0.26500
10936108;-0.28000
10938886;-0.26000
10941664;-0.27500
10944441;-0.28500
10947219;-0.28000
10949997;-0.26500
10952775;-0.25500
10955552;-0.26000
10958330;-0.27000
10961108;-0.27500
10963886;-0.26500
10966664;-0.26500
10969441;-0.26500
10972219;-0.26000
10974997;-0.26500
10977775;-0.28000
10980552;-0.27500
10983330;-0.27000
10986108;-0.27500
10988886;-0.27000
10991664;-0.27500
10994441;-0.29500
10997219;-0.29000
10999997;-0.30500
11002775;-0.30500
11005552;-0.29500
11008330;-0.29500
11011108;-0.30000
11013886;-0.30000
11016664;-0.29000
11019441;-0.27500
11022219;-0.29000
11024997;-0.29500
11027775;-0.30500
11030552;-0.30000
11033330;-0.30500
11036108;-0.30500
11038886;-0.31500
11041664;-0.30000
11044441;-0.30000
11047219;-0.29000
11049997;-0.29500
11052775;-0.29500
11055552;-0.30000
11058330;-0.31500
11061108;-0.31500
11063886;-0.31000
11066664;-0.31000
11069441;-0.31000
11072219;-0.31500
11074997;-0.31500
11077775;-0.32000
11080552;-0.31500
11083330;-0.31000
11086108;-0.30500
11088886;-0.31500
11091664;-0.32500
11094441;-0.32000
11097219;-0.32000
11099997;-0.32000
11102775;-0.30500
11105552;-0.31500
11108330;-0.32000
11111108;-0.33500
11113886;-0.32500
11116664;-0.32000
11119441;-0.32000
11122219;-0.32000
11124997;-0.33500
11127775;-0.34000
11130552;-0.33000
11133330;-0.32000
11136108;-0.30500
11138886;-0.32500
11141664;-0.31500
11144441;-0.33500
11147219;-0.33500
11149997;-0.32000
11152775;-0.31500
11155552;-0.31500
11158330;-0.32500
11161108;-0.33500
11163886;-0.32000
11166664;-0.31500
11169441;-0.31500
11172219;-0.29500
11174997;-0.29500
11177775;-0.30000
11180552;-0.29000
11183330;-0.27000
11186108;-0.26000
11188886;-0.25500
11191664;-0.26000
11194441;-0.26500
11197219;-0.25000
11199997;-0.22500
11202775;-0.20500
11205552;-0.21500
11208330;-0.21000
11211108;-0.22500
11213886;-0.22500
11216664;-0.21000
11219441;-0.22000
11222219;-0.22500
11224997;-0.23000
11227775;-0.24500
11230552;-0.23500
11233330;-0.23500
11236108;-0.23000
11238886;-0.25000
11241664;-0.24000
11244441;-0.24000
11247219;-0.20500
11249997;-0.21500
11252775;-0.23000
11255552;-0.25000
11258330;-0.28000
11261108;-0.29000
11263886;-0.29000
11266664;-0.29000
11269441;-0.29500
11272219;-0.31000
11274997;-0.32000
11277775;-0.34500
11280552;-0.33500
11283330;-0.32500
11286108;-0.32000
11288886;-0.34000
11291664;-0.35000
11294441;-0.36500
11297219;-0.35500
11299997;-0.33500
11302775;-0.33500
11305552;-0.33000
11308330;-0.35000
11311108;-0.36500
11313886;-0.35500
11316663;-0.35000
11319441;-0.34500
11322219;-0.34500
11324997;-0.35000
11327775;-0.36500
11330552;-0.36000
11333330;-0.35000
11336108;-0.34500
11338886;-0.35500
11341663;-0.36500
11344441;-0.39000
11347219;-0.43000
11349997;-0.46000
11352775;-0.47500
11355552;-0.51500
11358330;-0.55500
11361108;-0.52500
11363886;-0.44500
11366663;-0.31500
11369441;-0.16500
11372219;0.03000
11374997;0.28500
11377775;0.54000
11380552;0.76500
11383330;0.86000
11386108;0.81500
11388886;0.55500
11391663;0.15500
11394441;-0.21500
11397219;-0.41500
11399997;-0.47500
11402775;-0.47500
11405552;-0.44000
11408330;-0.40000
11411108;-0.38500
11413886;-0.38500
11416663;-0.38500
11419441;-0.39500
11422219;-0.38000
11424997;-0.37500
11427775;-0.39000
11430552;-0.37500
11433330;-0.37000
11436108;-0.36500
11438886;-0.38000
11441663;-0.38000
11444441;-0.39500
11447219;-0.38000
11449997;-0.37500
11452775;-0.37500
11455552;-0.38000
11458330;-0.39000
11461108;-0.39000
11463886;-0.38500
11466663;-0.38000
11469441;-0.38500
11472219;-0.38000
11474997;-0.39000
11477775;-0.38500
11480552;-0.38500
11483330;-0.37500
11486108;-0.37500
11488886;-0.37500
11491663;-0.37000
11494441;-0.38000
11497219;-0.37000
11499997;-0.37000
11502775;-0.36000
11505552;-0.36000
11508330;-0.37500
11511108;-0.39000
11513886;-0.37500
11516663;-0.37000
11519441;-0.37500
11522219;-0.37500
11524997;-0.38500
11527775;-0.39000
11530552;-0.38500
11533330;-0.37500
11536108;-0.37500
11538886;-0.39500
11541663;-0.42000
11544441;-0.41000
11547219;-0.39500
11549997;-0.38500
11552775;-0.36500
11555552;-0.37000
11558330;-0.36000
11561108;-0.36500
11563886;-0.36000
11566663;-0.36500
11569441;-0.35500
11572219;-0.35500
11574997;-0.36500
11577775;-0.37500
11580552;-0.38000
11583330;-0.36500
11586108;-0.34500
11588886;-0.35500
11591663;-0.36500
11594441;-0.38500
11597219;-0.38000
11599997;-0.37000
11602775;-0.36000
11605552;-0.37500
11608330;-0.38000
11611108;-0.39000
11613886;-0.40000
11616663;-0.38500
11619441;-0.39000
11622219;-0.40000
11624997;-0.40500
11627775;-0.41000
11630552;-0.41500
11633330;-0.40500
11636108;-0.39500
11638886;-0.40500
11641663;-0.40500
11644441;-0.42500
11647219;-0.42500
11649997;-0.41500
11652775;-0.41500
11655552;-0.43000
11658330;-0.43000
11661108;-0.43500
11663886;-0.43000
11666663;-0.41500
11669441;-0.40000
11672219;-0.39000
11674997;-0.39000
11677775;-0.38500
11680552;-0.38000
11683330;-0.36000
11686108;-0.34000
11688886;-0.34000
11691663;-0.33500
11694441;-0.32000
11697219;-0.31000
11699997;-0.29000
11702775;-0.28000
11705552;-0.27500
11708330;-0.27500
11711108;-0.28500
11713886;-0.27000
11716663;-0.26000
11719441;-0.24500
11722219;-0.25500
11724997;-0.26500
11727774;-0.27500
11730552;-0.26000
11733330;-0.25500
11736108;-0.25000
11738886;-0.24500
11741663;-0.26000
11744441;-0.27000
11747219;-0.26500
11749997;-0.25500
11752774;-0.25000
11755552;-0.25500
11758330;-0.26500
11761108;-0.27000
11763886;-0.27000
11766663;-0.26500
11769441;-0.25000
11772219;-0.25000
11774997;-0.26000
11777774;-0.27000
11780552;-0.26500
11783330;-0.27000
11786108;-0.25500
11788886;-0.24500
11791663;-0.26500
11794441;-0.28000
11797219;-0.28000
11799997;-0.26500
11802774;-0.27000
11805552;-0.26000
11808330;-0.28000
11811108;-0.29000
11813886;-0.28500
11816663;-0.27500
11819441;-0.27000
11822219;-0.28000
11824997;-0.29500
11827774;-0.29000
11830552;-0.29000
11833330;-0.28000
11836108;-0.28000
11838886;-0.27500
11841663;-0.28000
11844441;-0.29500
11847219;-0.28500
11849997;-0.28000
11852774;-0.28000
11855552;-0.27000
11858330;-0.28500
11861108;-0.29500
11863886;-0.30000
11866663;-0.27500
11869441;-0.27500
11872219;-0.28000
11874997;-0.28500
11877774;-0.30000
11880552;-0.29500
11883330;-0.29500
11886108;-0.27500
11888886;-0.28000
11891663;-0.28000
11894441;-0.28500
11897219;-0.27500
11899997;-0.28000
11902774;-0.26500
11905552;-0.26500
11908330;-0.27000
11911108;-0.28000
11913886;-0.26500
11916663;-0.26000
11919441;-0.25000
11922219;-0.25000
11924997;-0.26000
11927774;-0.28500
11930552;-0.27000
11933330;-0.26500
11936108;-0.25500
11938886;-0.26500
11941663;-0.27500
11944441;-0.28500
11947219;-0.27500
11949997;-0.27000
11952774;-0.26000
11955552;-0.26000
11958330;-0.26500
11961108;-0.28000
11963886;-0.28000
11966663;-0.27500
11969441;-0.25000
11972219;-0.23500
11974997;-0.22500
11977774;-0.22500
11980552;-0.23000
11983330;-0.21500
11986108;-0.21000
11988886;-0.19500
11991663;-0.18000
11994441;-0.18500
11997219;-0.16500
11999997;-0.15000
12002774;-0.14000
12005552;-0.14500
12008330;-0.15500
12011108;-0.17500
12013886;-0.17000
12016663;-0.17500
12019441;-0.17000
12022219;-0.16000
12024997;-0.18000
12027774;-0.18500
12030552;-0.18500
12033330;-0.19000
12036108;-0.16500
12038886;-0.13500
12041663;-0.15000
12044441;-0.19000
12047219;-0.19000
12049997;-0.21500
12052774;-0.21500
12055552;-0.22500
12058330;-0.23500
12061108;-0.25500
12063886;-0.26000
12066663;-0.25500
12069441;-0.24000
12072219;-0.24500
12074997;-0.26000
12077774;-0.27000
12080552;-0.27500
12083330;-0.25500
12086108;-0.25500
12088886;-0.25500
12091663;-0.27000
12094441;-0.28500
12097219;-0.27500
12099997;-0.28000
12102774;-0.27000
12105552;-0.27000
12108330;-0.27500
12111108;-0.29000
12113885;-0.27500
12116663;-0.26000
12119441;-0.25000
12122219;-0.25500
12124997;-0.26500
12127774;-0.28000
12130552;-0.28000
12133330;-0.29500
12136108;-0.32500
12138885;-0.38000
12141663;-0.39500
12144441;-0.44500
12147219;-0.47000
12149997;-0.48500
12152774;-0.42500
12155552;-0.31000
12158330;-0.17500
12161108;-0.01500
12163885;0.20500
12166663;0.49000
12169441;0.75000
12172219;0.94000
12174997;1.05500
12177774;1.09500
12180552;1.03500
12183330;0.85000
12186108;0.51000
12188885;0.10000
12191663;-0.21500
12194441;-0.38000
12197219;-0.41000
12199997;-0.36000
12202774;-0.30000
12205552;-0.28500
12208330;-0.29500
12211108;-0.30500
12213885;-0.30500
12216663;-0.30500
12219441;-0.29000
12222219;-0.30000
12224997;-0.29500
12227774;-0.30500
12230552;-0.30500
12233330;-0.30000
12236108;-0.31000
12238885;-0.30000
12241663;-0.31000
12244441;-0.32000
12247219;-0.31500
12249997;-0.30500
12252774;-0.28500
12255552;-0.28500
12258330;-0.30000
12261108;-0.31500
12263885;-0.31000
12266663;-0.30000
12269441;-0.30000
12272219;-0.30000
12274997;-0.30500
12277774;-0.30500
12280552;-0.30500
12283330;-0.29500
12286108;-0.28500
12288885;-0.28000
12291663;-0.29500
12294441;-0.30500
12297219;-0.30000
12299997;-0.29500
12302774;-0.29000
12305552;-0.28000
12308330;-0.29500
12311108;-0.30000
12313885;-0.30500
12316663;-0.29500
12319441;-0.28500
12322219;-0.29000
12324997;-0.29000
12327774;-0.30000
12330552;-0.30000
12333330;-0.29500
12336108;-0.27000
12338885;-0.28000
12341663;-0.28000
12344441;-0.29000
12347219;-0.28000
12349997;-0.28500
12352774;-0.26000
12355552;-0.26500
12358330;-0.27500
12361108;-0.28500
12363885;-0.29500
12366663;-0.28000
12369441;-0.27000
12372219;-0.27500
12374997;-0.28500
12377774;-0.30500
12380552;-0.30000
12383330;-0.29500
12386108;-0.28000
12388885;-0.28500
12391663;-0.29000
12394441;-0.31000
12397219;-0.30500
12399997;-0.29000
12402774;-0.29500
12405552;-0.30000
12408330;-0.31500
12411108;-0.32500
12413885;-0.31000
12416663;-0.30500
12419441;-0.30500
12422219;-0.31000
12424997;-0.31500
12427774;-0.31500
12430552;-0.32000
12433330;-0.31500
12436108;-0.30000
12438885;-0.31000
12441663;-0.31500
12444441;-0.31500
12447219;-0.31000
12449997;-0.30500
12452774;-0.29000
12455552;-0.29000
12458330;-0.28500
12461108;-0.29000
12463885;-0.28000
12466663;-0.26500
12469441;-0.24500
12472219;-0.24000
12474997;-0.24000
12477774;-0.24500
12480552;-0.23500
12483330;-0.21500
12486108;-0.20500
12488885;-0.20000
12491663;-0.20500
12494441;-0.20000
12497219;-0.19500
12499996;-0.18500
12502774;-0.17500
12505552;-0.16500
12508330;-0.18000
12511108;-0.19500
12513885;-0.18500
12516663;-0.18500
12519441;-0.17000
12522219;-0.17000
12524996;-0.17000
12527774;-0.18500
12530552;-0.17500
12533330;-0.17000
12536108;-0.17000
12538885;-0.17000
12541663;-0.17500
12544441;-0.17500
12547219;-0.18000
12549996;-0.17000
12552774;-0.16500
12555552;-0.16000
12558330;-0.17500
12561108;-0.18500
12563885;-0.18500
12566663;-0.18500
12569441;-0.18000
12572219;-0.18000
12574996;-0.18500
12577774;-0.20000
12580552;-0.19000
12583330;-0.18000
12586108;-0.17500
12588885;-0.19000
12591663;-0.19500
12594441;-0.20000
12597219;-0.19000
12599996;-0.19000
12602774;-0.18000
12605552;-0.18500
12608330;-0.19000
12611108;-0.21000
12613885;-0.21000
12616663;-0.21000
12619441;-0.19000
12622219;-0.20500
12624996;-0.21500
12627774;-0.22500
12630552;-0.22000
12633330;-0.22000
12636108;-0.22500
12638885;-0.21000
12641663;-0.21500
12644441;-0.23000
12647219;-0.23500
12649996;-0.21500
12652774;-0.20500
12655552;-0.19000
12658330;-0.21500
12661108;-0.22000
12663885;-0.22500
12666663;-0.21500
12669441;-0.21000
12672219;-0.20500
12674996;-0.22000
12677774;-0.22000
12680552;-0.21500
12683330;-0.22000
12686108;-0.21000
12688885;-0.21000
12691663;-0.21000
12694441;-0.22500
12697219;-0.22000
12699996;-0.21500
12702774;-0.20000
12705552;-0.20000
12708330;-0.21500
12711108;-0.23000
12713885;-0.22500
12716663;-0.22000
12719441;-0.21500
12722219;-0.22500
12724996;-0.22000
12727774;-0.24000
12730552;-0.22500
12733330;-0.21500
12736108;-0.21500
12738885;-0.20500
12741663;-0.22000
12744441;-0.23000
12747219;-0.21500
12749996;-0.20500
12752774;-0.19500
12755552;-0.20000
12758330;-0.22000
12761108;-0.21500
12763885;-0.22500
12766663;-0.20000
12769441;-0.20000
12772219;-0.19000
12774996;-0.18000
12777774;-0.17500
12780552;-0.16000
12783330;-0.15000
12786108;-0.14500
12788885;-0.14000
12791663;-0.14500
12794441;-0.15000
12797219;-0.13500
12799996;-0.12500
12802774;-0.11000
12805552;-0.10500
12808330;-0.11000
12811108;-0.11500
12813885;-0.11500
12816663;-0.11000
12819441;-0.10500
12822219;-0.11000
12824996;-0.12500
12827774;-0.13500
12830552;-0.12500
12833330;-0.12000
12836108;-0.12000
12838885;-0.12500
12841663;-0.13000
12844441;-0.14500
12847219;-0.11500
12849996;-0.10500
12852774;-0.12500
12855552;-0.16000
12858330;-0.18500
12861108;-0.20000
12863885;-0.21500
12866663;-0.23000
12869441;-0.22000
12872219;-0.22500
12874996;-0.23000
12877774;-0.23500
12880552;-0.23500
12883330;-0.23500
12886108;-0.21500
12888885;-0.22000
12891663;-0.23000
12894441;-0.24500
12897219;-0.24500
12899996;-0.24500
12902774;-0.23000
12905552;-0.23500
12908330;-0.26000
12911107;-0.26000
12913885;-0.25500
12916663;-0.24500
12919441;-0.24500
12922219;-0.24500
12924996;-0.26500
12927774;-0.27000
12930552;-0.26000
12933330;-0.25000
12936107;-0.24500
12938885;-0.28000
12941663;-0.31500
12944441;-0.36000
12947219;-0.37000
12949996;-0.37500
12952774;-0.39000
12955552;-0.43500
12958330;-0.48500
12961107;-0.47500
12963885;-0.38500
12966663;-0.26000
12969441;-0.12000
12972219;0.01500
12974996;0.22500
12977774;0.47500
12980552;0.76000
12983330;0.95500
12986107;1.01500
12988885;0.94000
12991663;0.64000
12994441;0.21500
12997219;-0.14000
12999996;-0.35000
13002774;-0.38000
13005552;-0.33500
13008330;-0.29000
13011107;-0.27500
13013885;-0.27000
13016663;-0.26500
13019441;-0.26000
13022219;-0.26500
13024996;-0.28500
13027774;-0.29500
13030552;-0.28500
13033330;-0.28000
13036107;-0.28000
13038885;-0.27500
13041663;-0.28000
13044441;-0.29500
13047219;-0.28500
13049996;-0.27000
13052774;-0.27000
13055552;-0.26500
13058330;-0.28000
13061107;-0.28500
13063885;-0.27500
13066663;-0.27500
13069441;-0.26000
13072219;-0.26500
13074996;-0.27000
13077774;-0.28000
13080552;-0.28000
13083330;-0.26500
13086107;-0.26500
13088885;-0.26500
13091663;-0.27000
13094441;-0.29000
13097219;-0.28500
13099996;-0.28000
13102774;-0.26500
13105552;-0.27500
13108330;-0.27500
13111107;-0.28000
13113885;-0.27500
13116663;-0.27000
13119441;-0.26000
13122219;-0.26500
13124996;-0.27000
13127774;-0.28000
13130552;-0.26500
13133330;-0.26000
13136107;-0.25500
13138885;-0.26000
13141663;-0.26500
13144441;-0.28000
13147219;-0.27000
13149996;-0.26500
13152774;-0.25500
13155552;-0.26500
13158330;-0.26000
13161107;-0.27000
13163885;-0.26500
13166663;-0.26500
13169441;-0.25000
13172219;-0.26500
13174996;-0.27000
13177774;-0.27000
13180552;-0.27000
13183330;-0.26500
13186107;-0.25000
13188885;-0.25500
13191663;-0.27000
13194441;-0.27500
13197219;-0.26500
13199996;-0.25500
13202774;-0.24500
13205552;-0.24500
13208330;-0.26500
13211107;-0.26500
13213885;-0.26000
13216663;-0.26000
13219441;-0.25000
13222219;-0.25500
13224996;-0.27000
13227774;-0.28000
13230552;-0.27500
13233330;-0.26500
13236107;-0.25500
13238885;-0.25500
13241663;-0.27000
13244441;-0.28500
13247219;-0.27500
13249996;-0.27500
13252774;-0.27000
13255552;-0.27000
13258330;-0.27500
13261107;-0.28000
13263885;-0.26500
13266663;-0.25000
13269441;-0.24000
13272219;-0.22500
13274996;-0.21500
13277774;-0.22500
13280552;-0.21500
13283330;-0.19500
13286107;-0.19500
13288885;-0.19000
13291663;-0.18000
13294441;-0.18500
13297218;-0.18500
13299996;-0.17000
13302774;-0.15500
13305552;-0.16000
13308330;-0.17000
13311107;-0.17500
13313885;-0.16000
13316663;-0.16000
13319441;-0.15000
13322218;-0.15500
13324996;-0.16500
13327774;-0.17500
13330552;-0.17000
13333330;-0.16000
13336107;-0.15500
13338885;-0.16000
13341663;-0.17000
13344441;-0.18000
13347218;-0.18000
13349996;-0.17000
13352774;-0.16000
13355552;-0.15500
13358330;-0.17500
13361107;-0.18000
13363885;-0.18000
13366663;-0.17000
13369441;-0.17000
13372218;-0.17500
13374996;-0.18500
13377774;-0.19500
13380552;-0.19000
13383330;-0.19000
13386107;-0.18500
13388885;-0.17000
13391663;-0.19000
13394441;-0.21000
13397218;-0.20000
13399996;-0.18500
13402774;-0.18500
13405552;-0.17500
13408330;-0.19000
13411107;-0.20500
13413885;-0.20000
13416663;-0.19500
13419441;-0.19500
13422218;-0.19000
13424996;-0.20000
13427774;-0.19500
13430552;-0.20500
13433330;-0.20500
13436107;-0.19500
13438885;-0.21000
13441663;-0.21000
13444441;-0.22500
13447218;-0.22000
13449996;-0.21000
13452774;-0.20000
13455552;-0.19500
13458330;-0.21500
13461107;-0.21500
13463885;-0.22000
13466663;-0.21000
13469441;-0.20500
13472218;-0.20000
13474996;-0.21000
13477774;-0.22500
13480552;-0.21500
13483330;-0.21500
13486107;-0.22500
13488885;-0.23000
13491663;-0.23500
13494441;-0.24000
13497218;-0.22500
13499996;-0.22000
13502774;-0.21000
13505552;-0.21500
13508330;-0.21500
13511107;-0.22500
13513885;-0.23000
13516663;-0.22000
13519441;-0.21500
13522218;-0.22500
13524996;-0.23000
13527774;-0.22500
13530552;-0.23500
13533330;-0.22000
13536107;-0.21500
13538885;-0.22500
13541663;-0.23000
13544441;-0.24000
13547218;-0.24000
13549996;-0.23500
13552774;-0.22500
13555552;-0.22000
13558330;-0.22500
13561107;-0.23500
13563885;-0.22000
13566663;-0.21500
13569441;-0.20000
13572218;-0.20500
13574996;-0.20000
13577774;-0.20000
13580552;-0.19000
13583330;-0.17000
13586107;-0.15000
13588885;-0.14000
13591663;-0.14500
13594441;-0.15500
13597218;-0.15000
13599996;-0.13500
13602774;-0.12000
13605552;-0.12500
13608330;-0.12500
13611107;-0.12500
13613885;-0.11500
13616663;-0.10500
13619441;-0.10000
13622218;-0.10500
13624996;-0.11500
13627774;-0.13500
13630552;-0.13000
13633330;-0.13500
13636107;-0.12000
13638885;-0.12000
13641663;-0.13000
13644441;-0.13000
13647218;-0.13500
13649996;-0.13500
13652774;-0.10500
13655552;-0.09000
13658330;-0.09000
13661107;-0.12000
13663885;-0.15000
13666663;-0.16500
13669441;-0.15500
13672218;-0.15500
13674996;-0.17000
13677774;-0.18000
13680552;-0.19500
13683330;-0.19500
13686107;-0.21000
13688885;-0.21000
13691663;-0.22000
13694441;-0.23500
13697218;-0.24500
13699996;-0.23500
13702774;-0.23000
13705552;-0.23500
13708329;-0.24000
13711107;-0.24500
13713885;-0.25000
13716663;-0.25500
13719441;-0.24500
13722218;-0.24500
13724996;-0.25000
13727774;-0.26500
13730552;-0.26000
13733329;-0.25000
13736107;-0.24000
13738885;-0.24000
13741663;-0.25000
13744441;-0.26500
13747218;-0.26500
13749996;-0.25000
13752774;-0.24500
13755552;-0.25500
13758329;-0.26500
13761107;-0.29500
13763885;-0.32000
13766663;-0.35500
13769441;-0.38000
13772218;-0.40000
13774996;-0.44000
13777774;-0.49500
13780552;-0.49500
13783329;-0.41000
13786107;-0.29000
13788885;-0.15500
13791663;0.00000
13794441;0.18000
13797218;0.45000
13799996;0.69500
13802774;0.86000
13805552;0.94000
13808329;0.94000
13811107;0.82500
13813885;0.57000
13816663;0.25500
13819441;-0.06000
13822218;-0.28000
13824996;-0.39000
13827774;-0.39500
13830552;-0.36000
13833329;-0.32000
13836107;-0.29500
13838885;-0.30500
13841663;-0.31000
13844441;-0.33000
13847218;-0.31000
13849996;-0.30500
13852774;-0.30000
13855552;-0.30500
13858329;-0.29500
13861107;-0.30000
13863885;-0.31000
13866663;-0.29000
13869441;-0.28500
13872218;-0.28500
13874996;-0.29000
13877774;-0.29500
13880552;-0.30500
13883329;-0.29000
13886107;-0.29000
13888885;-0.29000
13891663;-0.31500
13894441;-0.32000
13897218;-0.31000
13899996;-0.31000
13902774;-0.29500
13905552;-0.31000
13908329;-0.31000
13911107;-0.31500
13913885;-0.30500
13916663;-0.30500
13919441;-0.29500
13922218;-0.28500
13924996;-0.30000
13927774;-0.31000
13930552;-0.31500
13933329;-0.31000
13936107;-0.31000
13938885;-0.30500
13941663;-0.31000
13944441;-0.33000
13947218;-0.33500
13949996;-0.32500
13952774;-0.31500
13955552;-0.30500
13958329;-0.31500
13961107;-0.32000
13963885;-0.32000
13966663;-0.30500
13969441;-0.30500
13972218;-0.32000
13974996;-0.33500
13977774;-0.33500
13980552;-0.32500
13983329;-0.31500
13986107;-0.30500
13988885;-0.30000
13991663;-0.31500
13994441;-0.33000
13997218;-0.33000
13999996;-0.32000
14002774;-0.31500
14005552;-0.31500
14008329;-0.31000
14011107;-0.32000
14013885;-0.31500
14016663;-0.30500
14019441;-0.31000
14022218;-0.30500
14024996;-0.30500
14027774;-0.31500
14030552;-0.32000
14033329;-0.32000
14036107;-0.31000
14038885;-0.31500
14041663;-0.32000
14044441;-0.33000
14047218;-0.33000
14049996;-0.32000
14052774;-0.31500
14055552;-0.31500
14058329;-0.31000
14061107;-0.31500
14063885;-0.32500
14066663;-0.31500
14069441;-0.32500
14072218;-0.32000
14074996;-0.33500
14077774;-0.34500
14080552;-0.34500
14083329;-0.32500
14086107;-0.32500
14088885;-0.33000
14091663;-0.35000
14094440;-0.35500
14097218;-0.35500
14099996;-0.34500
14102774;-0.33500
14105552;-0.32500
14108329;-0.34500
14111107;-0.35500
14113885;-0.34500
14116663;-0.33500
14119440;-0.32000
14122218;-0.32000
14124996;-0.32000
14127774;-0.31500
14130552;-0.31000
14133329;-0.30000
14136107;-0.27000
14138885;-0.27500
14141663;-0.27000
14144440;-0.27500
14147218;-0.26000
14149996;-0.23500
14152774;-0.23000
14155552;-0.23000
14158329;-0.23000
14161107;-0.25000
14163885;-0.24500
14166663;-0.23500
14169440;-0.23000
14172218;-0.24500
14174996;-0.23000
14177774;-0.24000
14180552;-0.23500
14183329;-0.22500
14186107;-0.23000
14188885;-0.22500
14191663;-0.23500
14194440;-0.24000
14197218;-0.25000
14199996;-0.23500
14202774;-0.24000
14205552;-0.25000
14208329;-0.24500
14211107;-0.25500
14213885;-0.25500
14216663;-0.26000
14219440;-0.23000
14222218;-0.23500
14224996;-0.24500
14227774;-0.25000
14230552;-0.26000
14233329;-0.24500
14236107;-0.24000
14238885;-0.23500
14241663;-0.25500
14244440;-0.26000
14247218;-0.26500
14249996;-0.27500
14252774;-0.25500
14255552;-0.25000
14258329;-0.25500
14261107;-0.27500
14263885;-0.26500
14266663;-0.26500
14269440;-0.26500
14272218;-0.25500
14274996;-0.28500
14277774;-0.28500
14280552;-0.28000
14283329;-0.27000
14286107;-0.27000
14288885;-0.26500
14291663;-0.27500
14294440;-0.27500
14297218;-0.28500
14299996;-0.28500
14302774;-0.28500
14305552;-0.27500
14308329;-0.29000
14311107;-0.29000
14313885;-0.28500
14316663;-0.28000
14319440;-0.26500
14322218;-0.26500
14324996;-0.27000
14327774;-0.28000
14330552;-0.29000
14333329;-0.27500
14336107;-0.27000
14338885;-0.27500
14341663;-0.28000
14344440;-0.29500
14347218;-0.31000
14349996;-0.30000
14352774;-0.29500
14355552;-0.30000
14358329;-0.29500
14361107;-0.30000
14363885;-0.30500
14366663;-0.30500
14369440;-0.29000
14372218;-0.29000
14374996;-0.31500
14377774;-0.32500
14380552;-0.31000
14383329;-0.31000
14386107;-0.28500
14388885;-0.29500
14391663;-0.29500
14394440;-0.30000
14397218;-0.29500
14399996;-0.29000
14402774;-0.28500
14405552;-0.28000
14408329;-0.27500
14411107;-0.30000
14413885;-0.29000
14416663;-0.29000
14419440;-0.28000
14422218;-0.29500
14424996;-0.30500
14427774;-0.29500
14430552;-0.29500
14433329;-0.28500
14436107;-0.28500
14438885;-0.29000
14441663;-0.29000
14444440;-0.28000
14447218;-0.27000
14449996;-0.25500
14452774;-0.24500
14455552;-0.25000
14458329;-0.25000
14461107;-0.25500
14463885;-0.23500
14466663;-0.20500
14469440;-0.19000
14472218;-0.18500
14474996;-0.19000
14477774;-0.20000
14480552;-0.20500
14483329;-0.19500
14486107;-0.20000
14488885;-0.19000
14491663;-0.21000
14494440;-0.22000
14497218;-0.22500
14499996;-0.21000
14502774;-0.19500
14505551;-0.20000
14508329;-0.22000
14511107;-0.23000
14513885;-0.23000
14516663;-0.20000
14519440;-0.19500
14522218;-0.19000
14524996;-0.21500
14527774;-0.25000
14530551;-0.26500
14533329;-0.28000
14536107;-0.27000
14538885;-0.30000
14541663;-0.32000
14544440;-0.33000
14547218;-0.33000
14549996;-0.33500
14552774;-0.32000
14555551;-0.32000
14558329;-0.33000
14561107;-0.34000
14563885;-0.34000
14566663;-0.34500
14569440;-0.33000
14572218;-0.33000
14574996;-0.33500
14577774;-0.35500
14580551;-0.36500
14583329;-0.36500
14586107;-0.34500
14588885;-0.34000
14591663;-0.34000
14594440;-0.34500
14597218;-0.34000
14599996;-0.33500
14602774;-0.33000
14605551;-0.33500
14608329;-0.34000
14611107;-0.35000
14613885;-0.36000
14616663;-0.35000
14619440;-0.33500
14622218;-0.34500
14624996;-0.36000
14627774;-0.39000
14630551;-0.41500
14633329;-0.43500
14636107;-0.43500
14638885;-0.47000
14641663;-0.52000
14644440;-0.55500
14647218;-0.53000
14649996;-0.43000
14652774;-0.30500
14655551;-0.19000
14658329;-0.04000
14661107;0.15500
14663885;0.42500
14666663;0.66500
14669440;0.82500
14672218;0.87000
14674996;0.78000
14677774;0.52000
14680551;0.13000
14683329;-0.19500
14686107;-0.38500
14688885;-0.46000
14691663;-0.46000
14694440;-0.44500
14697218;-0.43000
14699996;-0.40000
14702774;-0.39500
14705551;-0.39000
14708329;-0.37000
14711107;-0.37500
14713885;-0.37000
14716663;-0.38000
14719440;-0.37000
14722218;-0.37500
14724996;-0.37500
14727774;-0.38000
14730551;-0.39500
14733329;-0.37500
14736107;-0.36000
14738885;-0.37500
14741663;-0.38000
14744440;-0.38500
14747218;-0.38500
14749996;-0.36500
14752774;-0.36000
14755551;-0.37000
14758329;-0.38000
14761107;-0.39500
14763885;-0.39500
14766663;-0.39000
14769440;-0.37500
14772218;-0.37000
14774996;-0.37500
14777774;-0.39000
14780551;-0.40000
14783329;-0.37500
14786107;-0.36500
14788885;-0.36500
14791663;-0.38500
14794440;-0.38500
14797218;-0.38500
14799996;-0.38500
14802774;-0.37000
14805551;-0.37000
14808329;-0.37500
14811107;-0.39000
14813885;-0.39000
14816663;-0.39000
14819440;-0.36000
14822218;-0.37000
14824996;-0.36500
14827774;-0.38000
14830551;-0.39000
14833329;-0.37500
14836107;-0.37000
14838885;-0.38000
14841663;-0.39500
14844440;-0.40000
14847218;-0.40500
14849996;-0.39500
14852774;-0.39000
14855551;-0.37500
14858329;-0.38500
14861107;-0.38500
14863885;-0.39000
14866663;-0.39000
14869440;-0.37500
14872218;-0.38000
14874996;-0.38000
14877774;-0.37500
14880551;-0.38000
14883329;-0.37000
14886107;-0.37500
14888885;-0.37500
14891662;-0.38500
14894440;-0.40500
14897218;-0.39500
14899996;-0.40000
14902774;-0.38000
14905551;-0.39000
14908329;-0.40000
14911107;-0.40000
14913885;-0.41000
14916662;-0.40500
14919440;-0.40000
14922218;-0.41000
14924996;-0.41500
14927774;-0.42000
14930551;-0.43500
14933329;-0.44000
14936107;-0.43500
14938885;-0.44000
14941662;-0.45000
14944440;-0.43500
14947218;-0.45000
14949996;-0.44000
14952774;-0.42500
14955551;-0.42500
14958329;-0.43500
14961107;-0.43500
14963885;-0.43000
14966662;-0.42000
14969440;-0.39000
14972218;-0.39000
14974996;-0.38000
14977774;-0.38000
14980551;-0.36500
14983329;-0.34500
14986107;-0.33500
14988885;-0.33000
14991662;-0.33500
14994440;-0.32000
14997218;-0.31000
14999996;-0.29500
15002774;-0.27500
15005551;-0.29000
15008329;-0.29000
15011107;-0.29000
15013885;-0.29000
15016662;-0.27500
15019440;-0.26500
15022218;-0.27000
15024996;-0.27000
15027774;-0.28000
15030551;-0.28500
15033329;-0.27500
15036107;-0.25500
15038885;-0.26000
15041662;-0.27000
15044440;-0.27500
15047218;-0.28000
15049996;-0.26500
15052774;-0.25000
15055551;-0.26500
15058329;-0.26500
15061107;-0.28000
15063885;-0.27500
15066662;-0.26500
15069440;-0.27000
15072218;-0.26500
15074996;-0.26000
15077774;-0.27500
15080551;-0.28000
15083329;-0.26500
15086107;-0.26500
15088885;-0.27500
15091662;-0.29000
15094440;-0.29500
15097218;-0.28500
15099996;-0.27000
15102774;-0.25500
15105551;-0.25500
15108329;-0.27000
15111107;-0.27500
15113885;-0.28500
15116662;-0.27500
15119440;-0.26000
15122218;-0.27500
15124996;-0.29000
15127774;-0.29000
15130551;-0.30000
15133329;-0.28500
15136107;-0.27000
15138885;-0.28000
15141662;-0.29500
15144440;-0.29500
15147218;-0.30000
15149996;-0.30000
15152774;-0.28000
15155551;-0.28500
15158329;-0.28500
15161107;-0.31000
15163885;-0.30500
15166662;-0.30500
15169440;-0.29500
15172218;-0.30500
15174996;-0.30000
15177774;-0.30500
15180551;-0.31000
15183329;-0.31000
15186107;-0.28500
15188885;-0.29000
15191662;-0.30000
15194440;-0.31000
15197218;-0.30500
15199996;-0.30000
15202774;-0.28500
15205551;-0.29500
15208329;-0.29500
15211107;-0.31000
15213885;-0.30500
15216662;-0.29500
15219440;-0.28000
15222218;-0.29500
15224996;-0.29500
15227774;-0.30000
15230551;-0.30000
15233329;-0.29500
15236107;-0.29500
15238885;-0.28500
15241662;-0.29000
15244440;-0.30000
15247218;-0.30500
15249996;-0.30000
15252774;-0.29000
15255551;-0.28000
15258329;-0.28000
15261107;-0.29000
15263885;-0.29000
15266662;-0.29000
15269440;-0.27500
15272218;-0.27000
15274996;-0.27500
15277774;-0.27500
15280551;-0.27500
15283329;-0.24500
15286107;-0.24000
15288885;-0.23500
15291662;-0.23500
15294440;-0.22500
15297218;-0.23500
15299996;-0.22500
15302773;-0.22000
15305551;-0.22500
15308329;-0.22500
15311107;-0.22000
15313885;-0.22000
15316662;-0.20500
15319440;-0.19000
15322218;-0.17500
15324996;-0.17500
15327773;-0.18500
15330551;-0.18500
15333329;-0.18000
15336107;-0.17500
15338885;-0.19500
15341662;-0.20000
15344440;-0.20500
15347218;-0.21000
15349996;-0.19500
15352773;-0.20000
15355551;-0.21500
15358329;-0.20500
15361107;-0.20500
15363885;-0.18500
15366662;-0.15500
15369440;-0.17500
15372218;-0.20000
15374996;-0.23000
15377773;-0.25500
15380551;-0.26500
15383329;-0.27500
15386107;-0.28000
15388885;-0.28500
15391662;-0.30000
15394440;-0.32000
15397218;-0.32500
15399996;-0.30500
15402773;-0.29000
15405551;-0.29500
15408329;-0.31000
15411107;-0.31500
15413885;-0.30500
15416662;-0.30500
15419440;-0.29000
15422218;-0.29500
15424996;-0.30000
15427773;-0.31000
15430551;-0.31000
15433329;-0.30500
15436107;-0.29000
15438885;-0.29500
15441662;-0.29500
15444440;-0.30500
15447218;-0.30000
15449996;-0.30000
15452773;-0.28000
15455551;-0.29000
15458329;-0.30000
15461107;-0.31500
15463885;-0.34000
15466662;-0.35500
15469440;-0.39000
15472218;-0.41500
15474996;-0.44000
15477773;-0.45500
15480551;-0.49500
15483329;-0.51000
15486107;-0.46000
15488885;-0.37500
15491662;-0.25000
15494440;-0.10500
15497218;0.07500
15499996;0.35500
15502773;0.64000
15505551;0.85500
15508329;0.97500
15511107;0.94000
15513885;0.71500
15516662;0.34500
15519440;-0.04000
15522218;-0.32000
15524996;-0.44500
15527773;-0.43500
15530551;-0.39000
15533329;-0.34000
15536107;-0.32500
15538885;-0.34000
15541662;-0.33500
15544440;-0.33500
15547218;-0.34000
15549996;-0.33000
15552773;-0.32500
15555551;-0.33000
15558329;-0.34500
15561107;-0.34000
15563885;-0.35000
15566662;-0.33500
15569440;-0.33000
15572218;-0.33000
15574996;-0.33500
15577773;-0.34500
15580551;-0.35500
15583329;-0.34500
15586107;-0.33000
15588885;-0.33000
15591662;-0.34500
15594440;-0.35500
15597218;-0.36500
15599996;-0.35000
15602773;-0.33500
15605551;-0.33000
15608329;-0.34000
15611107;-0.34000
15613885;-0.35000
15616662;-0.33000
15619440;-0.31500
15622218;-0.32500
15624996;-0.33000
15627773;-0.33500
15630551;-0.33000
15633329;-0.32500
15636107;-0.31000
15638885;-0.31500
15641662;-0.32000
15644440;-0.32500
15647218;-0.32500
15649996;-0.32500
15652773;-0.32000
15655551;-0.32500
15658329;-0.34000
15661107;-0.34000
15663885;-0.34500
15666662;-0.33000
15669440;-0.32000
15672218;-0.33000
15674996;-0.33000
15677773;-0.34000
15680551;-0.34500
15683329;-0.33000
15686107;-0.32000
15688884;-0.33500
15691662;-0.33000
15694440;-0.33000
15697218;-0.33500
15699996;-0.33000
15702773;-0.33000
15705551;-0.32500
15708329;-0.33000
15711107;-0.33500
15713884;-0.34000
15716662;-0.33000
15719440;-0.32000
15722218;-0.32500
15724996;-0.33500
15727773;-0.33000
15730551;-0.34500
15733329;-0.33500
15736107;-0.32000
15738884;-0.32000
15741662;-0.35000
15744440;-0.35000
15747218;-0.35500
15749996;-0.35000
15752773;-0.34000
15755551;-0.34000
15758329;-0.33500
15761107;-0.33500
15763884;-0.35000
15766662;-0.33500
15769440;-0.33000
15772218;-0.33500
15774996;-0.34000
15777773;-0.35000
15780551;-0.35000
15783329;-0.34000
15786107;-0.33000
15788884;-0.32000
15791662;-0.33000
15794440;-0.32500
15797218;-0.32500
15799996;-0.30500
15802773;-0.29000
15805551;-0.28500
15808329;-0.29000
15811107;-0.28000
15813884;-0.27500
15816662;-0.25500
15819440;-0.24500
15822218;-0.24500
15824996;-0.25500
15827773;-0.26000
15830551;-0.25000
15833329;-0.23000
15836107;-0.22000
15838884;-0.22000
15841662;-0.22000
15844440;-0.23000
15847218;-0.22000
15849996;-0.22500
15852773;-0.21500
15855551;-0.21000
15858329;-0.21500
15861107;-0.23500
15863884;-0.21500
15866662;-0.21500
15869440;-0.20000
15872218;-0.20000
15874996;-0.21500
15877773;-0.22500
15880551;-0.23000
15883329;-0.21500
15886107;-0.21000
15888884;-0.22000
15891662;-0.22000
15894440;-0.23000
15897218;-0.23000
15899996;-0.21000
15902773;-0.22000
15905551;-0.22000
15908329;-0.22000
15911107;-0.23500
15913884;-0.23500
15916662;-0.22000
15919440;-0.21500
15922218;-0.21500
15924996;-0.23000
15927773;-0.24000
15930551;-0.24500
15933329;-0.23000
15936107;-0.23000
15938884;-0.23500
15941662;-0.25000
15944440;-0.25500
15947218;-0.25500
15949996;-0.25000
15952773;-0.24500
15955551;-0.24500
15958329;-0.25500
15961107;-0.25000
15963884;-0.25500
15966662;-0.26000
15969440;-0.25000
15972218;-0.24500
15974996;-0.23500
15977773;-0.25500
15980551;-0.26500
15983329;-0.26500
15986107;-0.25000
15988884;-0.26500
15991662;-0.26500
15994440;-0.26500
15997218;-0.27500
15999996;-0.26500
16002773;-0.25500
16005551;-0.26000
16008329;-0.26000
16011107;-0.26500
16013884;-0.27500
16016662;-0.24500
16019440;-0.25500
16022218;-0.25000
16024996;-0.26000
16027773;-0.27000
16030551;-0.27000
16033329;-0.26500
16036107;-0.25000
16038884;-0.25000
16041662;-0.25000
16044440;-0.25000
16047218;-0.26000
16049996;-0.25000
16052773;-0.24000
16055551;-0.24500
16058329;-0.26000
16061107;-0.27000
16063884;-0.27000
16066662;-0.25500
16069440;-0.24500
16072218;-0.25000
16074995;-0.25000
16077773;-0.25500
16080551;-0.25500
16083329;-0.24000
16086107;-0.23500
16088884;-0.23500
16091662;-0.22500
16094440;-0.22500
16097218;-0.21500
16099995;-0.19500
16102773;-0.17500
16105551;-0.17000
16108329;-0.18000
16111107;-0.18500
16113884;-0.19000
16116662;-0.17000
16119440;-0.16000
16122218;-0.16000
16124995;-0.16500
16127773;-0.15000
16130551;-0.15000
16133329;-0.13000
16136107;-0.12500
16138884;-0.12500
16141662;-0.14000
16144440;-0.15500
