time_ms;ecg_value
0;-0.51000
2778;-0.51000
5556;-0.49500
8333;-0.52000
11111;-0.53500
13889;-0.53000
16667;-0.52000
19444;-0.52500
22222;-0.52000
25000;-0.51500
27778;-0.53000
30556;-0.53000
33333;-0.51500
36111;-0.53000
38889;-0.53000
41667;-0.53000
44444;-0.54000
47222;-0.55000
50000;-0.53500
52778;-0.53000
55556;-0.52500
58333;-0.52500
61111;-0.54000
63889;-0.56500
66667;-0.55500
69444;-0.56000
72222;-0.55000
75000;-0.55500
77778;-0.57000
80556;-0.57500
83333;-0.56500
86111;-0.56000
88889;-0.56500
91667;-0.58000
94444;-0.59500
97222;-0.60000
100000;-0.59500
102778;-0.58000
105556;-0.56000
108333;-0.56500
111111;-0.56500
113889;-0.56000
116667;-0.55000
119444;-0.51500
122222;-0.51000
125000;-0.49500
127778;-0.48500
130556;-0.47500
133333;-0.46500
136111;-0.44500
138889;-0.44500
141667;-0.45000
144444;-0.45000
147222;-0.43000
150000;-0.42000
152778;-0.40000
155556;-0.38500
158333;-0.37500
161111;-0.38000
163889;-0.39500
166667;-0.39500
169444;-0.39500
172222;-0.39500
175000;-0.40000
177778;-0.41000
180556;-0.42000
183333;-0.42000
186111;-0.40000
188889;-0.38000
191667;-0.37000
194444;-0.38500
197222;-0.38500
200000;-0.37000
202778;-0.36500
205555;-0.37500
208333;-0.38000
211111;-0.39000
213889;-0.39000
216667;-0.39000
219444;-0.38500
222222;-0.38000
225000;-0.38000
227778;-0.39000
230555;-0.37500
233333;-0.36500
236111;-0.36500
238889;-0.38500
241667;-0.41000
244444;-0.42500
247222;-0.41000
250000;-0.41000
252778;-0.38500
255555;-0.38000
258333;-0.38000
261111;-0.40000
263889;-0.40500
266667;-0.41000
269444;-0.40500
272222;-0.42000
275000;-0.40000
277778;-0.39000
280555;-0.38000
283333;-0.38000
286111;-0.39000
288889;-0.40000
291667;-0.43500
294444;-0.45500
297222;-0.44500
300000;-0.44000
302778;-0.43500
305555;-0.42500
308333;-0.43500
311111;-0.44000
313889;-0.43500
316667;-0.44500
319444;-0.45000
322222;-0.45000
325000;-0.46000
327778;-0.47500
330555;-0.47500
333333;-0.45000
336111;-0.43000
338889;-0.42000
341667;-0.43500
344444;-0.44500
347222;-0.43500
350000;-0.42000
352778;-0.42500
355555;-0.43000
358333;-0.44500
361111;-0.46500
363889;-0.45500
366667;-0.43000
369444;-0.41500
372222;-0.44000
375000;-0.45500
377778;-0.46000
380555;-0.45500
383333;-0.44000
386111;-0.42500
388889;-0.41500
391667;-0.44000
394444;-0.44500
397222;-0.43000
400000;-0.40000
402778;-0.37500
405555;-0.37000
408333;-0.38000
411111;-0.38500
413889;-0.38000
416667;-0.37000
419444;-0.35000
422222;-0.33500
425000;-0.33000
427778;-0.35000
430555;-0.33500
433333;-0.33500
436111;-0.31500
438889;-0.31500
441667;-0.32000
444444;-0.34000
447222;-0.34500
450000;-0.35000
452778;-0.32500
455555;-0.31500
458333;-0.31500
461111;-0.32000
463889;-0.29500
466667;-0.28000
469444;-0.27000
472222;-0.27000
475000;-0.32000
477778;-0.38000
480555;-0.40500
483333;-0.42000
486111;-0.40000
488889;-0.40500
491667;-0.44000
494444;-0.47500
497222;-0.48000
500000;-0.45500
502778;-0.43000
505555;-0.42000
508333;-0.43000
511111;-0.44500
513889;-0.44500
516667;-0.42500
519444;-0.39500
522222;-0.39500
525000;-0.42000
527778;-0.45500
530555;-0.46500
533333;-0.46500
536111;-0.47500
538889;-0.47000
541667;-0.48000
544444;-0.47500
547222;-0.47500
550000;-0.49500
552778;-0.48500
555555;-0.49000
558333;-0.50000
561111;-0.50000
563889;-0.49000
566667;-0.47000
569444;-0.44000
572222;-0.45500
575000;-0.48500
577778;-0.51500
580555;-0.55000
583333;-0.57500
586111;-0.58500
588889;-0.63000
591667;-0.67500
594444;-0.67500
597222;-0.59500
600000;-0.44000
602778;-0.27000
605555;-0.10500
608333;0.07500
611111;0.32500
613889;0.59000
616666;0.77500
619444;0.86000
622222;0.82500
625000;0.57500
627778;0.13000
630555;-0.29000
633333;-0.54500
636111;-0.62000
638889;-0.62500
641666;-0.61500
644444;-0.59500
647222;-0.58500
650000;-0.56000
652778;-0.54500
655555;-0.53500
658333;-0.53000
661111;-0.54500
663889;-0.55500
666666;-0.56500
669444;-0.54000
672222;-0.50500
675000;-0.52000
677778;-0.54500
680555;-0.53000
683333;-0.53000
686111;-0.54500
688889;-0.58500
691666;-0.59500
694444;-0.59000
697222;-0.57500
700000;-0.57000
702778;-0.58500
705555;-0.59000
708333;-0.59000
711111;-0.58000
713889;-0.55000
716666;-0.54000
719444;-0.55500
722222;-0.57000
725000;-0.56500
727778;-0.55500
730555;-0.55500
733333;-0.54500
736111;-0.55000
738889;-0.55000
741666;-0.56500
744444;-0.56500
747222;-0.56500
750000;-0.56500
752778;-0.56000
755555;-0.56500
758333;-0.57000
761111;-0.58500
763889;-0.58000
766666;-0.55500
769444;-0.55500
772222;-0.54000
775000;-0.56000
777778;-0.58000
780555;-0.57500
783333;-0.57000
786111;-0.55500
788889;-0.56000
791666;-0.57500
794444;-0.59000
797222;-0.58500
800000;-0.58000
802778;-0.56500
805555;-0.55000
808333;-0.53500
811111;-0.54500
813889;-0.54500
816666;-0.55000
819444;-0.54500
822222;-0.54000
825000;-0.54500
827778;-0.56500
830555;-0.57500
833333;-0.56000
836111;-0.55000
838889;-0.54000
841666;-0.54500
844444;-0.55500
847222;-0.59500
850000;-0.59000
852778;-0.59000
855555;-0.58000
858333;-0.61000
861111;-0.61500
863889;-0.62000
866666;-0.61500
869444;-0.58000
872222;-0.59500
875000;-0.59500
877778;-0.62000
880555;-0.62500
883333;-0.63000
886111;-0.61500
888889;-0.62000
891666;-0.63500
894444;-0.64000
897222;-0.61000
900000;-0.59500
902778;-0.57000
905555;-0.57500
908333;-0.58000
911111;-0.58000
913889;-0.55500
916666;-0.53000
919444;-0.50500
922222;-0.49500
925000;-0.49500
927778;-0.50500
930555;-0.49000
933333;-0.46000
936111;-0.43500
938889;-0.42000
941666;-0.41500
944444;-0.42500
947222;-0.41500
950000;-0.39500
952778;-0.37500
955555;-0.36500
958333;-0.36000
961111;-0.36500
963889;-0.37500
966666;-0.36500
969444;-0.37000
972222;-0.36500
975000;-0.36000
977778;-0.34500
980555;-0.34500
983333;-0.34500
986111;-0.35500
988889;-0.34000
991666;-0.35500
994444;-0.36000
997222;-0.36500
1000000;-0.36500
1002777;-0.35500
1005555;-0.35000
1008333;-0.36000
1011111;-0.37000
1013889;-0.37500
1016666;-0.37500
1019444;-0.37000
1022222;-0.36500
1025000;-0.37000
1027777;-0.36000
1030555;-0.36500
1033333;-0.35000
1036111;-0.35500
1038889;-0.36500
1041666;-0.36000
1044444;-0.37000
1047222;-0.35500
1050000;-0.35500
1052777;-0.35500
1055555;-0.36500
1058333;-0.37000
1061111;-0.37500
1063889;-0.38000
1066666;-0.38000
1069444;-0.38000
1072222;-0.38000
1075000;-0.39500
1077777;-0.40500
1080555;-0.39500
1083333;-0.39500
1086111;-0.39500
1088889;-0.38000
1091666;-0.39000
1094444;-0.40000
1097222;-0.41500
1100000;-0.40500
1102777;-0.40500
1105555;-0.41500
1108333;-0.41000
1111111;-0.41000
1113889;-0.41500
1116666;-0.40500
1119444;-0.40000
1122222;-0.41000
1125000;-0.41500
1127777;-0.42000
1130555;-0.43000
1133333;-0.42500
1136111;-0.42000
1138889;-0.42000
1141666;-0.43000
1144444;-0.43500
1147222;-0.42500
1150000;-0.42500
1152777;-0.40000
1155555;-0.41000
1158333;-0.41500
1161111;-0.43000
1163889;-0.42000
1166666;-0.39500
1169444;-0.38500
1172222;-0.38000
1175000;-0.38500
1177777;-0.38000
1180555;-0.38000
1183333;-0.37000
1186111;-0.36000
1188889;-0.36000
1191666;-0.36000
1194444;-0.36000
1197222;-0.34500
1200000;-0.33000
1202777;-0.31500
1205555;-0.30500
1208333;-0.29500
1211111;-0.30500
1213889;-0.28500
1216666;-0.28500
1219444;-0.27000
1222222;-0.26500
1225000;-0.27000
1227777;-0.26500
1230555;-0.29000
1233333;-0.28000
1236111;-0.26500
1238889;-0.28000
1241666;-0.29500
1244444;-0.29500
1247222;-0.29500
1250000;-0.27000
1252777;-0.24500
1255555;-0.21000
1258333;-0.22000
1261111;-0.26500
1263889;-0.31000
1266666;-0.32500
1269444;-0.32000
1272222;-0.32000
1275000;-0.35500
1277777;-0.37500
1280555;-0.39500
1283333;-0.40000
1286111;-0.40000
1288889;-0.40500
1291666;-0.40500
1294444;-0.40000
1297222;-0.41000
1300000;-0.39000
1302777;-0.39000
1305555;-0.39500
1308333;-0.41000
1311111;-0.42500
1313889;-0.43000
1316666;-0.41500
1319444;-0.40000
1322222;-0.41000
1325000;-0.40500
1327777;-0.40500
1330555;-0.41000
1333333;-0.40500
1336111;-0.40500
1338889;-0.41000
1341666;-0.41000
1344444;-0.43000
1347222;-0.43000
1350000;-0.42500
1352777;-0.42000
1355555;-0.45000
1358333;-0.48000
1361111;-0.53500
1363889;-0.54000
1366666;-0.57000
1369444;-0.59000
1372222;-0.56000
1375000;-0.45500
1377777;-0.29500
1380555;-0.09000
1383333;0.12500
1386111;0.39000
1388888;0.66000
1391666;0.86000
1394444;0.95500
1397222;0.94500
1400000;0.74000
1402777;0.31000
1405555;-0.18000
1408333;-0.51500
1411111;-0.61500
1413888;-0.59000
1416666;-0.52500
1419444;-0.47500
1422222;-0.46000
1425000;-0.46500
1427777;-0.48500
1430555;-0.49500
1433333;-0.47500
1436111;-0.46000
1438888;-0.47000
1441666;-0.48500
1444444;-0.49500
1447222;-0.49000
1450000;-0.49000
1452777;-0.49500
1455555;-0.49500
1458333;-0.50000
1461111;-0.50500
1463888;-0.50500
1466666;-0.50000
1469444;-0.50000
1472222;-0.48500
1475000;-0.50500
1477777;-0.51000
1480555;-0.50000
1483333;-0.50500
1486111;-0.50000
1488888;-0.50000
1491666;-0.51500
1494444;-0.52500
1497222;-0.52000
1500000;-0.51000
1502777;-0.48500
1505555;-0.50000
1508333;-0.50500
1511111;-0.51000
1513888;-0.50500
1516666;-0.50000
1519444;-0.49500
1522222;-0.49500
1525000;-0.50500
1527777;-0.51500
1530555;-0.51500
1533333;-0.51500
1536111;-0.49000
1538888;-0.49500
1541666;-0.51000
1544444;-0.51500
1547222;-0.50500
1550000;-0.51000
1552777;-0.51000
1555555;-0.50000
1558333;-0.50000
1561111;-0.50500
1563888;-0.49000
1566666;-0.49500
1569444;-0.49000
1572222;-0.50000
1575000;-0.50000
1577777;-0.51000
1580555;-0.51500
1583333;-0.50500
1586111;-0.50000
1588888;-0.51500
1591666;-0.51500
1594444;-0.51500
1597222;-0.51000
1600000;-0.51000
1602777;-0.52000
1605555;-0.53000
1608333;-0.53500
1611111;-0.54000
1613888;-0.54500
1616666;-0.52500
1619444;-0.52000
1622222;-0.52500
1625000;-0.53500
1627777;-0.54500
1630555;-0.54000
1633333;-0.53500
1636111;-0.53500
1638888;-0.54500
1641666;-0.55000
1644444;-0.55500
1647222;-0.57000
1650000;-0.55500
1652777;-0.54000
1655555;-0.54000
1658333;-0.54500
1661111;-0.54500
1663888;-0.54500
1666666;-0.51500
1669444;-0.49000
1672222;-0.48000
1675000;-0.47000
1677777;-0.47000
1680555;-0.44500
1683333;-0.42000
1686111;-0.40500
1688888;-0.39000
1691666;-0.39000
1694444;-0.38500
1697222;-0.38000
1700000;-0.37500
1702777;-0.34000
1705555;-0.33500
1708333;-0.34000
1711111;-0.33500
1713888;-0.34000
1716666;-0.33000
1719444;-0.30500
1722222;-0.31500
1725000;-0.32000
1727777;-0.33500
1730555;-0.33000
1733333;-0.32000
1736111;-0.31000
1738888;-0.31000
1741666;-0.30500
1744444;-0.30500
1747222;-0.31500
1750000;-0.31500
1752777;-0.30500
1755555;-0.31000
1758333;-0.33000
1761111;-0.32500
1763888;-0.32500
1766666;-0.32000
1769444;-0.32000
1772222;-0.31500
1775000;-0.31500
1777777;-0.32000
1780555;-0.33000
1783333;-0.32000
1786111;-0.31000
1788888;-0.33000
1791666;-0.33000
1794444;-0.34000
1797222;-0.33500
1799999;-0.32500
1802777;-0.33000
1805555;-0.34000
1808333;-0.32500
1811111;-0.33000
1813888;-0.34000
1816666;-0.32500
1819444;-0.33000
1822222;-0.33000
1824999;-0.34000
1827777;-0.33500
1830555;-0.33000
1833333;-0.34000
1836111;-0.33500
1838888;-0.34000
1841666;-0.34500
1844444;-0.35500
1847222;-0.37000
1849999;-0.35000
1852777;-0.34500
1855555;-0.35500
1858333;-0.36500
1861111;-0.37500
1863888;-0.37000
1866666;-0.37000
1869444;-0.35500
1872222;-0.36500
1874999;-0.37500
1877777;-0.36500
1880555;-0.37000
1883333;-0.37000
1886111;-0.36000
1888888;-0.37000
1891666;-0.36000
1894444;-0.37500
1897222;-0.37000
1899999;-0.37000
1902777;-0.35500
1905555;-0.36500
1908333;-0.36000
1911111;-0.37500
1913888;-0.36000
1916666;-0.34500
1919444;-0.33500
1922222;-0.32500
1924999;-0.33000
1927777;-0.33000
1930555;-0.32500
1933333;-0.30000
1936111;-0.28500
1938888;-0.29000
1941666;-0.28000
1944444;-0.28500
1947222;-0.28000
1949999;-0.26000
1952777;-0.24500
1955555;-0.23500
1958333;-0.24500
1961111;-0.24000
1963888;-0.24000
1966666;-0.24500
1969444;-0.24500
1972222;-0.25500
1974999;-0.27000
1977777;-0.27000
1980555;-0.26500
1983333;-0.25500
1986111;-0.24000
1988888;-0.25500
1991666;-0.25000
1994444;-0.23000
1997222;-0.21500
1999999;-0.22000
2002777;-0.23000
2005555;-0.27500
2008333;-0.30000
2011111;-0.31500
2013888;-0.32000
2016666;-0.32000
2019444;-0.33500
2022222;-0.35500
2024999;-0.36500
2027777;-0.38000
2030555;-0.38500
2033333;-0.36500
2036111;-0.35000
2038888;-0.36000
2041666;-0.36500
2044444;-0.37500
2047222;-0.39500
2049999;-0.39000
2052777;-0.37500
2055555;-0.38000
2058333;-0.39000
2061111;-0.39000
2063888;-0.39500
2066666;-0.37500
2069444;-0.36000
2072222;-0.38000
2074999;-0.39000
2077777;-0.39000
2080555;-0.36500
2083333;-0.37000
2086111;-0.35500
2088888;-0.35500
2091666;-0.37000
2094444;-0.37500
2097222;-0.38500
2099999;-0.39000
2102777;-0.41500
2105555;-0.45500
2108333;-0.48500
2111111;-0.49500
2113888;-0.52000
2116666;-0.54500
2119444;-0.58000
2122222;-0.54500
2124999;-0.46000
2127777;-0.32500
2130555;-0.18000
2133333;0.03000
2136111;0.27500
2138888;0.55000
2141666;0.80000
2144444;0.92500
2147222;0.92000
2149999;0.76000
2152777;0.41000
2155555;-0.05000
2158333;-0.41000
2161111;-0.56000
2163888;-0.55500
2166666;-0.49000
2169444;-0.43000
2172222;-0.43000
2174999;-0.43500
2177777;-0.44000
2180555;-0.44000
2183333;-0.42000
2186110;-0.42500
2188888;-0.43500
2191666;-0.44000
2194444;-0.44500
2197222;-0.45000
2199999;-0.44500
2202777;-0.44000
2205555;-0.44000
2208333;-0.44500
2211110;-0.44000
2213888;-0.44000
2216666;-0.43500
2219444;-0.42000
2222222;-0.43000
2224999;-0.43500
2227777;-0.45000
2230555;-0.45000
2233333;-0.43500
2236110;-0.42000
2238888;-0.43000
2241666;-0.43000
2244444;-0.44000
2247222;-0.43500
2249999;-0.44000
2252777;-0.42500
2255555;-0.44000
2258333;-0.45000
2261110;-0.44000
2263888;-0.46000
2266666;-0.44500
2269444;-0.42500
2272222;-0.43500
2274999;-0.43500
2277777;-0.44000
2280555;-0.45000
2283333;-0.43500
2286110;-0.43500
2288888;-0.43500
2291666;-0.43500
2294444;-0.44500
2297222;-0.44500
2299999;-0.43000
2302777;-0.42500
2305555;-0.42000
2308333;-0.43000
2311110;-0.43500
2313888;-0.44000
2316666;-0.43000
2319444;-0.42000
2322222;-0.42000
2324999;-0.43500
2327777;-0.44500
2330555;-0.45000
2333333;-0.44000
2336110;-0.42500
2338888;-0.44000
2341666;-0.44500
2344444;-0.45000
2347222;-0.44000
2349999;-0.43000
2352777;-0.42000
2355555;-0.42500
2358333;-0.42500
2361110;-0.44000
2363888;-0.44000
2366666;-0.45500
2369444;-0.42500
2372222;-0.42500
2374999;-0.44000
2377777;-0.43500
2380555;-0.44000
2383333;-0.43500
2386110;-0.42000
2388888;-0.42500
2391666;-0.42500
2394444;-0.43000
2397222;-0.43500
2399999;-0.43000
2402777;-0.41500
2405555;-0.40500
2408333;-0.40000
2411110;-0.40000
2413888;-0.39500
2416666;-0.37500
2419444;-0.35500
2422222;-0.34500
2424999;-0.34500
2427777;-0.34500
2430555;-0.34000
2433333;-0.32000
2436110;-0.30500
2438888;-0.30500
2441666;-0.30000
2444444;-0.30500
2447222;-0.30000
2449999;-0.29500
2452777;-0.28000
2455555;-0.28000
2458333;-0.27000
2461110;-0.29000
2463888;-0.29500
2466666;-0.28500
2469444;-0.28000
2472222;-0.27500
2474999;-0.29000
2477777;-0.29500
2480555;-0.29500
2483333;-0.29500
2486110;-0.28000
2488888;-0.28500
2491666;-0.28500
2494444;-0.29500
2497222;-0.30000
2499999;-0.29000
2502777;-0.28000
2505555;-0.29000
2508333;-0.28500
2511110;-0.29500
2513888;-0.28500
2516666;-0.29500
2519444;-0.28500
2522222;-0.28500
2524999;-0.29000
2527777;-0.30500
2530555;-0.30000
2533333;-0.29500
2536110;-0.29000
2538888;-0.30000
2541666;-0.30500
2544444;-0.31000
2547222;-0.32000
2549999;-0.31500
2552777;-0.30000
2555555;-0.30500
2558333;-0.32000
2561110;-0.33500
2563888;-0.33500
2566666;-0.33000
2569444;-0.32500
2572222;-0.33000
2574999;-0.33500
2577777;-0.34500
2580555;-0.36500
2583333;-0.34500
2586110;-0.33000
2588888;-0.33000
2591666;-0.33000
2594444;-0.34500
2597221;-0.35000
2599999;-0.35000
2602777;-0.32500
2605555;-0.34000
2608333;-0.34000
2611110;-0.34500
2613888;-0.35000
2616666;-0.34000
2619444;-0.33500
2622221;-0.32500
2624999;-0.33500
2627777;-0.35500
2630555;-0.35500
2633333;-0.34000
2636110;-0.34000
2638888;-0.34000
2641666;-0.34500
2644444;-0.34500
2647221;-0.33000
2649999;-0.30500
2652777;-0.28500
2655555;-0.29000
2658333;-0.29500
2661110;-0.29000
2663888;-0.28500
2666666;-0.26000
2669444;-0.25500
2672221;-0.25000
2674999;-0.26000
2677777;-0.26000
2680555;-0.25000
2683333;-0.24500
2686110;-0.23500
2688888;-0.22000
2691666;-0.22500
2694444;-0.22500
2697221;-0.21500
2699999;-0.21000
2702777;-0.20000
2705555;-0.21000
2708333;-0.22500
2711110;-0.24000
2713888;-0.24000
2716666;-0.22000
2719444;-0.20500
2722221;-0.21500
2724999;-0.21000
2727777;-0.20000
2730555;-0.19000
2733333;-0.19000
2736110;-0.21500
2738888;-0.26000
2741666;-0.28500
2744444;-0.29000
2747221;-0.30000
2749999;-0.30500
2752777;-0.31000
2755555;-0.32500
2758333;-0.34000
2761110;-0.34500
2763888;-0.35000
2766666;-0.32500
2769444;-0.32000
2772221;-0.33000
2774999;-0.34500
2777777;-0.36000
2780555;-0.35000
2783333;-0.35500
2786110;-0.35000
2788888;-0.35000
2791666;-0.35500
2794444;-0.37000
2797221;-0.36000
2799999;-0.35500
2802777;-0.36500
2805555;-0.35000
2808333;-0.36000
2811110;-0.35500
2813888;-0.36500
2816666;-0.35000
2819444;-0.33500
2822221;-0.35000
2824999;-0.36000
2827777;-0.38500
2830555;-0.41000
2833333;-0.44500
2836110;-0.45500
2838888;-0.47500
2841666;-0.52500
2844444;-0.56000
2847221;-0.51500
2849999;-0.40000
2852777;-0.24000
2855555;-0.09000
2858333;0.11000
2861110;0.36500
2863888;0.63000
2866666;0.82500
2869444;0.88500
2872221;0.76500
2874999;0.42500
2877777;-0.02000
2880555;-0.38000
2883333;-0.54500
2886110;-0.55500
2888888;-0.52000
2891666;-0.46500
2894444;-0.45000
2897221;-0.40500
2899999;-0.39000
2902777;-0.40000
2905555;-0.40500
2908333;-0.42500
2911110;-0.42500
2913888;-0.41500
2916666;-0.42500
2919444;-0.41500
2922221;-0.41500
2924999;-0.42000
2927777;-0.42000
2930555;-0.43500
2933333;-0.42500
2936110;-0.41500
2938888;-0.42500
2941666;-0.42500
2944444;-0.41500
2947221;-0.42000
2949999;-0.41000
2952777;-0.41000
2955555;-0.40500
2958333;-0.41000
2961110;-0.41500
2963888;-0.42500
2966666;-0.42000
2969444;-0.41000
2972221;-0.41500
2974999;-0.42000
2977777;-0.43000
2980555;-0.43000
2983332;-0.41000
2986110;-0.41000
2988888;-0.41000
2991666;-0.43000
2994444;-0.43000
2997221;-0.43500
2999999;-0.41000
3002777;-0.41000
3005555;-0.42000
3008332;-0.42500
3011110;-0.43000
3013888;-0.43500
3016666;-0.42000
3019444;-0.41000
3022221;-0.41500
3024999;-0.41500
3027777;-0.43500
3030555;-0.44000
3033332;-0.41500
3036110;-0.41500
3038888;-0.43500
3041666;-0.43500
3044444;-0.43500
3047221;-0.43000
3049999;-0.41000
3052777;-0.39500
3055555;-0.40500
3058332;-0.42000
3061110;-0.42500
3063888;-0.43500
3066666;-0.41500
3069444;-0.40500
3072221;-0.41500
3074999;-0.41000
3077777;-0.42500
3080555;-0.42000
3083332;-0.41000
3086110;-0.40000
3088888;-0.40500
3091666;-0.41000
3094444;-0.43000
3097221;-0.44000
3099999;-0.43500
3102777;-0.42000
3105555;-0.42000
3108332;-0.42500
3111110;-0.45000
3113888;-0.44500
3116666;-0.43500
3119444;-0.41500
3122221;-0.41000
3124999;-0.40500
3127777;-0.41000
3130555;-0.40500
3133332;-0.39500
3136110;-0.38500
3138888;-0.38500
3141666;-0.37000
3144444;-0.38000
3147221;-0.37000
3149999;-0.34500
3152777;-0.33000
3155555;-0.32500
3158332;-0.32000
3161110;-0.31500
3163888;-0.31500
3166666;-0.30500
3169444;-0.28000
3172221;-0.27500
3174999;-0.27500
3177777;-0.28000
3180555;-0.28500
3183332;-0.26000
3186110;-0.24500
3188888;-0.26000
3191666;-0.26000
3194444;-0.25500
3197221;-0.27500
3199999;-0.26500
3202777;-0.26500
3205555;-0.25500
3208332;-0.27000
3211110;-0.26500
3213888;-0.28000
3216666;-0.27500
3219444;-0.26000
3222221;-0.26000
3224999;-0.27000
3227777;-0.28500
3230555;-0.28500
3233332;-0.28000
3236110;-0.28000
3238888;-0.27500
3241666;-0.28000
3244444;-0.28500
3247221;-0.30000
3249999;-0.28500
3252777;-0.27000
3255555;-0.28000
3258332;-0.29000
3261110;-0.30000
3263888;-0.30500
3266666;-0.29500
3269444;-0.29000
3272221;-0.29000
3274999;-0.29000
3277777;-0.29500
3280555;-0.30000
3283332;-0.30000
3286110;-0.29000
3288888;-0.29000
3291666;-0.30000
3294444;-0.30500
3297221;-0.31500
3299999;-0.30000
3302777;-0.30000
3305555;-0.30000
3308332;-0.31000
3311110;-0.32000
3313888;-0.32000
3316666;-0.32000
3319444;-0.32000
3322221;-0.32500
3324999;-0.32000
3327777;-0.32000
3330555;-0.33000
3333332;-0.31000
3336110;-0.31000
3338888;-0.32000
3341666;-0.32500
3344444;-0.33000
3347221;-0.32000
3349999;-0.31500
3352777;-0.30500
3355555;-0.30500
3358332;-0.29500
3361110;-0.30500
3363888;-0.29500
3366666;-0.27500
3369444;-0.25500
3372221;-0.26000
3374999;-0.25500
3377777;-0.25500
3380555;-0.25500
3383332;-0.24500
3386110;-0.22000
3388888;-0.21500
3391666;-0.21000
3394443;-0.21000
3397221;-0.20500
3399999;-0.19000
3402777;-0.17500
3405555;-0.17000
3408332;-0.18000
3411110;-0.19000
3413888;-0.20000
3416666;-0.19500
3419443;-0.19000
3422221;-0.18000
3424999;-0.17500
3427777;-0.18500
3430555;-0.17000
3433332;-0.13500
3436110;-0.13000
3438888;-0.16000
3441666;-0.19500
3444443;-0.22000
3447221;-0.24500
3449999;-0.25500
3452777;-0.25500
3455555;-0.28000
3458332;-0.29000
3461110;-0.29500
3463888;-0.31500
3466666;-0.31000
3469443;-0.31000
3472221;-0.30500
3474999;-0.31500
3477777;-0.31500
3480555;-0.31500
3483332;-0.30500
3486110;-0.29500
3488888;-0.30000
3491666;-0.30500
3494443;-0.31000
3497221;-0.32500
3499999;-0.32500
3502777;-0.31000
3505555;-0.32500
3508332;-0.31500
3511110;-0.33000
3513888;-0.33000
3516666;-0.32000
3519443;-0.31000
3522221;-0.31000
3524999;-0.31000
3527777;-0.31500
3530555;-0.33500
3533332;-0.35000
3536110;-0.38000
3538888;-0.41500
3541666;-0.43500
3544443;-0.48500
3547221;-0.51500
3549999;-0.51500
3552777;-0.44000
3555555;-0.32000
3558332;-0.19000
3561110;-0.04000
3563888;0.16500
3566666;0.43000
3569443;0.68000
3572221;0.83000
3574999;0.91000
3577777;0.89000
3580555;0.70500
3583332;0.36000
3586110;-0.04000
3588888;-0.35000
3591666;-0.51000
3594443;-0.51500
3597221;-0.46500
3599999;-0.40000
3602777;-0.37000
3605555;-0.37000
3608332;-0.39000
3611110;-0.38500
3613888;-0.38000
3616666;-0.37500
3619443;-0.36500
3622221;-0.36500
3624999;-0.37500
3627777;-0.38000
3630555;-0.38500
3633332;-0.35500
3636110;-0.36000
3638888;-0.36500
3641666;-0.37500
3644443;-0.39000
3647221;-0.39000
3649999;-0.38500
3652777;-0.37500
3655555;-0.37000
3658332;-0.37000
3661110;-0.37500
3663888;-0.38500
3666666;-0.37500
3669443;-0.36500
3672221;-0.38000
3674999;-0.37000
3677777;-0.38000
3680555;-0.38000
3683332;-0.38000
3686110;-0.37000
3688888;-0.37500
3691666;-0.37500
3694443;-0.39000
3697221;-0.38500
3699999;-0.37000
3702777;-0.37000
3705555;-0.36500
3708332;-0.37500
3711110;-0.38000
3713888;-0.38500
3716666;-0.38000
3719443;-0.37500
3722221;-0.37000
3724999;-0.38000
3727777;-0.39500
3730555;-0.39500
3733332;-0.38000
3736110;-0.37000
3738888;-0.38500
3741666;-0.38500
3744443;-0.38500
3747221;-0.39500
3749999;-0.38000
3752777;-0.37000
3755555;-0.37500
3758332;-0.37000
3761110;-0.37500
3763888;-0.38000
3766666;-0.37000
3769443;-0.37000
3772221;-0.38500
3774999;-0.39000
3777777;-0.39500
3780554;-0.39000
3783332;-0.38000
3786110;-0.37000
3788888;-0.37500
3791666;-0.37500
3794443;-0.39500
3797221;-0.39500
3799999;-0.38500
3802777;-0.37500
3805554;-0.38000
3808332;-0.38000
3811110;-0.38000
3813888;-0.38500
3816666;-0.37500
3819443;-0.38500
3822221;-0.38000
3824999;-0.37500
3827777;-0.38000
3830554;-0.37500
3833332;-0.36000
3836110;-0.35500
3838888;-0.34000
3841666;-0.34000
3844443;-0.34500
3847221;-0.33500
3849999;-0.32500
3852777;-0.31000
3855554;-0.29500
3858332;-0.28500
3861110;-0.28500
3863888;-0.28500
3866666;-0.26500
3869443;-0.25000
3872221;-0.25000
3874999;-0.24500
3877777;-0.25500
3880554;-0.25500
3883332;-0.24500
3886110;-0.23000
3888888;-0.23500
3891666;-0.23500
3894443;-0.25500
3897221;-0.25500
3899999;-0.24000
3902777;-0.24500
3905554;-0.24000
3908332;-0.23500
3911110;-0.24500
3913888;-0.24500
3916666;-0.24000
3919443;-0.23500
3922221;-0.23000
3924999;-0.23000
3927777;-0.24000
3930554;-0.24500
3933332;-0.24000
3936110;-0.23500
3938888;-0.24000
3941666;-0.24500
3944443;-0.25000
3947221;-0.25500
3949999;-0.24000
3952777;-0.24000
3955554;-0.24500
3958332;-0.24000
3961110;-0.25000
3963888;-0.26000
3966666;-0.25500
3969443;-0.24000
3972221;-0.24000
3974999;-0.25500
3977777;-0.27500
3980554;-0.27000
3983332;-0.26000
3986110;-0.26500
3988888;-0.26500
3991666;-0.27500
3994443;-0.28500
3997221;-0.27500
3999999;-0.27000
4002777;-0.26500
4005554;-0.27000
4008332;-0.27500
4011110;-0.28000
4013888;-0.28500
4016666;-0.27500
4019443;-0.26500
4022221;-0.26500
4024999;-0.28000
4027777;-0.28000
4030554;-0.29500
4033332;-0.29500
4036110;-0.28500
4038888;-0.28000
4041666;-0.29500
4044443;-0.29000
4047221;-0.29500
4049999;-0.29500
4052777;-0.28000
4055554;-0.28500
4058332;-0.28500
4061110;-0.28500
4063888;-0.28500
4066666;-0.28000
4069443;-0.26500
4072221;-0.25500
4074999;-0.25500
4077777;-0.25500
4080554;-0.25000
4083332;-0.23000
4086110;-0.20500
4088888;-0.21000
4091666;-0.21000
4094443;-0.20500
4097221;-0.20500
4099999;-0.18000
4102777;-0.17000
4105554;-0.15500
4108332;-0.15000
4111110;-0.16000
4113888;-0.16000
4116666;-0.15000
4119443;-0.15000
4122221;-0.15000
4124999;-0.16000
4127777;-0.16000
4130554;-0.15500
4133332;-0.16000
4136110;-0.14500
4138888;-0.12500
4141666;-0.11000
4144443;-0.13000
4147221;-0.17000
4149999;-0.19500
4152777;-0.20500
4155554;-0.22500
4158332;-0.23000
4161110;-0.25500
4163888;-0.27500
4166666;-0.26500
4169443;-0.27500
4172221;-0.26500
4174999;-0.28000
4177777;-0.29000
4180554;-0.29000
4183332;-0.29000
4186110;-0.28000
4188888;-0.28000
4191665;-0.29500
4194443;-0.31000
4197221;-0.32000
4199999;-0.30000
4202777;-0.29500
4205554;-0.30500
4208332;-0.31000
4211110;-0.32500
4213888;-0.32500
4216665;-0.30500
4219443;-0.30500
4222221;-0.30500
4224999;-0.30500
4227777;-0.33000
4230554;-0.37500
4233332;-0.39500
4236110;-0.40500
4238888;-0.43500
4241665;-0.49000
4244443;-0.55500
4247221;-0.57000
4249999;-0.54000
4252777;-0.49500
4255554;-0.43000
4258332;-0.34500
4261110;-0.25000
4263888;-0.15000
4266665;0.00000
4269443;0.22500
4272221;0.50500
4274999;0.72500
4277777;0.84000
4280554;0.80500
4283332;0.58500
4286110;0.20500
4288888;-0.19500
4291665;-0.47000
4294443;-0.52500
4297221;-0.47000
4299999;-0.39500
4302777;-0.35500
4305554;-0.35500
4308332;-0.36500
4311110;-0.38000
4313888;-0.37500
4316665;-0.35500
4319443;-0.35500
4322221;-0.36000
4324999;-0.36500
4327777;-0.36500
4330554;-0.38000
4333332;-0.35500
4336110;-0.35500
4338888;-0.35000
4341665;-0.35000
4344443;-0.36000
4347221;-0.38000
4349999;-0.36500
4352777;-0.36000
4355554;-0.36000
4358332;-0.36500
4361110;-0.38500
4363888;-0.37500
4366665;-0.38000
4369443;-0.37500
4372221;-0.35000
4374999;-0.35500
4377777;-0.37500
4380554;-0.37000
4383332;-0.35500
4386110;-0.35500
4388888;-0.35000
4391665;-0.34500
4394443;-0.36000
4397221;-0.37500
4399999;-0.37000
4402777;-0.34500
4405554;-0.36000
4408332;-0.35500
4411110;-0.36000
4413888;-0.36500
4416665;-0.35500
4419443;-0.35500
4422221;-0.35500
4424999;-0.36000
4427777;-0.36500
4430554;-0.36000
4433332;-0.37000
4436110;-0.35500
4438888;-0.36000
4441665;-0.37500
4444443;-0.37000
4447221;-0.37500
4449999;-0.36000
4452777;-0.36000
4455554;-0.34500
4458332;-0.35000
4461110;-0.37500
4463888;-0.37000
4466665;-0.35500
4469443;-0.35000
4472221;-0.34500
4474999;-0.35500
4477777;-0.35500
4480554;-0.36000
4483332;-0.36000
4486110;-0.34500
4488888;-0.35000
4491665;-0.34500
4494443;-0.35000
4497221;-0.37000
4499999;-0.36500
4502777;-0.34500
4505554;-0.34000
4508332;-0.35000
4511110;-0.35500
4513888;-0.35000
4516665;-0.35000
4519443;-0.35000
4522221;-0.34500
4524999;-0.36500
4527777;-0.35000
4530554;-0.36000
4533332;-0.35500
4536110;-0.32500
4538888;-0.31500
4541665;-0.32000
4544443;-0.32000
4547221;-0.30500
4549999;-0.29000
4552777;-0.27000
4555554;-0.27000
4558332;-0.27000
4561110;-0.27000
4563888;-0.25500
4566665;-0.25000
4569443;-0.23500
4572221;-0.24000
4574999;-0.24500
4577776;-0.25000
4580554;-0.25000
4583332;-0.24000
4586110;-0.23000
4588888;-0.23000
4591665;-0.24500
4594443;-0.24000
4597221;-0.24000
4599999;-0.23000
4602776;-0.22000
4605554;-0.22000
4608332;-0.22500
4611110;-0.23500
4613888;-0.24500
4616665;-0.24000
4619443;-0.23000
4622221;-0.22500
4624999;-0.22000
4627776;-0.24000
4630554;-0.24000
4633332;-0.24000
4636110;-0.23000
4638888;-0.23000
4641665;-0.23500
4644443;-0.25000
4647221;-0.25500
4649999;-0.26000
4652776;-0.24500
4655554;-0.24000
4658332;-0.24000
4661110;-0.27000
4663888;-0.27500
4666665;-0.28500
4669443;-0.25500
4672221;-0.24500
4674999;-0.26500
4677776;-0.27000
4680554;-0.28500
4683332;-0.26500
4686110;-0.26000
4688888;-0.25000
4691665;-0.25000
4694443;-0.27000
4697221;-0.27500
4699999;-0.26500
4702776;-0.26500
4705554;-0.27000
4708332;-0.27000
4711110;-0.27000
4713888;-0.27500
4716665;-0.27000
4719443;-0.27500
4722221;-0.27500
4724999;-0.27500
4727776;-0.28000
4730554;-0.29000
4733332;-0.29000
4736110;-0.27500
4738888;-0.27000
4741665;-0.27500
4744443;-0.29000
4747221;-0.29500
4749999;-0.28500
4752776;-0.28000
4755554;-0.28000
4758332;-0.28000
4761110;-0.29000
4763888;-0.29500
4766665;-0.27500
4769443;-0.25000
4772221;-0.23500
4774999;-0.23000
4777776;-0.25500
4780554;-0.25000
4783332;-0.23000
4786110;-0.21000
4788888;-0.19000
4791665;-0.20000
4794443;-0.19500
4797221;-0.20500
4799999;-0.19000
4802776;-0.17000
4805554;-0.16000
4808332;-0.15500
4811110;-0.16500
4813888;-0.18000
4816665;-0.17500
4819443;-0.17000
4822221;-0.16000
4824999;-0.18500
4827776;-0.18000
4830554;-0.19000
4833332;-0.17000
4836110;-0.15000
4838888;-0.14500
4841665;-0.14000
4844443;-0.13500
4847221;-0.15500
4849999;-0.19000
4852776;-0.21000
4855554;-0.21500
4858332;-0.22500
4861110;-0.25500
4863888;-0.27500
4866665;-0.27000
4869443;-0.26500
4872221;-0.28500
4874999;-0.30500
4877776;-0.29000
4880554;-0.30500
4883332;-0.29500
4886110;-0.30500
4888888;-0.30000
4891665;-0.29500
4894443;-0.30500
4897221;-0.31000
4899999;-0.32000
4902776;-0.31000
4905554;-0.32500
4908332;-0.32500
4911110;-0.32500
4913888;-0.33500
4916665;-0.32500
4919443;-0.32000
4922221;-0.31500
4924999;-0.31000
4927776;-0.31500
4930554;-0.32000
4933332;-0.31000
4936110;-0.30500
4938888;-0.29500
4941665;-0.31000
4944443;-0.30000
4947221;-0.33000
4949999;-0.33000
4952776;-0.34500
4955554;-0.38000
4958332;-0.41500
4961110;-0.45500
4963887;-0.50500
4966665;-0.54000
4969443;-0.53500
4972221;-0.45500
4974999;-0.34500
4977776;-0.20000
4980554;-0.03000
4983332;0.20500
4986110;0.48000
4988887;0.70000
4991665;0.83500
4994443;0.82500
4997221;0.64500
4999999;0.29000
5002776;-0.09500
5005554;-0.35500
5008332;-0.49500
5011110;-0.52000
5013887;-0.46500
5016665;-0.42000
5019443;-0.37500
5022221;-0.38500
5024999;-0.39500
5027776;-0.38500
5030554;-0.39000
5033332;-0.37000
5036110;-0.36000
5038887;-0.36000
5041665;-0.37000
5044443;-0.38500
5047221;-0.38500
5049999;-0.38500
5052776;-0.39000
5055554;-0.38000
5058332;-0.38500
5061110;-0.39500
5063887;-0.40000
5066665;-0.37000
5069443;-0.37000
5072221;-0.37500
5074999;-0.37000
5077776;-0.37500
5080554;-0.38500
5083332;-0.38500
5086110;-0.37500
5088887;-0.38500
5091665;-0.38500
5094443;-0.39500
5097221;-0.40500
5099999;-0.39500
5102776;-0.39500
5105554;-0.39500
5108332;-0.40500
5111110;-0.39500
5113887;-0.42000
5116665;-0.39500
5119443;-0.38500
5122221;-0.39500
5124999;-0.41000
5127776;-0.41000
5130554;-0.42000
5133332;-0.41500
5136110;-0.39000
5138887;-0.39000
5141665;-0.39000
5144443;-0.39500
5147221;-0.39500
5149999;-0.38500
5152776;-0.38500
5155554;-0.39500
5158332;-0.40500
5161110;-0.41000
5163887;-0.41500
5166665;-0.39500
5169443;-0.39500
5172221;-0.39500
5174999;-0.38500
5177776;-0.39500
5180554;-0.39000
5183332;-0.39000
5186110;-0.39000
5188887;-0.39000
5191665;-0.38500
5194443;-0.39000
5197221;-0.40000
5199999;-0.39500
5202776;-0.39000
5205554;-0.38500
5208332;-0.40000
5211110;-0.39000
5213887;-0.40000
5216665;-0.39500
5219443;-0.39500
5222221;-0.39000
5224999;-0.40000
5227776;-0.41500
5230554;-0.42000
5233332;-0.42000
5236110;-0.42000
5238887;-0.42500
5241665;-0.43000
5244443;-0.43500
5247221;-0.44000
5249999;-0.42500
5252776;-0.42000
5255554;-0.42000
5258332;-0.42500
5261110;-0.43500
5263887;-0.44000
5266665;-0.39500
5269443;-0.38000
5272221;-0.36500
5274999;-0.35500
5277776;-0.36000
5280554;-0.35000
5283332;-0.34500
5286110;-0.33000
5288887;-0.32000
5291665;-0.31500
5294443;-0.31500
5297221;-0.31500
5299999;-0.30000
5302776;-0.28000
5305554;-0.28500
5308332;-0.29000
5311110;-0.28500
5313887;-0.29500
5316665;-0.27000
5319443;-0.27000
5322221;-0.25500
5324999;-0.26000
5327776;-0.26500
5330554;-0.27000
5333332;-0.27000
5336110;-0.27000
5338887;-0.26000
5341665;-0.26500
5344443;-0.27500
5347221;-0.28500
5349999;-0.27000
5352776;-0.26500
5355554;-0.26000
5358332;-0.26000
5361110;-0.26500
5363887;-0.27500
5366665;-0.26500
5369443;-0.26000
5372221;-0.26000
5374998;-0.27000
5377776;-0.27500
5380554;-0.28500
5383332;-0.28000
5386110;-0.27000
5388887;-0.27500
5391665;-0.27500
5394443;-0.27500
5397221;-0.29500
5399998;-0.28000
5402776;-0.28000
5405554;-0.29500
5408332;-0.29500
5411110;-0.30500
5413887;-0.31000
5416665;-0.31000
5419443;-0.29500
5422221;-0.29500
5424998;-0.31000
5427776;-0.32000
5430554;-0.32000
5433332;-0.31000
5436110;-0.30500
5438887;-0.31000
5441665;-0.33500
5444443;-0.33000
5447221;-0.33000
5449998;-0.32000
5452776;-0.31000
5455554;-0.31500
5458332;-0.32500
5461110;-0.33500
5463887;-0.34000
5466665;-0.33500
5469443;-0.33000
5472221;-0.33500
5474998;-0.33000
5477776;-0.33000
5480554;-0.34000
5483332;-0.33000
5486110;-0.33500
5488887;-0.33500
5491665;-0.33500
5494443;-0.34500
5497221;-0.35000
5499998;-0.34500
5502776;-0.33000
5505554;-0.33000
5508332;-0.33000
5511110;-0.34000
5513887;-0.35500
5516665;-0.33500
5519443;-0.33000
5522221;-0.32000
5524998;-0.31500
5527776;-0.30500
5530554;-0.31000
5533332;-0.29500
5536110;-0.27500
5538887;-0.27000
5541665;-0.27000
5544443;-0.26000
5547221;-0.27000
5549998;-0.26000
5552776;-0.24500
5555554;-0.24500
5558332;-0.23000
5561110;-0.23000
5563887;-0.24500
5566665;-0.23500
5569443;-0.21000
5572221;-0.21000
5574998;-0.21500
5577776;-0.21500
5580554;-0.23500
5583332;-0.24000
5586110;-0.23000
5588887;-0.21000
5591665;-0.22000
5594443;-0.22500
5597221;-0.22000
5599998;-0.22500
5602776;-0.21000
5605554;-0.18500
5608332;-0.17000
5611110;-0.17000
5613887;-0.19000
5616665;-0.20500
5619443;-0.23000
5622221;-0.24500
5624998;-0.27000
5627776;-0.27000
5630554;-0.28500
5633332;-0.30000
5636110;-0.30000
5638887;-0.32000
5641665;-0.33000
5644443;-0.33500
5647221;-0.35000
5649998;-0.35000
5652776;-0.34000
5655554;-0.33000
5658332;-0.34000
5661110;-0.36000
5663887;-0.36500
5666665;-0.36500
5669443;-0.35500
5672221;-0.36000
5674998;-0.36000
5677776;-0.37000
5680554;-0.36000
5683332;-0.35000
5686110;-0.35000
5688887;-0.35000
5691665;-0.35500
5694443;-0.34500
5697221;-0.35000
5699998;-0.36000
5702776;-0.36000
5705554;-0.35000
5708332;-0.35000
5711110;-0.39000
5713887;-0.43500
5716665;-0.46000
5719443;-0.47000
5722221;-0.49500
5724998;-0.53000
5727776;-0.54500
5730554;-0.50000
5733332;-0.39500
5736110;-0.27000
5738887;-0.16000
5741665;-0.03000
5744443;0.11500
5747221;0.30500
5749998;0.50000
5752776;0.66500
5755554;0.79000
5758332;0.85500
5761109;0.93000
5763887;0.90000
5766665;0.72000
5769443;0.39000
5772221;-0.01500
5774998;-0.33500
5777776;-0.49000
5780554;-0.53000
5783332;-0.49500
5786109;-0.44500
5788887;-0.40500
5791665;-0.39500
5794443;-0.41500
5797221;-0.42500
5799998;-0.41000
5802776;-0.39500
5805554;-0.41000
5808332;-0.40500
5811109;-0.41500
5813887;-0.42500
5816665;-0.42500
5819443;-0.41500
5822221;-0.40500
5824998;-0.41000
5827776;-0.42500
5830554;-0.42500
5833332;-0.42500
5836109;-0.41500
5838887;-0.41500
5841665;-0.41500
5844443;-0.42000
5847221;-0.43000
5849998;-0.42000
5852776;-0.42000
5855554;-0.42000
5858332;-0.42500
5861109;-0.43500
5863887;-0.44000
5866665;-0.43500
5869443;-0.42000
5872221;-0.42000
5874998;-0.43500
5877776;-0.43500
5880554;-0.43500
5883332;-0.44000
5886109;-0.43000
5888887;-0.41500
5891665;-0.41500
5894443;-0.43000
5897221;-0.45000
5899998;-0.43500
5902776;-0.42500
5905554;-0.42500
5908332;-0.43000
5911109;-0.43000
5913887;-0.43500
5916665;-0.42500
5919443;-0.42500
5922221;-0.42500
5924998;-0.42500
5927776;-0.44000
5930554;-0.44000
5933332;-0.43000
5936109;-0.41500
5938887;-0.42000
5941665;-0.42500
5944443;-0.44000
5947221;-0.44000
5949998;-0.44000
5952776;-0.44500
5955554;-0.43000
5958332;-0.43000
5961109;-0.42000
5963887;-0.44000
5966665;-0.43000
5969443;-0.42500
5972221;-0.42500
5974998;-0.41500
5977776;-0.43000
5980554;-0.43000
5983332;-0.44000
5986109;-0.43500
5988887;-0.42000
5991665;-0.43500
5994443;-0.45500
5997221;-0.45500
5999998;-0.46500
6002776;-0.45500
6005554;-0.45000
6008332;-0.45500
6011109;-0.45500
6013887;-0.46000
6016665;-0.45500
6019443;-0.44500
6022221;-0.44000
6024998;-0.43500
6027776;-0.44500
6030554;-0.44500
6033332;-0.43500
6036109;-0.41500
6038887;-0.40000
6041665;-0.39500
6044443;-0.39500
6047221;-0.38500
6049998;-0.36500
6052776;-0.34500
6055554;-0.33500
6058332;-0.33000
6061109;-0.33000
6063887;-0.33000
6066665;-0.31500
6069443;-0.30000
6072221;-0.29500
6074998;-0.29500
6077776;-0.32000
6080554;-0.31000
6083332;-0.30000
6086109;-0.29000
6088887;-0.27500
6091665;-0.28000
6094443;-0.28500
6097221;-0.29000
6099998;-0.29000
6102776;-0.27500
6105554;-0.27500
6108332;-0.28500
6111109;-0.29500
6113887;-0.30500
6116665;-0.30000
6119443;-0.29500
6122221;-0.28000
6124998;-0.29500
6127776;-0.29000
6130554;-0.30000
6133332;-0.29500
6136109;-0.29000
6138887;-0.27500
6141665;-0.27000
6144443;-0.28500
6147221;-0.29500
6149998;-0.28000
6152776;-0.28000
6155554;-0.28500
6158332;-0.29000
6161109;-0.30000
6163887;-0.32000
6166665;-0.31000
6169443;-0.30000
6172220;-0.29500
6174998;-0.30000
6177776;-0.31500
6180554;-0.32000
6183332;-0.32000
6186109;-0.31000
6188887;-0.30500
6191665;-0.30000
6194443;-0.31500
6197220;-0.33000
6199998;-0.32500
6202776;-0.31000
6205554;-0.31500
6208332;-0.32000
6211109;-0.33000
6213887;-0.33500
6216665;-0.33000
6219443;-0.33000
6222220;-0.32000
6224998;-0.33000
6227776;-0.34500
6230554;-0.35500
6233332;-0.34500
6236109;-0.35000
6238887;-0.34500
6241665;-0.34000
6244443;-0.36000
6247220;-0.35500
6249998;-0.35500
6252776;-0.33500
6255554;-0.33500
6258332;-0.35000
6261109;-0.34000
6263887;-0.35000
6266665;-0.34000
6269443;-0.33000
6272220;-0.32000
6274998;-0.30500
6277776;-0.31500
6280554;-0.31000
6283332;-0.29000
6286109;-0.29000
6288887;-0.28000
6291665;-0.27000
6294443;-0.27500
6297220;-0.28000
6299998;-0.27000
6302776;-0.26000
6305554;-0.24500
6308332;-0.24500
6311109;-0.24500
6313887;-0.24500
6316665;-0.22500
6319443;-0.22000
6322220;-0.22000
6324998;-0.23000
6327776;-0.24500
6330554;-0.25000
6333332;-0.23500
6336109;-0.23000
6338887;-0.22500
6341665;-0.22500
6344443;-0.23500
6347220;-0.25000
6349998;-0.24500
6352776;-0.23000
6355554;-0.22000
6358332;-0.21500
6361109;-0.19500
6363887;-0.18500
6366665;-0.19000
6369443;-0.22000
6372220;-0.24500
6374998;-0.26500
6377776;-0.29000
6380554;-0.30500
6383332;-0.31000
6386109;-0.32000
6388887;-0.32500
6391665;-0.33000
6394443;-0.35000
6397220;-0.36500
6399998;-0.36000
6402776;-0.35500
6405554;-0.34500
6408332;-0.35000
6411109;-0.36500
6413887;-0.37500
6416665;-0.36500
6419443;-0.36500
6422220;-0.35500
6424998;-0.36000
6427776;-0.37000
6430554;-0.38500
6433332;-0.38000
6436109;-0.37000
6438887;-0.36000
6441665;-0.36500
6444443;-0.36500
6447220;-0.38500
6449998;-0.38000
6452776;-0.37500
6455554;-0.38000
6458332;-0.38500
6461109;-0.40500
6463887;-0.44000
6466665;-0.47500
6469443;-0.48500
6472220;-0.49500
6474998;-0.53500
6477776;-0.58000
6480554;-0.58000
6483332;-0.50500
6486109;-0.38500
6488887;-0.25000
6491665;-0.11500
6494443;0.08500
6497220;0.31000
6499998;0.57000
6502776;0.74500
6505554;0.83000
6508332;0.79500
6511109;0.59500
6513887;0.22500
6516665;-0.16000
6519443;-0.44000
6522220;-0.55000
6524998;-0.55500
6527776;-0.51500
6530554;-0.47500
6533332;-0.43500
6536109;-0.43000
6538887;-0.43000
6541665;-0.43000
6544443;-0.43000
6547220;-0.44000
6549998;-0.43000
6552776;-0.41500
6555554;-0.41500
6558331;-0.42000
6561109;-0.42000
6563887;-0.45000
6566665;-0.44500
6569443;-0.42000
6572220;-0.42000
6574998;-0.43000
6577776;-0.44000
6580554;-0.43000
6583331;-0.44000
6586109;-0.43000
6588887;-0.43000
6591665;-0.43500
6594443;-0.44500
6597220;-0.45000
6599998;-0.45000
6602776;-0.44000
6605554;-0.43500
6608331;-0.43500
6611109;-0.44500
6613887;-0.44500
6616665;-0.44500
6619443;-0.43500
6622220;-0.43500
6624998;-0.43000
6627776;-0.44000
6630554;-0.44000
6633331;-0.43500
6636109;-0.43000
6638887;-0.42000
6641665;-0.41500
6644443;-0.43500
6647220;-0.43500
6649998;-0.43000
6652776;-0.43000
6655554;-0.41000
6658331;-0.41500
6661109;-0.43000
6663887;-0.43500
6666665;-0.44500
6669443;-0.43500
6672220;-0.42500
6674998;-0.44500
6677776;-0.44000
6680554;-0.44500
6683331;-0.44000
6686109;-0.44500
6688887;-0.42500
6691665;-0.43500
6694443;-0.43000
6697220;-0.43500
6699998;-0.43000
6702776;-0.42500
6705554;-0.41500
6708331;-0.41500
6711109;-0.43000
6713887;-0.43500
6716665;-0.43000
6719443;-0.40500
6722220;-0.41500
6724998;-0.41500
6727776;-0.43000
6730554;-0.42500
6733331;-0.43000
6736109;-0.42500
6738887;-0.43000
6741665;-0.44000
6744443;-0.45000
6747220;-0.45000
6749998;-0.45000
6752776;-0.43000
6755554;-0.43000
6758331;-0.43000
6761109;-0.43000
6763887;-0.43500
6766665;-0.44000
6769443;-0.43000
6772220;-0.41500
6774998;-0.42000
6777776;-0.42500
6780554;-0.43000
6783331;-0.42500
6786109;-0.41500
6788887;-0.40500
6791665;-0.40000
6794443;-0.40500
6797220;-0.40500
6799998;-0.40000
6802776;-0.37500
6805554;-0.36500
6808331;-0.35500
6811109;-0.34500
6813887;-0.35000
6816665;-0.35500
6819443;-0.35000
6822220;-0.32500
6824998;-0.32000
6827776;-0.32500
6830554;-0.33000
6833331;-0.32500
6836109;-0.30000
6838887;-0.29500
6841665;-0.30500
6844443;-0.30500
6847220;-0.31500
6849998;-0.30500
6852776;-0.30500
6855554;-0.28500
6858331;-0.29500
6861109;-0.31000
6863887;-0.31000
6866665;-0.30500
6869443;-0.30000
6872220;-0.29000
6874998;-0.30500
6877776;-0.30500
6880554;-0.32000
6883331;-0.31000
6886109;-0.32000
6888887;-0.31000
6891665;-0.32500
6894443;-0.33000
6897220;-0.34000
6899998;-0.33500
6902776;-0.32000
6905554;-0.32000
6908331;-0.31500
6911109;-0.33000
6913887;-0.33000
6916665;-0.33000
6919443;-0.33000
6922220;-0.32000
6924998;-0.32000
6927776;-0.34000
6930554;-0.35000
6933331;-0.35000
6936109;-0.33500
6938887;-0.32000
6941665;-0.34500
6944442;-0.35000
6947220;-0.35000
6949998;-0.35000
6952776;-0.35500
6955554;-0.35000
6958331;-0.34500
6961109;-0.35500
6963887;-0.35000
6966665;-0.35000
6969442;-0.34500
6972220;-0.32500
6974998;-0.34000
6977776;-0.34500
6980554;-0.36500
6983331;-0.36000
6986109;-0.34000
6988887;-0.34500
6991665;-0.35500
6994442;-0.35000
6997220;-0.37000
6999998;-0.36000
7002776;-0.34500
7005554;-0.35500
7008331;-0.35000
7011109;-0.37000
7013887;-0.37500
7016665;-0.36500
7019442;-0.35500
7022220;-0.35000
7024998;-0.34500
7027776;-0.35500
7030554;-0.35500
7033331;-0.34000
7036109;-0.32000
7038887;-0.31500
7041665;-0.30500
7044442;-0.31000
7047220;-0.31000
7049998;-0.29500
7052776;-0.27500
7055554;-0.26000
7058331;-0.26500
7061109;-0.26000
7063887;-0.27000
7066665;-0.25500
7069442;-0.24500
7072220;-0.23000
7074998;-0.23500
7077776;-0.24000
7080554;-0.25000
7083331;-0.24500
7086109;-0.23500
7088887;-0.25000
7091665;-0.24500
7094442;-0.24000
7097220;-0.25500
7099998;-0.23500
7102776;-0.23000
7105554;-0.22500
7108331;-0.20000
7111109;-0.19500
7113887;-0.22000
7116665;-0.25000
7119442;-0.28000
7122220;-0.28000
7124998;-0.29500
7127776;-0.33000
7130554;-0.33500
7133331;-0.34500
7136109;-0.35000
7138887;-0.35500
7141665;-0.36500
7144442;-0.39000
7147220;-0.40000
7149998;-0.38500
7152776;-0.37500
7155554;-0.37500
7158331;-0.37000
7161109;-0.37500
7163887;-0.39500
7166665;-0.39000
7169442;-0.38000
7172220;-0.37000
7174998;-0.38000
7177776;-0.38500
7180554;-0.39500
7183331;-0.39500
7186109;-0.39000
7188887;-0.39000
7191665;-0.39000
7194442;-0.38500
7197220;-0.39500
7199998;-0.39000
7202776;-0.39500
7205554;-0.37500
7208331;-0.38500
7211109;-0.41000
7213887;-0.44500
7216665;-0.48500
7219442;-0.49500
7222220;-0.51500
7224998;-0.56000
7227776;-0.60000
7230554;-0.58000
7233331;-0.49500
7236109;-0.36500
7238887;-0.22500
7241665;-0.05000
7244442;0.18000
7247220;0.43500
7249998;0.66500
7252776;0.76000
7255554;0.74000
7258331;0.52000
7261109;0.16500
7263887;-0.22000
7266665;-0.48500
7269442;-0.57500
7272220;-0.55500
7274998;-0.49000
7277776;-0.45500
7280554;-0.45000
7283331;-0.45500
7286109;-0.45000
7288887;-0.43500
7291665;-0.44000
7294442;-0.44500
7297220;-0.44500
7299998;-0.45500
7302776;-0.44500
7305554;-0.43000
7308331;-0.44000
7311109;-0.45500
7313887;-0.46000
7316665;-0.46000
7319442;-0.45500
7322220;-0.45000
7324998;-0.44500
7327776;-0.45500
7330554;-0.47500
7333331;-0.47000
7336109;-0.46000
7338887;-0.45000
7341665;-0.45500
7344442;-0.45000
7347220;-0.46500
7349998;-0.45000
7352776;-0.45000
7355553;-0.44500
7358331;-0.45500
7361109;-0.45500
7363887;-0.46000
7366665;-0.45500
7369442;-0.45500
7372220;-0.44500
7374998;-0.44000
7377776;-0.45000
7380553;-0.46000
7383331;-0.45500
7386109;-0.45000
7388887;-0.45000
7391665;-0.45000
7394442;-0.45500
7397220;-0.47000
7399998;-0.46500
7402776;-0.46000
7405553;-0.45500
7408331;-0.45000
7411109;-0.46000
7413887;-0.46500
7416665;-0.46000
7419442;-0.45000
7422220;-0.44500
7424998;-0.45000
7427776;-0.44500
7430553;-0.45500
7433331;-0.44500
7436109;-0.44000
7438887;-0.44000
7441665;-0.44000
7444442;-0.44000
7447220;-0.45000
7449998;-0.46000
7452776;-0.44500
7455553;-0.44000
7458331;-0.45000
7461109;-0.45000
7463887;-0.45500
7466665;-0.46500
7469442;-0.44500
7472220;-0.43500
7474998;-0.43500
7477776;-0.43500
7480553;-0.45500
7483331;-0.45000
7486109;-0.44000
7488887;-0.43500
7491665;-0.45000
7494442;-0.45000
7497220;-0.45500
7499998;-0.46000
7502776;-0.44500
7505553;-0.44000
7508331;-0.44500
7511109;-0.45000
7513887;-0.45000
7516665;-0.46000
7519442;-0.44500
7522220;-0.43000
7524998;-0.42000
7527776;-0.42500
7530553;-0.44000
7533331;-0.43000
7536109;-0.41000
7538887;-0.40000
7541665;-0.39500
7544442;-0.39500
7547220;-0.40500
7549998;-0.38500
7552776;-0.37500
7555553;-0.35500
7558331;-0.34500
7561109;-0.35000
7563887;-0.36500
7566665;-0.35000
7569442;-0.33500
7572220;-0.31500
7574998;-0.33000
7577776;-0.32500
7580553;-0.33000
7583331;-0.32500
7586109;-0.31500
7588887;-0.30000
7591665;-0.31000
7594442;-0.32000
7597220;-0.33000
7599998;-0.33000
7602776;-0.32000
7605553;-0.31500
7608331;-0.31500
7611109;-0.32000
7613887;-0.33000
7616665;-0.32500
7619442;-0.32500
7622220;-0.31500
7624998;-0.32000
7627776;-0.33000
7630553;-0.33000
7633331;-0.35000
7636109;-0.32500
7638887;-0.32000
7641665;-0.32000
7644442;-0.32500
7647220;-0.33500
7649998;-0.34000
7652776;-0.34000
7655553;-0.32500
7658331;-0.32500
7661109;-0.33000
7663887;-0.34500
7666665;-0.34500
7669442;-0.33500
7672220;-0.33000
7674998;-0.34000
7677776;-0.34000
7680553;-0.36500
7683331;-0.36000
7686109;-0.36000
7688887;-0.34000
7691665;-0.36500
7694442;-0.37500
7697220;-0.37500
7699998;-0.36000
7702776;-0.36000
7705553;-0.36000
7708331;-0.36000
7711109;-0.36000
7713887;-0.36500
7716665;-0.36500
7719442;-0.35500
7722220;-0.35000
7724998;-0.35000
7727776;-0.36000
7730553;-0.36500
7733331;-0.37000
7736109;-0.35000
7738887;-0.36000
7741664;-0.36000
7744442;-0.36500
7747220;-0.37500
7749998;-0.38500
7752776;-0.37500
7755553;-0.36500
7758331;-0.36500
7761109;-0.37000
7763887;-0.38000
7766664;-0.37000
7769442;-0.35000
7772220;-0.34000
7774998;-0.35000
7777776;-0.36000
7780553;-0.36000
7783331;-0.36000
7786109;-0.34000
7788887;-0.32000
7791664;-0.30500
7794442;-0.31000
7797220;-0.32000
7799998;-0.31500
7802776;-0.28000
7805553;-0.28000
7808331;-0.26000
7811109;-0.27000
7813887;-0.28000
7816664;-0.26500
7819442;-0.26000
7822220;-0.24000
7824998;-0.24000
7827776;-0.23500
7830553;-0.24500
7833331;-0.24000
7836109;-0.23500
7838887;-0.23500
7841664;-0.24000
7844442;-0.25500
7847220;-0.26000
7849998;-0.24500
7852776;-0.23500
7855553;-0.22500
7858331;-0.21500
7861109;-0.20500
7863887;-0.19500
7866664;-0.21500
7869442;-0.23500
7872220;-0.27500
7874998;-0.28000
7877776;-0.30500
7880553;-0.31500
7883331;-0.32500
7886109;-0.34000
7888887;-0.35000
7891664;-0.36500
7894442;-0.37500
7897220;-0.38000
7899998;-0.37000
7902776;-0.36000
7905553;-0.35000
7908331;-0.36500
7911109;-0.36500
7913887;-0.38500
7916664;-0.39000
7919442;-0.38000
7922220;-0.36500
7924998;-0.36000
7927776;-0.37000
7930553;-0.37500
7933331;-0.38000
7936109;-0.37500
7938887;-0.37500
7941664;-0.37500
7944442;-0.38000
7947220;-0.38500
7949998;-0.38000
7952776;-0.37500
7955553;-0.37000
7958331;-0.37000
7961109;-0.38500
7963887;-0.39500
7966664;-0.41500
7969442;-0.44000
7972220;-0.47500
7974998;-0.50000
7977776;-0.53000
7980553;-0.58500
7983331;-0.59500
7986109;-0.54000
7988887;-0.42000
7991664;-0.28500
7994442;-0.15000
7997220;0.05500
7999998;0.33500
8002776;0.60000
8005553;0.75500
8008331;0.78500
8011109;0.68000
8013887;0.37000
8016664;-0.00500
8019442;-0.35000
8022220;-0.50500
8024998;-0.55500
8027776;-0.53000
8030553;-0.48000
8033331;-0.43000
8036109;-0.42500
8038887;-0.41500
8041664;-0.42500
8044442;-0.42000
8047220;-0.43000
8049998;-0.42000
8052776;-0.42500
8055553;-0.42500
8058331;-0.43000
8061109;-0.43500
8063887;-0.45500
8066664;-0.45500
8069442;-0.44500
8072220;-0.43500
8074998;-0.44000
8077776;-0.43000
8080553;-0.44000
8083331;-0.42500
8086109;-0.42500
8088887;-0.41000
8091664;-0.42000
8094442;-0.44000
8097220;-0.43000
8099998;-0.44500
8102776;-0.42500
8105553;-0.42000
8108331;-0.42000
8111109;-0.43000
8113887;-0.44000
8116664;-0.42500
8119442;-0.43000
8122220;-0.42500
8124998;-0.42500
8127776;-0.43000
8130553;-0.44500
8133331;-0.42500
8136109;-0.42500
8138887;-0.41500
8141664;-0.42000
8144442;-0.42000
8147220;-0.44000
8149998;-0.44500
8152775;-0.43000
8155553;-0.42000
8158331;-0.42500
8161109;-0.44000
8163887;-0.44500
8166664;-0.44000
8169442;-0.44500
8172220;-0.43500
8174998;-0.42500
8177775;-0.42500
8180553;-0.43000
8183331;-0.43000
8186109;-0.41000
8188887;-0.41000
8191664;-0.40500
8194442;-0.40500
8197220;-0.43500
8199998;-0.42500
8202775;-0.42500
8205553;-0.41500
8208331;-0.42000
8211109;-0.43500
8213887;-0.45000
8216664;-0.45000
8219442;-0.43500
8222220;-0.42000
8224998;-0.41000
8227775;-0.42500
8230553;-0.43500
8233331;-0.43500
8236109;-0.43000
8238887;-0.42500
8241664;-0.44500
8244442;-0.44000
8247220;-0.45500
8249998;-0.44500
8252775;-0.43500
8255553;-0.43000
8258331;-0.42000
8261109;-0.42500
8263887;-0.44000
8266664;-0.44500
8269442;-0.43500
8272220;-0.41500
8274998;-0.42000
8277775;-0.42000
8280553;-0.42000
8283331;-0.42000
8286109;-0.41500
8288887;-0.39500
8291664;-0.40000
8294442;-0.39500
8297220;-0.39000
8299998;-0.37500
8302775;-0.35000
8305553;-0.34500
8308331;-0.33000
8311109;-0.32500
8313887;-0.32000
8316664;-0.33000
8319442;-0.32000
8322220;-0.31500
8324998;-0.31000
8327775;-0.30500
8330553;-0.32000
8333331;-0.31000
8336109;-0.29500
8338887;-0.27500
8341664;-0.28500
8344442;-0.29000
8347220;-0.30000
8349998;-0.29500
8352775;-0.29000
8355553;-0.28500
8358331;-0.28500
8361109;-0.30500
8363887;-0.31500
8366664;-0.31000
8369442;-0.30500
8372220;-0.30000
8374998;-0.29500
8377775;-0.30000
8380553;-0.32000
8383331;-0.32500
8386109;-0.31500
8388887;-0.30000
8391664;-0.31500
8394442;-0.31000
8397220;-0.31000
8399998;-0.31500
8402775;-0.30500
8405553;-0.30500
8408331;-0.30000
8411109;-0.31000
8413887;-0.32500
8416664;-0.31000
8419442;-0.30500
8422220;-0.30500
8424998;-0.30000
8427775;-0.32500
8430553;-0.33500
8433331;-0.33500
8436109;-0.32000
8438887;-0.31500
8441664;-0.32500
8444442;-0.34000
8447220;-0.35000
8449998;-0.34500
8452775;-0.33500
8455553;-0.32500
8458331;-0.33000
8461109;-0.35000
8463887;-0.36500
8466664;-0.35500
8469442;-0.35000
8472220;-0.35000
8474998;-0.35500
8477775;-0.36000
8480553;-0.37000
8483331;-0.35000
8486109;-0.34000
8488887;-0.32500
8491664;-0.34000
8494442;-0.35000
8497220;-0.35500
8499998;-0.35000
8502775;-0.35000
8505553;-0.34000
8508331;-0.33500
8511109;-0.34500
8513887;-0.35000
8516664;-0.35000
8519442;-0.35000
8522220;-0.34000
8524998;-0.34000
8527775;-0.35500
8530553;-0.36500
8533331;-0.36500
8536109;-0.34000
8538886;-0.33000
8541664;-0.32500
8544442;-0.31500
8547220;-0.32500
8549998;-0.31000
8552775;-0.30000
8555553;-0.28000
8558331;-0.27500
8561109;-0.30000
8563886;-0.29500
8566664;-0.29500
8569442;-0.26500
8572220;-0.24500
8574998;-0.24000
8577775;-0.24000
8580553;-0.24000
8583331;-0.23500
8586109;-0.23000
8588886;-0.22500
8591664;-0.21500
8594442;-0.23000
8597220;-0.25000
8599998;-0.24500
8602775;-0.24000
8605553;-0.22500
8608331;-0.22500
8611109;-0.22500
8613886;-0.23000
8616664;-0.21500
8619442;-0.20000
8622220;-0.19500
8624998;-0.23000
8627775;-0.27500
8630553;-0.29000
8633331;-0.30500
8636109;-0.31000
8638886;-0.31500
8641664;-0.32500
8644442;-0.34000
8647220;-0.34000
8649998;-0.35500
8652775;-0.35000
8655553;-0.34500
8658331;-0.35000
8661109;-0.35000
8663886;-0.37000
8666664;-0.36500
8669442;-0.37000
8672220;-0.37000
8674998;-0.36000
8677775;-0.37500
8680553;-0.38500
8683331;-0.37000
8686109;-0.36500
8688886;-0.36000
8691664;-0.37000
8694442;-0.36500
8697220;-0.37500
8699998;-0.37000
8702775;-0.37000
8705553;-0.38000
8708331;-0.40000
8711109;-0.44000
8713886;-0.47000
8716664;-0.46500
8719442;-0.46500
8722220;-0.47500
8724998;-0.52000
8727775;-0.59500
8730553;-0.61000
8733331;-0.57500
8736109;-0.49500
8738886;-0.39000
8741664;-0.25500
8744442;-0.09500
8747220;0.12000
8749998;0.40500
8752775;0.66500
8755553;0.81500
8758331;0.85000
8761109;0.68000
8763886;0.28000
8766664;-0.15000
8769442;-0.42000
8772220;-0.51500
8774998;-0.50500
8777775;-0.45500
8780553;-0.41500
8783331;-0.40000
8786109;-0.39000
8788886;-0.38500
8791664;-0.39500
8794442;-0.39000
8797220;-0.40500
8799998;-0.40500
8802775;-0.40000
8805553;-0.39500
8808331;-0.39000
8811109;-0.40000
8813886;-0.40000
8816664;-0.40500
8819442;-0.40500
8822220;-0.38500
8824998;-0.40000
8827775;-0.41000
8830553;-0.42000
8833331;-0.41500
8836109;-0.40500
8838886;-0.39000
8841664;-0.40000
8844442;-0.40000
8847220;-0.40000
8849998;-0.40000
8852775;-0.38500
8855553;-0.38500
8858331;-0.39000
8861109;-0.39500
8863886;-0.41500
8866664;-0.41000
8869442;-0.40500
8872220;-0.39000
8874998;-0.38500
8877775;-0.38500
8880553;-0.40000
8883331;-0.39500
8886109;-0.39500
8888886;-0.39000
8891664;-0.39500
8894442;-0.38000
8897220;-0.40000
8899998;-0.39000
8902775;-0.38500
8905553;-0.37500
8908331;-0.38000
8911109;-0.38000
8913886;-0.39500
8916664;-0.38500
8919442;-0.38500
8922220;-0.37000
8924998;-0.38500
8927775;-0.39000
8930553;-0.40000
8933331;-0.40000
8936109;-0.39500
8938886;-0.39500
8941664;-0.38500
8944442;-0.40000
8947220;-0.40500
8949997;-0.39500
8952775;-0.40000
8955553;-0.39000
8958331;-0.39000
8961109;-0.40000
8963886;-0.42000
8966664;-0.43000
8969442;-0.42000
8972220;-0.42000
8974997;-0.40500
8977775;-0.41500
8980553;-0.42000
8983331;-0.41500
8986109;-0.41500
8988886;-0.40000
8991664;-0.40500
8994442;-0.40500
8997220;-0.41000
8999997;-0.40000
9002775;-0.38500
9005553;-0.36500
9008331;-0.36500
9011109;-0.36500
9013886;-0.35500
9016664;-0.34500
9019442;-0.33500
9022220;-0.32000
9024997;-0.31500
9027775;-0.30500
9030553;-0.31000
9033331;-0.30500
9036109;-0.28000
9038886;-0.27500
9041664;-0.27000
9044442;-0.26000
9047220;-0.27000
9049997;-0.25500
9052775;-0.25000
9055553;-0.23500
9058331;-0.22500
9061109;-0.23000
9063886;-0.24000
9066664;-0.23000
9069442;-0.22000
9072220;-0.22000
9074997;-0.22500
9077775;-0.23000
9080553;-0.24500
9083331;-0.22500
9086109;-0.23000
9088886;-0.21000
9091664;-0.22000
9094442;-0.23000
9097220;-0.23500
9099997;-0.23500
9102775;-0.23000
9105553;-0.22500
9108331;-0.22000
9111109;-0.23000
9113886;-0.23500
9116664;-0.23500
9119442;-0.24000
9122220;-0.22000
9124997;-0.23000
9127775;-0.24000
9130553;-0.24500
9133331;-0.25000
9136109;-0.24500
9138886;-0.23000
9141664;-0.23500
9144442;-0.24500
9147220;-0.24000
9149997;-0.25000
9152775;-0.24500
9155553;-0.24000
9158331;-0.24000
9161109;-0.24500
9163886;-0.25500
9166664;-0.26500
9169442;-0.25500
9172220;-0.24000
9174997;-0.24500
9177775;-0.25000
9180553;-0.26000
9183331;-0.26000
9186109;-0.26000
9188886;-0.25000
9191664;-0.25500
9194442;-0.25500
9197220;-0.27000
9199997;-0.26000
9202775;-0.25500
9205553;-0.24500
9208331;-0.25500
9211109;-0.25000
9213886;-0.27000
9216664;-0.26500
9219442;-0.25500
9222220;-0.25000
9224997;-0.25500
9227775;-0.26500
9230553;-0.27500
9233331;-0.28000
9236109;-0.27000
9238886;-0.25500
9241664;-0.25500
9244442;-0.26500
9247220;-0.27000
9249997;-0.28500
9252775;-0.28000
9255553;-0.26500
9258331;-0.25500
9261109;-0.25500
9263886;-0.25000
9266664;-0.23000
9269442;-0.22000
9272220;-0.19500
9274997;-0.20000
9277775;-0.20000
9280553;-0.20000
9283331;-0.20000
9286109;-0.18500
9288886;-0.17000
9291664;-0.16000
9294442;-0.15500
9297220;-0.15000
9299997;-0.14500
9302775;-0.13000
9305553;-0.12000
9308331;-0.12000
9311109;-0.13000
9313886;-0.15000
9316664;-0.15000
9319442;-0.16000
9322220;-0.15500
9324997;-0.16000
9327775;-0.17500
9330553;-0.17500
9333331;-0.15000
9336108;-0.15000
9338886;-0.14500
9341664;-0.13500
9344442;-0.13000
9347220;-0.11000
9349997;-0.13500
9352775;-0.16000
9355553;-0.18500
9358331;-0.19500
9361108;-0.22000
9363886;-0.23000
9366664;-0.24500
9369442;-0.26000
9372220;-0.25500
9374997;-0.26500
9377775;-0.27000
9380553;-0.27000
9383331;-0.28000
9386108;-0.26500
9388886;-0.27000
9391664;-0.28000
9394442;-0.29000
9397220;-0.29500
9399997;-0.30000
9402775;-0.29000
9405553;-0.28500
9408331;-0.28500
9411108;-0.30500
9413886;-0.30000
9416664;-0.31500
9419442;-0.29500
9422220;-0.28000
9424997;-0.28500
9427775;-0.29000
9430553;-0.30000
9433331;-0.31500
9436108;-0.31000
9438886;-0.33500
9441664;-0.37500
9444442;-0.41000
9447220;-0.43000
9449997;-0.47500
9452775;-0.49000
9455553;-0.47000
9458331;-0.38500
9461108;-0.25500
9463886;-0.10500
9466664;0.08500
9469442;0.35500
9472220;0.64000
9474997;0.84000
9477775;0.90000
9480553;0.81000
9483331;0.49500
9486108;0.07500
9488886;-0.27000
9491664;-0.47000
9494442;-0.50000
9497220;-0.45000
9499997;-0.40000
9502775;-0.34500
9505553;-0.33500
9508331;-0.35000
9511108;-0.36000
9513886;-0.36500
9516664;-0.35500
9519442;-0.34000
9522220;-0.33500
9524997;-0.35000
9527775;-0.35000
9530553;-0.36500
9533331;-0.35500
9536108;-0.36000
9538886;-0.35000
9541664;-0.35500
9544442;-0.36500
9547220;-0.36000
9549997;-0.36000
9552775;-0.35500
9555553;-0.36000
9558331;-0.36000
9561108;-0.35500
9563886;-0.36000
9566664;-0.36500
9569442;-0.36500
9572220;-0.36000
9574997;-0.36500
9577775;-0.34500
9580553;-0.37000
9583331;-0.35500
9586108;-0.35500
9588886;-0.35500
9591664;-0.34000
9594442;-0.34500
9597220;-0.35500
9599997;-0.36000
9602775;-0.36000
9605553;-0.35000
9608331;-0.35500
9611108;-0.35500
9613886;-0.36500
9616664;-0.37000
9619442;-0.37000
9622220;-0.35000
9624997;-0.35500
9627775;-0.36000
9630553;-0.36000
9633331;-0.36500
9636108;-0.35000
9638886;-0.34500
9641664;-0.34500
9644442;-0.35500
9647220;-0.35500
9649997;-0.36000
9652775;-0.33500
9655553;-0.32500
9658331;-0.33500
9661108;-0.34000
9663886;-0.34500
9666664;-0.35000
9669442;-0.34000
9672220;-0.33000
9674997;-0.34000
9677775;-0.35500
9680553;-0.35500
9683331;-0.35000
9686108;-0.34500
9688886;-0.34000
9691664;-0.35500
9694442;-0.35000
9697220;-0.36000
9699997;-0.37000
9702775;-0.36000
9705553;-0.34000
9708331;-0.35000
9711108;-0.35500
9713886;-0.36500
9716664;-0.36500
9719442;-0.35500
9722220;-0.34000
9724997;-0.34500
9727775;-0.34500
9730553;-0.35000
9733331;-0.35000
9736108;-0.34000
9738886;-0.32500
9741664;-0.32500
9744442;-0.33000
9747219;-0.33000
9749997;-0.32000
9752775;-0.31000
9755553;-0.29500
9758331;-0.28000
9761108;-0.27500
9763886;-0.27500
9766664;-0.27000
9769442;-0.26000
9772219;-0.24000
9774997;-0.24500
9777775;-0.23000
9780553;-0.24500
9783331;-0.24000
9786108;-0.22500
9788886;-0.21500
9791664;-0.21500
9794442;-0.23500
9797219;-0.23000
9799997;-0.23000
9802775;-0.22500
9805553;-0.21500
9808331;-0.21000
9811108;-0.21500
9813886;-0.23000
9816664;-0.23000
9819442;-0.23000
9822219;-0.21500
9824997;-0.22000
9827775;-0.23000
9830553;-0.23000
9833331;-0.23500
9836108;-0.23000
9838886;-0.22500
9841664;-0.23500
9844442;-0.22500
9847219;-0.25000
9849997;-0.24000
9852775;-0.22500
9855553;-0.23000
9858331;-0.24000
9861108;-0.25000
9863886;-0.25000
9866664;-0.26000
9869442;-0.24500
9872219;-0.25000
9874997;-0.26000
9877775;-0.25000
9880553;-0.26500
9883331;-0.26500
9886108;-0.25500
9888886;-0.24500
9891664;-0.25000
9894442;-0.27000
9897219;-0.26000
9899997;-0.27000
9902775;-0.27000
9905553;-0.26000
9908331;-0.25500
9911108;-0.27500
9913886;-0.27500
9916664;-0.28500
9919442;-0.28000
9922219;-0.27000
9924997;-0.28000
9927775;-0.28000
9930553;-0.28500
9933331;-0.29500
9936108;-0.27500
9938886;-0.27000
9941664;-0.28500
9944442;-0.29500
9947219;-0.30000
9949997;-0.29500
9952775;-0.27500
9955553;-0.27000
9958331;-0.27500
9961108;-0.29000
9963886;-0.29500
9966664;-0.29500
9969442;-0.28000
9972219;-0.27500
9974997;-0.27500
9977775;-0.28000
9980553;-0.29500
9983331;-0.29500
9986108;-0.29500
9988886;-0.28000
9991664;-0.28000
9994442;-0.29000
9997219;-0.28000
9999997;-0.29000
10002775;-0.27500
10005553;-0.25000
10008331;-0.24000
10011108;-0.25000
10013886;-0.24500
10016664;-0.24000
10019442;-0.21500
10022219;-0.21000
10024997;-0.20000
10027775;-0.20500
10030553;-0.20000
10033331;-0.20500
10036108;-0.19000
10038886;-0.16500
10041664;-0.16500
10044442;-0.17000
10047219;-0.17000
10049997;-0.17500
10052775;-0.16500
10055553;-0.15500
10058331;-0.17500
10061108;-0.19000
10063886;-0.19000
10066664;-0.18500
10069442;-0.17500
10072219;-0.16000
10074997;-0.16000
10077775;-0.16000
10080553;-0.15000
10083331;-0.13500
10086108;-0.13500
10088886;-0.18000
10091664;-0.20000
10094442;-0.23000
10097219;-0.24500
10099997;-0.25000
10102775;-0.26000
10105553;-0.25000
10108331;-0.26000
10111108;-0.26500
10113886;-0.28500
10116664;-0.29500
10119442;-0.29000
10122219;-0.29000
10124997;-0.29000
10127775;-0.30500
10130553;-0.30000
10133330;-0.30500
10136108;-0.30500
10138886;-0.29500
10141664;-0.30500
10144442;-0.32000
10147219;-0.31000
10149997;-0.33500
10152775;-0.31500
10155553;-0.31500
10158330;-0.30500
10161108;-0.31500
10163886;-0.32500
10166664;-0.33500
10169442;-0.31500
10172219;-0.32500
10174997;-0.32000
10177775;-0.32500
10180553;-0.32000
10183330;-0.33500
10186108;-0.34000
10188886;-0.35500
10191664;-0.39000
10194442;-0.43000
10197219;-0.46000
10199997;-0.49500
10202775;-0.53500
10205553;-0.52000
10208330;-0.45500
10211108;-0.34500
10213886;-0.23000
10216664;-0.07500
10219442;0.14500
10222219;0.42500
10224997;0.66000
10227775;0.80000
10230553;0.79000
10233330;0.57000
10236108;0.20500
10238886;-0.18000
10241664;-0.43500
10244442;-0.53000
10247219;-0.50500
10249997;-0.44000
10252775;-0.38000
10255553;-0.36500
10258330;-0.37500
10261108;-0.37500
10263886;-0.38000
10266664;-0.38000
10269442;-0.36500
10272219;-0.37000
10274997;-0.37000
10277775;-0.38500
10280553;-0.38500
10283330;-0.39000
10286108;-0.39000
10288886;-0.38000
10291664;-0.38000
10294442;-0.37500
10297219;-0.37500
10299997;-0.37500
10302775;-0.37000
10305553;-0.36500
10308330;-0.36000
10311108;-0.37000
10313886;-0.37000
10316664;-0.37500
10319442;-0.38000
10322219;-0.36000
10324997;-0.35500
10327775;-0.36500
10330553;-0.37500
10333330;-0.37000
10336108;-0.37000
10338886;-0.35500
10341664;-0.37000
10344442;-0.37500
10347219;-0.38000
10349997;-0.40000
10352775;-0.37000
10355553;-0.36000
10358330;-0.36500
10361108;-0.37500
10363886;-0.37500
10366664;-0.37000
10369442;-0.36000
10372219;-0.35500
10374997;-0.36000
10377775;-0.36500
10380553;-0.37000
10383330;-0.37500
10386108;-0.38000
10388886;-0.36500
10391664;-0.36500
10394442;-0.36500
10397219;-0.37500
10399997;-0.38500
10402775;-0.38500
10405553;-0.38000
10408330;-0.37500
10411108;-0.38500
10413886;-0.37500
10416664;-0.37500
10419442;-0.36000
10422219;-0.36000
10424997;-0.36000
10427775;-0.37500
10430553;-0.38000
10433330;-0.38500
10436108;-0.38000
10438886;-0.36000
10441664;-0.37000
10444442;-0.37500
10447219;-0.38000
10449997;-0.39500
10452775;-0.38500
10455553;-0.37500
10458330;-0.37500
10461108;-0.39000
10463886;-0.38000
10466664;-0.39000
10469442;-0.38000
10472219;-0.38000
10474997;-0.37000
10477775;-0.37500
10480553;-0.38500
10483330;-0.38000
10486108;-0.36500
10488886;-0.36500
10491664;-0.35500
10494442;-0.35500
10497219;-0.35500
10499997;-0.35000
10502775;-0.32500
10505553;-0.31500
10508330;-0.32000
10511108;-0.32000
10513886;-0.32000
10516664;-0.31000
10519441;-0.30000
10522219;-0.27500
10524997;-0.27500
10527775;-0.27500
10530553;-0.28500
10533330;-0.27500
10536108;-0.26500
10538886;-0.25500
10541664;-0.26000
10544441;-0.26500
10547219;-0.26500
10549997;-0.26500
10552775;-0.27000
10555553;-0.26000
10558330;-0.26500
10561108;-0.25500
10563886;-0.26500
10566664;-0.27000
10569441;-0.26000
10572219;-0.25000
10574997;-0.26000
10577775;-0.26500
10580553;-0.27000
10583330;-0.27500
10586108;-0.26500
10588886;-0.25000
10591664;-0.26000
10594441;-0.26000
10597219;-0.27500
10599997;-0.27500
10602775;-0.26500
10605553;-0.27000
10608330;-0.27000
10611108;-0.28500
10613886;-0.29000
10616664;-0.29000
10619441;-0.29500
10622219;-0.28500
10624997;-0.28000
10627775;-0.29000
10630553;-0.31000
10633330;-0.31000
10636108;-0.29500
10638886;-0.30500
10641664;-0.30000
10644441;-0.30500
10647219;-0.31500
10649997;-0.30000
10652775;-0.29500
10655553;-0.29000
10658330;-0.30000
10661108;-0.30500
10663886;-0.32000
10666664;-0.33000
10669441;-0.31500
10672219;-0.33500
10674997;-0.33500
10677775;-0.33000
10680553;-0.33500
10683330;-0.34000
10686108;-0.32000
10688886;-0.31500
10691664;-0.32500
10694441;-0.33000
10697219;-0.34500
10699997;-0.34500
10702775;-0.33500
10705553;-0.32000
10708330;-0.32500
10711108;-0.32000
10713886;-0.33500
10716664;-0.34500
10719441;-0.33000
10722219;-0.32000
10724997;-0.32000
10727775;-0.33500
10730553;-0.33500
10733330;-0.33500
10736108;-0.32000
10738886;-0.31000
10741664;-0.31000
10744441;-0.31000
10747219;-0.32500
10749997;-0.32000
10752775;-0.32000
10755553;-0.31500
10758330;-0.32500
10761108;-0.32000
10763886;-0.31500
10766664;-0.31500
10769441;-0.28500
10772219;-0.28500
10774997;-0.26500
10777775;-0.26000
10780553;-0.26500
10783330;-0.25000
10786108;-0.25500
10788886;-0.24000
10791664;-0.22000
10794441;-0.23000
10797219;-0.23500
10799997;-0.23500
10802775;-0.23000
10805553;-0.21500
10808330;-0.21500
10811108;-0.21500
10813886;-0.23000
10816664;-0.24500
10819441;-0.22500
10822219;-0.22500
10824997;-0.21500
10827775;-0.21500
10830553;-0.23000
10833330;-0.22500
10836108;-0.20500
10838886;-0.18500
10841664;-0.18000
10844441;-0.19000
10847219;-0.23000
10849997;-0.25500
10852775;-0.26000
10855553;-0.25000
10858330;-0.26500
10861108;-0.27000
10863886;-0.28500
10866664;-0.30500
10869441;-0.32000
10872219;-0.32000
10874997;-0.34000
10877775;-0.35000
10880553;-0.37000
10883330;-0.37500
10886108;-0.36500
10888886;-0.36000
10891664;-0.35500
10894441;-0.36000
10897219;-0.38000
10899997;-0.38500
10902775;-0.37000
10905553;-0.37000
10908330;-0.37000
10911108;-0.38500
10913886;-0.38500
10916664;-0.39500
10919441;-0.39000
10922219;-0.37500
10924997;-0.38500
10927775;-0.38500
10930552;-0.39000
10933330;-0.39500
10936108;-0.39000
10938886;-0.41000
10941664;-0.44500
10944441;-0.47500
10947219;-0.50000
10949997;-0.54000
10952775;-0.58000
10955552;-0.60500
10958330;-0.55500
10961108;-0.46500
10963886;-0.36500
10966664;-0.22500
10969441;-0.02000
10972219;0.23000
10974997;0.50000
10977775;0.69000
10980552;0.76500
