time_ms;ecg_value
0;-0.51000
2778;-0.53000
5556;-0.58000
8333;-0.61000
11111;-0.59500
13889;-0.51000
16667;-0.39000
19444;-0.26000
22222;-0.10000
25000;0.09000
27778;0.33500
30556;0.58500
33333;0.76500
36111;0.86000
38889;0.85000
41667;0.70000
44444;0.41500
47222;0.04500
50000;-0.24000
52778;-0.44000
55556;-0.53000
58333;-0.55000
61111;-0.53000
63889;-0.51000
66667;-0.49000
69444;-0.47000
72222;-0.45000
75000;-0.44500
77778;-0.43000
80556;-0.44000
83333;-0.44500
86111;-0.45500
88889;-0.44000
91667;-0.43000
94444;-0.42000
97222;-0.43500
100000;-0.43000
102778;-0.45000
105556;-0.43000
108333;-0.42500
111111;-0.42500
113889;-0.44000
116667;-0.46500
119444;-0.47000
122222;-0.47500
125000;-0.46500
127778;-0.45500
130556;-0.44500
133333;-0.46000
136111;-0.45500
138889;-0.44000
141667;-0.43500
144444;-0.44000
147222;-0.45500
150000;-0.46500
152778;-0.46500
155556;-0.48000
158333;-0.45500
161111;-0.45500
163889;-0.44500
166667;-0.45000
169444;-0.46500
172222;-0.45500
175000;-0.45500
177778;-0.44500
180556;-0.45000
183333;-0.44500
186111;-0.45500
188889;-0.46000
191667;-0.45000
194444;-0.45000
197222;-0.43500
200000;-0.45000
202778;-0.45500
205555;-0.45500
208333;-0.44500
211111;-0.44000
213889;-0.44500
216667;-0.46000
219444;-0.47500
222222;-0.47000
225000;-0.47000
227778;-0.46000
230555;-0.46000
233333;-0.44500
236111;-0.46500
238889;-0.47000
241667;-0.47000
244444;-0.45000
247222;-0.46000
250000;-0.46500
252778;-0.47500
255555;-0.45500
258333;-0.46500
261111;-0.46000
263889;-0.45500
266667;-0.46000
269444;-0.47000
272222;-0.47000
275000;-0.46500
277778;-0.47000
280555;-0.47000
283333;-0.48000
286111;-0.49000
288889;-0.49500
291667;-0.49000
294444;-0.48000
297222;-0.48500
300000;-0.48500
302778;-0.49500
305555;-0.50500
308333;-0.50500
311111;-0.49500
313889;-0.51000
316667;-0.50500
319444;-0.52000
322222;-0.52000
325000;-0.51500
327778;-0.50000
330555;-0.50500
333333;-0.51000
336111;-0.52000
338889;-0.51500
341667;-0.50000
344444;-0.49500
347222;-0.47500
350000;-0.48000
352778;-0.48000
355555;-0.45500
358333;-0.43000
361111;-0.41000
363889;-0.39500
366667;-0.39000
369444;-0.38500
372222;-0.36000
375000;-0.35000
377778;-0.34000
380555;-0.33000
383333;-0.33000
386111;-0.33500
388889;-0.34000
391667;-0.33000
394444;-0.31000
397222;-0.32500
400000;-0.31000
402778;-0.32000
405555;-0.31000
408333;-0.30500
411111;-0.29000
413889;-0.29000
416667;-0.29000
419444;-0.30500
422222;-0.30000
425000;-0.28500
427778;-0.28500
430555;-0.28500
433333;-0.29500
436111;-0.30000
438889;-0.30500
441667;-0.29000
444444;-0.28000
447222;-0.29000
450000;-0.29500
452778;-0.30000
455555;-0.30000
458333;-0.30000
461111;-0.28500
463889;-0.30500
466667;-0.31500
469444;-0.33000
472222;-0.32000
475000;-0.31500
477778;-0.30500
480555;-0.29500
483333;-0.31000
486111;-0.32000
488889;-0.32000
491667;-0.30500
494444;-0.31000
497222;-0.30000
500000;-0.31500
502778;-0.32000
505555;-0.31000
508333;-0.31000
511111;-0.29500
513889;-0.29500
516667;-0.30000
519444;-0.30500
522222;-0.32000
525000;-0.29500
527778;-0.29000
530555;-0.29500
533333;-0.31500
536111;-0.31500
538889;-0.32000
541667;-0.30500
544444;-0.29000
547222;-0.30500
550000;-0.31000
552778;-0.33500
555555;-0.33000
558333;-0.32000
561111;-0.31500
563889;-0.31500
566667;-0.32000
569444;-0.34000
572222;-0.33000
575000;-0.31500
577778;-0.30500
580555;-0.30500
583333;-0.31000
586111;-0.32000
588889;-0.31500
591667;-0.30500
594444;-0.29000
597222;-0.30500
600000;-0.31000
602778;-0.32000
605555;-0.31500
608333;-0.30500
611111;-0.28500
613889;-0.29000
616666;-0.31000
619444;-0.30500
622222;-0.30500
625000;-0.29000
627778;-0.28500
630555;-0.29500
633333;-0.30500
636111;-0.31500
638889;-0.31000
641666;-0.30500
644444;-0.29500
647222;-0.29000
650000;-0.29000
652778;-0.31500
655555;-0.29500
658333;-0.27500
661111;-0.24000
663889;-0.23500
666666;-0.23000
669444;-0.23500
672222;-0.24500
675000;-0.21500
677778;-0.20500
680555;-0.20500
683333;-0.20000
686111;-0.19000
688889;-0.18000
691666;-0.17000
694444;-0.16000
697222;-0.16000
700000;-0.16000
702778;-0.20000
705555;-0.18500
708333;-0.18500
711111;-0.17500
713889;-0.18000
716666;-0.20500
719444;-0.21500
722222;-0.21000
725000;-0.20500
727778;-0.20000
730555;-0.21000
733333;-0.22500
736111;-0.23500
738889;-0.20500
741666;-0.17000
744444;-0.17000
747222;-0.18500
750000;-0.22000
752778;-0.25000
755555;-0.26000
758333;-0.25500
761111;-0.26000
763889;-0.28000
766666;-0.29500
769444;-0.31000
772222;-0.30000
775000;-0.30500
777778;-0.31000
780555;-0.30000
783333;-0.30000
786111;-0.31000
788889;-0.31500
791666;-0.31500
794444;-0.30000
797222;-0.31000
800000;-0.31500
802778;-0.32000
805555;-0.31500
808333;-0.32000
811111;-0.32500
813889;-0.31500
816666;-0.31500
819444;-0.32500
822222;-0.33500
825000;-0.32000
827778;-0.32000
830555;-0.33500
833333;-0.38000
836111;-0.42000
838889;-0.45000
841666;-0.47500
844444;-0.49000
847222;-0.53500
850000;-0.55500
852778;-0.50500
855555;-0.42000
858333;-0.31000
861111;-0.20500
863889;-0.12500
866666;-0.05000
869444;0.05500
872222;0.23500
875000;0.46500
877778;0.73500
880555;0.94500
883333;1.07500
886111;1.10000
888889;0.99000
891666;0.67500
894444;0.22000
897222;-0.19000
900000;-0.41000
902778;-0.45500
905555;-0.41500
908333;-0.35500
911111;-0.34000
913889;-0.32000
916666;-0.34000
919444;-0.36000
922222;-0.34000
925000;-0.33500
927778;-0.34000
930555;-0.34000
933333;-0.35000
936111;-0.36000
938889;-0.36500
941666;-0.35000
944444;-0.34500
947222;-0.35000
950000;-0.35000
952778;-0.36500
955555;-0.36500
958333;-0.36000
961111;-0.34000
963889;-0.35500
966666;-0.36000
969444;-0.37500
972222;-0.37500
975000;-0.38000
977778;-0.35500
980555;-0.35500
983333;-0.35500
986111;-0.37500
988889;-0.35000
991666;-0.35000
994444;-0.35500
997222;-0.35000
1000000;-0.36000
1002777;-0.37000
1005555;-0.36500
1008333;-0.35500
1011111;-0.36000
1013889;-0.35500
1016666;-0.36500
1019444;-0.37000
1022222;-0.37000
1025000;-0.36500
1027777;-0.35500
1030555;-0.36000
1033333;-0.37000
1036111;-0.37000
1038889;-0.37500
1041666;-0.36000
1044444;-0.36500
1047222;-0.37000
1050000;-0.38000
1052777;-0.39000
1055555;-0.39000
1058333;-0.38000
1061111;-0.37000
1063889;-0.38000
1066666;-0.38000
1069444;-0.38500
1072222;-0.38500
1075000;-0.37000
1077777;-0.36500
1080555;-0.37000
1083333;-0.37500
1086111;-0.37500
1088889;-0.38000
1091666;-0.37000
1094444;-0.36000
1097222;-0.36000
1100000;-0.38000
1102777;-0.39000
1105555;-0.39000
1108333;-0.36500
1111111;-0.37500
1113889;-0.36500
1116666;-0.39000
1119444;-0.39000
1122222;-0.41000
1125000;-0.39500
1127777;-0.39000
1130555;-0.39000
1133333;-0.40500
1136111;-0.40500
1138889;-0.40500
1141666;-0.40000
1144444;-0.39000
1147222;-0.39500
1150000;-0.40000
1152777;-0.40500
1155555;-0.39500
1158333;-0.38000
1161111;-0.37000
1163889;-0.36500
1166666;-0.37000
1169444;-0.38500
1172222;-0.36500
1175000;-0.34500
1177777;-0.33000
1180555;-0.33500
1183333;-0.32000
1186111;-0.31500
1188889;-0.31500
1191666;-0.28500
1194444;-0.28500
1197222;-0.28500
1200000;-0.29000
1202777;-0.28500
1205555;-0.27000
1208333;-0.25000
1211111;-0.24500
1213889;-0.24500
1216666;-0.24000
1219444;-0.24500
1222222;-0.24500
1225000;-0.23000
1227777;-0.22500
1230555;-0.21500
1233333;-0.22500
1236111;-0.23500
1238889;-0.23000
1241666;-0.21500
1244444;-0.21500
1247222;-0.22500
1250000;-0.22500
1252777;-0.22000
1255555;-0.22000
1258333;-0.21500
1261111;-0.21000
1263889;-0.23000
1266666;-0.21500
1269444;-0.23000
1272222;-0.23000
1275000;-0.22500
1277777;-0.21000
1280555;-0.22000
1283333;-0.24000
1286111;-0.24000
1288889;-0.24500
1291666;-0.23500
1294444;-0.23500
1297222;-0.23000
1300000;-0.24000
1302777;-0.25000
1305555;-0.24500
1308333;-0.24000
1311111;-0.23500
1313889;-0.23500
1316666;-0.23000
1319444;-0.24500
1322222;-0.24000
1325000;-0.23500
1327777;-0.23000
1330555;-0.24000
1333333;-0.25500
1336111;-0.25000
1338889;-0.25500
1341666;-0.25500
1344444;-0.25000
1347222;-0.25500
1350000;-0.26500
1352777;-0.27000
1355555;-0.27500
1358333;-0.27000
1361111;-0.26500
1363889;-0.27000
1366666;-0.28000
1369444;-0.30000
1372222;-0.29000
1375000;-0.27000
1377777;-0.26000
1380555;-0.27000
1383333;-0.25500
1386111;-0.28500
1388888;-0.29000
1391666;-0.28500
1394444;-0.26000
1397222;-0.26000
1400000;-0.27500
1402777;-0.29000
1405555;-0.27000
1408333;-0.27000
1411111;-0.27000
1413888;-0.27000
1416666;-0.28000
1419444;-0.29000
1422222;-0.28500
1425000;-0.28000
1427777;-0.27500
1430555;-0.27500
1433333;-0.28000
1436111;-0.29500
1438888;-0.28500
1441666;-0.28500
1444444;-0.26000
1447222;-0.26000
1450000;-0.27000
1452777;-0.27000
1455555;-0.28000
1458333;-0.27000
1461111;-0.26000
1463888;-0.25000
1466666;-0.26000
1469444;-0.27000
1472222;-0.26500
1475000;-0.25500
1477777;-0.25000
1480555;-0.23500
1483333;-0.25000
1486111;-0.25500
1488888;-0.24000
1491666;-0.22500
1494444;-0.20500
1497222;-0.19500
1500000;-0.20500
1502777;-0.21000
1505555;-0.21000
1508333;-0.20000
1511111;-0.19000
1513888;-0.19500
1516666;-0.19500
1519444;-0.19000
1522222;-0.17500
1525000;-0.17000
1527777;-0.15000
1530555;-0.14500
1533333;-0.16000
1536111;-0.18000
1538888;-0.17500
1541666;-0.17500
1544444;-0.16500
1547222;-0.18000
1550000;-0.17500
1552777;-0.19000
1555555;-0.19500
1558333;-0.19000
1561111;-0.18500
1563888;-0.16500
1566666;-0.16000
1569444;-0.17000
1572222;-0.17500
1575000;-0.20000
1577777;-0.21000
1580555;-0.22500
1583333;-0.26000
1586111;-0.28500
1588888;-0.28500
1591666;-0.28000
1594444;-0.27500
1597222;-0.28000
1600000;-0.28500
1602777;-0.29000
1605555;-0.28500
1608333;-0.27000
1611111;-0.27000
1613888;-0.26500
1616666;-0.27000
1619444;-0.29000
1622222;-0.29500
1625000;-0.28000
1627777;-0.28500
1630555;-0.28500
1633333;-0.29000
1636111;-0.30500
1638888;-0.30500
1641666;-0.29500
1644444;-0.29500
1647222;-0.30000
1650000;-0.30500
1652777;-0.31500
1655555;-0.32000
1658333;-0.32000
1661111;-0.32000
1663888;-0.33000
1666666;-0.38500
1669444;-0.43000
1672222;-0.45500
1675000;-0.47000
1677777;-0.48500
1680555;-0.50500
1683333;-0.46500
1686111;-0.37000
1688888;-0.20000
1691666;-0.01500
1694444;0.19000
1697222;0.44000
1700000;0.71500
1702777;0.94000
1705555;1.06500
1708333;1.06000
1711111;0.86500
1713888;0.45000
1716666;-0.01000
1719444;-0.32500
1722222;-0.44500
1725000;-0.41500
1727777;-0.35000
1730555;-0.31500
1733333;-0.31500
1736111;-0.33000
1738888;-0.33500
1741666;-0.33000
1744444;-0.33000
1747222;-0.32000
1750000;-0.33000
1752777;-0.34000
1755555;-0.33500
1758333;-0.34000
1761111;-0.32500
1763888;-0.32500
1766666;-0.33500
1769444;-0.35500
1772222;-0.34000
1775000;-0.34000
1777777;-0.33000
1780555;-0.33500
1783333;-0.33500
1786111;-0.34500
1788888;-0.34500
1791666;-0.34500
1794444;-0.33500
1797222;-0.34500
1799999;-0.35500
1802777;-0.36500
1805555;-0.35500
1808333;-0.34000
1811111;-0.33000
1813888;-0.32500
1816666;-0.33500
1819444;-0.34000
1822222;-0.35000
1824999;-0.34500
1827777;-0.33500
1830555;-0.33000
1833333;-0.34000
1836111;-0.35000
1838888;-0.35500
1841666;-0.34500
1844444;-0.33500
1847222;-0.35000
1849999;-0.35500
1852777;-0.37000
1855555;-0.36500
1858333;-0.34500
1861111;-0.33500
1863888;-0.34500
1866666;-0.34000
1869444;-0.36000
1872222;-0.35500
1874999;-0.34500
1877777;-0.34000
1880555;-0.33500
1883333;-0.34000
1886111;-0.35500
1888888;-0.34500
1891666;-0.33500
1894444;-0.32000
1897222;-0.33000
1899999;-0.34500
1902777;-0.35500
1905555;-0.35000
1908333;-0.35000
1911111;-0.35000
1913888;-0.33500
1916666;-0.35000
1919444;-0.36000
1922222;-0.36000
1924999;-0.35500
1927777;-0.35500
1930555;-0.35500
1933333;-0.36000
1936111;-0.37000
1938888;-0.36000
1941666;-0.36000
1944444;-0.35500
1947222;-0.35500
1949999;-0.36000
1952777;-0.36000
1955555;-0.36500
1958333;-0.36000
1961111;-0.34500
1963888;-0.34500
1966666;-0.35500
1969444;-0.36000
1972222;-0.35500
1974999;-0.35000
1977777;-0.34500
1980555;-0.34500
1983333;-0.34500
1986111;-0.34500
1988888;-0.33500
1991666;-0.33500
1994444;-0.32500
1997222;-0.31500
1999999;-0.32000
2002777;-0.31500
2005555;-0.31000
2008333;-0.28500
2011111;-0.27500
2013888;-0.27000
2016666;-0.27500
2019444;-0.27500
2022222;-0.26000
2024999;-0.25500
2027777;-0.24000
2030555;-0.23500
2033333;-0.23500
2036111;-0.23500
2038888;-0.22500
2041666;-0.22500
2044444;-0.21500
2047222;-0.20500
2049999;-0.21500
2052777;-0.22000
2055555;-0.22500
2058333;-0.21000
2061111;-0.20000
2063888;-0.21000
2066666;-0.22000
2069444;-0.24000
2072222;-0.24000
2074999;-0.22000
2077777;-0.21000
2080555;-0.20500
2083333;-0.22500
2086111;-0.23500
2088888;-0.24000
2091666;-0.23000
2094444;-0.22500
2097222;-0.23500
2099999;-0.24000
2102777;-0.25000
2105555;-0.24500
2108333;-0.24000
2111111;-0.22500
2113888;-0.22500
2116666;-0.23000
2119444;-0.24000
2122222;-0.24500
2124999;-0.23000
2127777;-0.22500
2130555;-0.23000
2133333;-0.25000
2136111;-0.26500
2138888;-0.26000
2141666;-0.25000
2144444;-0.24500
2147222;-0.25000
2149999;-0.25000
2152777;-0.26500
2155555;-0.27500
2158333;-0.27000
2161111;-0.25500
2163888;-0.26500
2166666;-0.27000
2169444;-0.27500
2172222;-0.29000
2174999;-0.28000
2177777;-0.27500
2180555;-0.28500
2183333;-0.29500
2186110;-0.31000
2188888;-0.29500
2191666;-0.29500
2194444;-0.28000
2197222;-0.28500
2199999;-0.29500
2202777;-0.30000
2205555;-0.29500
2208333;-0.28500
2211110;-0.28500
2213888;-0.29000
2216666;-0.29500
2219444;-0.30000
2222222;-0.30000
2224999;-0.29000
2227777;-0.28500
2230555;-0.28500
2233333;-0.29500
2236110;-0.30500
2238888;-0.30500
2241666;-0.29500
2244444;-0.28500
2247222;-0.29000
2249999;-0.29500
2252777;-0.31000
2255555;-0.31500
2258333;-0.30000
2261110;-0.29000
2263888;-0.29500
2266666;-0.29500
2269444;-0.31000
2272222;-0.30000
2274999;-0.29500
2277777;-0.29000
2280555;-0.28500
2283333;-0.28000
2286110;-0.30000
2288888;-0.29000
2291666;-0.27500
2294444;-0.28000
2297222;-0.28500
2299999;-0.27500
2302777;-0.28500
2305555;-0.26500
2308333;-0.26500
2311110;-0.24500
2313888;-0.23000
2316666;-0.23000
2319444;-0.23500
2322222;-0.23500
2324999;-0.22500
2327777;-0.21500
2330555;-0.19500
2333333;-0.20500
2336110;-0.20000
2338888;-0.18500
2341666;-0.17500
2344444;-0.17000
2347222;-0.15000
2349999;-0.17000
2352777;-0.19500
2355555;-0.19500
2358333;-0.19000
2361110;-0.18500
2363888;-0.18000
2366666;-0.20000
2369444;-0.21500
2372222;-0.21000
2374999;-0.20500
2377777;-0.16500
2380555;-0.15500
2383333;-0.19000
2386110;-0.24000
2388888;-0.25500
2391666;-0.27000
2394444;-0.27500
2397222;-0.28500
2399999;-0.29500
2402777;-0.30000
2405555;-0.29500
2408333;-0.29500
2411110;-0.30000
2413888;-0.31500
2416666;-0.32000
2419444;-0.32000
2422222;-0.31500
2424999;-0.30500
2427777;-0.30000
2430555;-0.30500
2433333;-0.31000
2436110;-0.32000
2438888;-0.32000
2441666;-0.31500
2444444;-0.30000
2447222;-0.30500
2449999;-0.31000
2452777;-0.32500
2455555;-0.32000
2458333;-0.31000
2461110;-0.31500
2463888;-0.31500
2466666;-0.33000
2469444;-0.35000
2472222;-0.36500
2474999;-0.39000
2477777;-0.41500
2480555;-0.45000
2483333;-0.49000
2486110;-0.55000
2488888;-0.56500
2491666;-0.52500
2494444;-0.40000
2497222;-0.26500
2499999;-0.12500
2502777;0.01500
2505555;0.21000
2508333;0.48000
2511110;0.74500
2513888;0.93500
2516666;1.00000
2519444;0.94500
2522222;0.68500
2524999;0.29500
2527777;-0.10000
2530555;-0.38500
2533333;-0.47000
2536110;-0.45500
2538888;-0.40000
2541666;-0.35500
2544444;-0.34000
2547222;-0.35500
2549999;-0.36000
2552777;-0.37000
2555555;-0.37000
2558333;-0.35000
2561110;-0.35500
2563888;-0.36000
2566666;-0.36500
2569444;-0.37500
2572222;-0.36000
2574999;-0.34500
2577777;-0.34500
2580555;-0.34500
2583333;-0.36500
2586110;-0.37000
2588888;-0.37500
2591666;-0.35500
2594444;-0.34500
2597221;-0.34000
2599999;-0.36000
2602777;-0.38000
2605555;-0.37000
2608333;-0.35000
2611110;-0.34500
2613888;-0.35000
2616666;-0.36000
2619444;-0.37500
2622221;-0.37000
2624999;-0.36500
2627777;-0.36500
2630555;-0.36000
2633333;-0.37500
2636110;-0.38500
2638888;-0.38500
2641666;-0.37000
2644444;-0.35500
2647221;-0.35500
2649999;-0.36000
2652777;-0.36000
2655555;-0.36000
2658333;-0.35000
2661110;-0.34500
2663888;-0.34500
2666666;-0.35000
2669444;-0.36000
2672221;-0.35500
2674999;-0.36000
2677777;-0.34500
2680555;-0.35500
2683333;-0.36500
2686110;-0.37500
2688888;-0.37500
2691666;-0.37000
2694444;-0.37000
2697221;-0.38000
2699999;-0.38500
2702777;-0.40000
2705555;-0.39000
2708333;-0.37500
2711110;-0.36500
2713888;-0.36000
2716666;-0.36500
2719444;-0.37000
2722221;-0.36500
2724999;-0.36000
2727777;-0.35000
2730555;-0.35500
2733333;-0.36000
2736110;-0.37000
2738888;-0.37000
2741666;-0.36500
2744444;-0.35500
2747221;-0.36000
2749999;-0.37500
2752777;-0.38500
2755555;-0.39000
2758333;-0.37500
2761110;-0.37000
2763888;-0.38500
2766666;-0.38500
2769444;-0.40000
2772221;-0.38500
2774999;-0.38000
2777777;-0.36500
2780555;-0.37000
2783333;-0.37500
2786110;-0.38500
2788888;-0.39000
2791666;-0.37000
2794444;-0.36500
2797221;-0.35500
2799999;-0.36000
2802777;-0.35500
2805555;-0.34000
2808333;-0.32000
2811110;-0.31500
2813888;-0.32500
2816666;-0.32000
2819444;-0.32000
2822221;-0.32000
2824999;-0.29500
2827777;-0.28500
2830555;-0.28500
2833333;-0.29000
2836110;-0.30500
2838888;-0.29000
2841666;-0.28000
2844444;-0.28000
2847221;-0.27500
2849999;-0.27500
2852777;-0.28000
2855555;-0.27000
2858333;-0.25500
2861110;-0.26000
2863888;-0.25500
2866666;-0.27000
2869444;-0.27500
2872221;-0.27500
2874999;-0.27000
2877777;-0.26000
2880555;-0.26500
2883333;-0.27000
2886110;-0.28500
2888888;-0.27500
2891666;-0.27500
2894444;-0.25500
2897221;-0.28000
2899999;-0.28500
2902777;-0.30500
2905555;-0.31000
2908333;-0.29000
2911110;-0.29000
2913888;-0.29500
2916666;-0.31000
2919444;-0.32000
2922221;-0.32000
2924999;-0.30000
2927777;-0.29000
2930555;-0.28000
2933333;-0.29500
2936110;-0.31500
2938888;-0.31000
2941666;-0.31000
2944444;-0.30000
2947221;-0.30500
2949999;-0.31500
2952777;-0.32500
2955555;-0.32500
2958333;-0.32000
2961110;-0.31500
2963888;-0.32500
2966666;-0.32500
2969444;-0.33500
2972221;-0.33500
2974999;-0.33000
2977777;-0.33500
2980555;-0.34000
2983332;-0.35500
2986110;-0.36000
2988888;-0.36000
2991666;-0.35000
2994444;-0.35000
2997221;-0.34500
2999999;-0.35000
3002777;-0.35000
3005555;-0.35000
3008332;-0.33000
3011110;-0.31500
3013888;-0.32500
3016666;-0.33000
3019444;-0.34000
3022221;-0.34000
3024999;-0.35500
3027777;-0.35000
3030555;-0.34500
3033332;-0.34500
3036110;-0.34500
3038888;-0.34500
3041666;-0.34000
3044444;-0.34000
3047221;-0.33000
3049999;-0.34500
3052777;-0.36500
3055555;-0.37500
3058332;-0.35500
3061110;-0.33500
3063888;-0.34500
3066666;-0.35000
3069444;-0.35000
3072221;-0.35500
3074999;-0.35000
3077777;-0.34000
3080555;-0.34000
3083332;-0.34500
3086110;-0.34000
3088888;-0.33000
3091666;-0.30500
3094444;-0.28500
3097221;-0.28500
3099999;-0.30000
3102777;-0.30500
3105555;-0.30500
3108332;-0.29000
3111110;-0.27000
3113888;-0.26500
3116666;-0.26000
3119444;-0.26000
3122221;-0.25500
3124999;-0.23000
3127777;-0.23000
3130555;-0.25500
3133332;-0.26000
3136110;-0.29000
3138888;-0.29000
3141666;-0.28500
3144444;-0.27500
3147221;-0.26000
3149999;-0.28000
3152777;-0.29000
3155555;-0.28000
3158332;-0.25000
3161110;-0.23000
3163888;-0.25000
3166666;-0.29000
3169444;-0.32500
3172221;-0.35000
3174999;-0.36000
3177777;-0.35500
3180555;-0.37000
3183332;-0.38500
3186110;-0.40000
3188888;-0.38000
3191666;-0.38000
3194444;-0.36000
3197221;-0.37500
3199999;-0.38500
3202777;-0.39500
3205555;-0.41500
3208332;-0.41000
3211110;-0.40500
3213888;-0.39000
3216666;-0.38000
3219444;-0.40000
3222221;-0.41500
3224999;-0.40000
3227777;-0.38500
3230555;-0.39000
3233332;-0.40000
3236110;-0.40500
3238888;-0.38000
3241666;-0.37000
3244444;-0.35000
3247221;-0.37000
3249999;-0.40500
3252777;-0.43000
3255555;-0.46500
3258332;-0.48500
3261110;-0.49000
3263888;-0.55000
3266666;-0.60000
3269444;-0.62000
3272221;-0.56500
3274999;-0.42500
3277777;-0.25000
3280555;-0.06500
3283332;0.16500
3286110;0.44500
3288888;0.69500
3291666;0.87500
3294444;0.86500
3297221;0.63000
3299999;0.21500
3302777;-0.19000
3305555;-0.44000
3308332;-0.53500
3311110;-0.51000
3313888;-0.47500
3316666;-0.44500
3319444;-0.44000
3322221;-0.43000
3324999;-0.43000
3327777;-0.42500
3330555;-0.43000
3333332;-0.43500
3336110;-0.44000
3338888;-0.44500
3341666;-0.43000
3344444;-0.42000
3347221;-0.43000
3349999;-0.43000
3352777;-0.44000
3355555;-0.44500
3358332;-0.45000
3361110;-0.44500
3363888;-0.45500
3366666;-0.45000
3369444;-0.44500
3372221;-0.44000
3374999;-0.42500
3377777;-0.43500
3380555;-0.44500
3383332;-0.45000
3386110;-0.45500
3388888;-0.46000
3391666;-0.44500
3394443;-0.43500
3397221;-0.43500
3399999;-0.44500
3402777;-0.45000
3405555;-0.45500
3408332;-0.44500
3411110;-0.45000
3413888;-0.46000
3416666;-0.46500
3419443;-0.48000
3422221;-0.47000
3424999;-0.46500
3427777;-0.45000
3430555;-0.44000
3433332;-0.43500
3436110;-0.44500
3438888;-0.44500
3441666;-0.42500
3444443;-0.41500
3447221;-0.43000
3449999;-0.43000
3452777;-0.45000
3455555;-0.45000
3458332;-0.44500
3461110;-0.44500
3463888;-0.44000
3466666;-0.44500
3469443;-0.46000
3472221;-0.47000
3474999;-0.46500
3477777;-0.44500
3480555;-0.45500
3483332;-0.46500
3486110;-0.46000
3488888;-0.46000
3491666;-0.44500
3494443;-0.44500
3497221;-0.45000
3499999;-0.46000
3502777;-0.48000
3505555;-0.48000
3508332;-0.48000
3511110;-0.46000
3513888;-0.46500
3516666;-0.48500
3519443;-0.50000
3522221;-0.49500
3524999;-0.49000
3527777;-0.47500
3530555;-0.48000
3533332;-0.48500
3536110;-0.50000
3538888;-0.50500
3541666;-0.50000
3544443;-0.50000
3547221;-0.50000
3549999;-0.51000
3552777;-0.51500
3555555;-0.50500
3558332;-0.48500
3561110;-0.47000
3563888;-0.46500
3566666;-0.47500
3569443;-0.47500
3572221;-0.46000
3574999;-0.44500
3577777;-0.42000
3580555;-0.41500
3583332;-0.40500
3586110;-0.41500
3588888;-0.39500
3591666;-0.38000
3594443;-0.34500
3597221;-0.34500
3599999;-0.34500
3602777;-0.34000
3605555;-0.35000
3608332;-0.33000
3611110;-0.31500
3613888;-0.33000
3616666;-0.33000
3619443;-0.33500
3622221;-0.32500
3624999;-0.31000
3627777;-0.31000
3630555;-0.30500
3633332;-0.32000
3636110;-0.32500
3638888;-0.32500
3641666;-0.32000
3644443;-0.30500
3647221;-0.31000
3649999;-0.32500
3652777;-0.32500
3655555;-0.32500
3658332;-0.31500
3661110;-0.32000
3663888;-0.31000
3666666;-0.33000
3669443;-0.33500
3672221;-0.33500
3674999;-0.34500
3677777;-0.33500
3680555;-0.32500
3683332;-0.34500
3686110;-0.33500
3688888;-0.33500
3691666;-0.33000
3694443;-0.32500
3697221;-0.33000
3699999;-0.33500
3702777;-0.34000
3705555;-0.34500
3708332;-0.33500
3711110;-0.32000
3713888;-0.32500
3716666;-0.33000
3719443;-0.34500
3722221;-0.34500
3724999;-0.33500
3727777;-0.33500
3730555;-0.34000
3733332;-0.35000
3736110;-0.35500
3738888;-0.35500
3741666;-0.35000
3744443;-0.36500
3747221;-0.34000
3749999;-0.34500
3752777;-0.34500
3755555;-0.34500
3758332;-0.34000
3761110;-0.33500
3763888;-0.34000
3766666;-0.34500
3769443;-0.34500
3772221;-0.35000
3774999;-0.34500
3777777;-0.34000
3780554;-0.33500
3783332;-0.34000
3786110;-0.34000
3788888;-0.34500
3791666;-0.32500
3794443;-0.33000
3797221;-0.33000
3799999;-0.34500
3802777;-0.35000
3805554;-0.35500
3808332;-0.33000
3811110;-0.32000
3813888;-0.32000
3816666;-0.32000
3819443;-0.32500
3822221;-0.32500
3824999;-0.31500
3827777;-0.31000
3830554;-0.31000
3833332;-0.32000
3836110;-0.32500
3838888;-0.32500
3841666;-0.33000
3844443;-0.30000
3847221;-0.31000
3849999;-0.32500
3852777;-0.32500
3855554;-0.31500
3858332;-0.30500
3861110;-0.29500
3863888;-0.31000
3866666;-0.31000
3869443;-0.30500
3872221;-0.29500
3874999;-0.27000
3877777;-0.26500
3880554;-0.25000
3883332;-0.26000
3886110;-0.25500
3888888;-0.25000
3891666;-0.23000
3894443;-0.21000
3897221;-0.21000
3899999;-0.19500
3902777;-0.19500
3905554;-0.20000
3908332;-0.20000
3911110;-0.18500
3913888;-0.21000
3916666;-0.21500
3919443;-0.22500
3922221;-0.23000
3924999;-0.21000
3927777;-0.20000
3930554;-0.21500
3933332;-0.21500
3936110;-0.23000
3938888;-0.21000
3941666;-0.18500
3944443;-0.17000
3947221;-0.19500
3949999;-0.22500
3952777;-0.25000
3955554;-0.25500
3958332;-0.25500
3961110;-0.24000
3963888;-0.25500
3966666;-0.29000
3969443;-0.29500
3972221;-0.30500
3974999;-0.31500
3977777;-0.31000
3980554;-0.32000
3983332;-0.32500
3986110;-0.32000
3988888;-0.31500
3991666;-0.31500
3994443;-0.31500
3997221;-0.32500
3999999;-0.32500
4002777;-0.33000
4005554;-0.32000
4008332;-0.31500
4011110;-0.31000
4013888;-0.32500
4016666;-0.33500
4019443;-0.33000
4022221;-0.34000
4024999;-0.32000
4027777;-0.33500
4030554;-0.33500
4033332;-0.34000
4036110;-0.36000
4038888;-0.37000
4041666;-0.37000
4044443;-0.41000
4047221;-0.45500
4049999;-0.47000
4052777;-0.49000
4055554;-0.53500
4058332;-0.51000
4061110;-0.40500
4063888;-0.26500
4066666;-0.08500
4069443;0.09500
4072221;0.31500
4074999;0.60500
4077777;0.85000
4080554;1.02500
4083332;1.10500
4086110;1.05500
4088888;0.80500
4091666;0.41500
4094443;0.02000
4097221;-0.30000
4099999;-0.45500
4102777;-0.49500
4105554;-0.46500
4108332;-0.40500
4111110;-0.36000
4113888;-0.36500
4116666;-0.37000
4119443;-0.38500
4122221;-0.37000
4124999;-0.36000
4127777;-0.36000
4130554;-0.36000
4133332;-0.37000
4136110;-0.37500
4138888;-0.38500
4141666;-0.36500
4144443;-0.35500
4147221;-0.36500
4149999;-0.37000
4152777;-0.38000
4155554;-0.38000
4158332;-0.38000
4161110;-0.36500
4163888;-0.37000
4166666;-0.37000
4169443;-0.38500
4172221;-0.39000
4174999;-0.38000
4177777;-0.37500
4180554;-0.37500
4183332;-0.38000
4186110;-0.37500
4188888;-0.38000
4191665;-0.38000
4194443;-0.36000
4197221;-0.36500
4199999;-0.37000
4202777;-0.37500
4205554;-0.38500
4208332;-0.37500
4211110;-0.35500
4213888;-0.35500
4216665;-0.36500
4219443;-0.37000
4222221;-0.37000
4224999;-0.35000
4227777;-0.34500
4230554;-0.35000
4233332;-0.37500
4236110;-0.37500
4238888;-0.39000
4241665;-0.36500
4244443;-0.37000
4247221;-0.38000
4249999;-0.39000
4252777;-0.39500
4255554;-0.40500
4258332;-0.38500
4261110;-0.37500
4263888;-0.39000
4266665;-0.38500
4269443;-0.38500
4272221;-0.38500
4274999;-0.36500
4277777;-0.36500
4280554;-0.37000
4283332;-0.37000
4286110;-0.38000
4288888;-0.37000
4291665;-0.38500
4294443;-0.36000
4297221;-0.36500
4299999;-0.38000
4302777;-0.39000
4305554;-0.39500
4308332;-0.39000
4311110;-0.38000
4313888;-0.39000
4316665;-0.40500
4319443;-0.40000
4322221;-0.40500
4324999;-0.40500
4327777;-0.39000
4330554;-0.39000
4333332;-0.40500
4336110;-0.40500
4338888;-0.40500
4341665;-0.39000
4344443;-0.38000
4347221;-0.39000
4349999;-0.38500
4352777;-0.40000
4355554;-0.39500
4358332;-0.38500
4361110;-0.38000
4363888;-0.36500
4366665;-0.36000
4369443;-0.36000
4372221;-0.33500
4374999;-0.31500
4377777;-0.31000
4380554;-0.30000
4383332;-0.29500
4386110;-0.30500
4388888;-0.29500
4391665;-0.27500
4394443;-0.26500
4397221;-0.26500
4399999;-0.25500
4402777;-0.25500
4405554;-0.26000
4408332;-0.24500
4411110;-0.22500
4413888;-0.22500
4416665;-0.23000
4419443;-0.23000
4422221;-0.23000
4424999;-0.23500
4427777;-0.22000
4430554;-0.21500
4433332;-0.23000
4436110;-0.23000
4438888;-0.24500
4441665;-0.22500
4444443;-0.22000
4447221;-0.23500
4449999;-0.23500
4452777;-0.24500
4455554;-0.25500
4458332;-0.24500
4461110;-0.23000
4463888;-0.24500
4466665;-0.24500
4469443;-0.25000
4472221;-0.25000
4474999;-0.23500
4477777;-0.22000
4480554;-0.23000
4483332;-0.23500
4486110;-0.24500
4488888;-0.26000
4491665;-0.25000
4494443;-0.23000
4497221;-0.23500
4499999;-0.23500
4502777;-0.24500
4505554;-0.25500
4508332;-0.24000
4511110;-0.23500
4513888;-0.24500
4516665;-0.23500
4519443;-0.25500
4522221;-0.27500
4524999;-0.26000
4527777;-0.25500
4530554;-0.27000
4533332;-0.27500
4536110;-0.27500
4538888;-0.29500
4541665;-0.28500
4544443;-0.27000
4547221;-0.27000
4549999;-0.27500
4552777;-0.27000
4555554;-0.27500
4558332;-0.28500
4561110;-0.27500
4563888;-0.27000
4566665;-0.27500
4569443;-0.28000
4572221;-0.28000
4574999;-0.27000
4577776;-0.26500
4580554;-0.26500
4583332;-0.28000
4586110;-0.28500
4588888;-0.28500
4591665;-0.26500
4594443;-0.27500
4597221;-0.27000
4599999;-0.28000
4602776;-0.29000
4605554;-0.30500
4608332;-0.28500
4611110;-0.27500
4613888;-0.27000
4616665;-0.28000
4619443;-0.28500
4622221;-0.28500
4624999;-0.27500
4627776;-0.26000
4630554;-0.28000
4633332;-0.28500
4636110;-0.28500
4638888;-0.28500
4641665;-0.27000
4644443;-0.27000
4647221;-0.26500
4649999;-0.27500
4652776;-0.27000
4655554;-0.28000
4658332;-0.26500
4661110;-0.26000
4663888;-0.26000
4666665;-0.27500
4669443;-0.27500
4672221;-0.27500
4674999;-0.27500
4677776;-0.26000
4680554;-0.26500
4683332;-0.25500
4686110;-0.25000
4688888;-0.23000
4691665;-0.21000
4694443;-0.20000
4697221;-0.18500
4699999;-0.20000
4702776;-0.20500
4705554;-0.20000
4708332;-0.17500
4711110;-0.16500
4713888;-0.16000
4716665;-0.15500
4719443;-0.15500
4722221;-0.16000
4724999;-0.16500
4727776;-0.15000
4730554;-0.16000
4733332;-0.17500
4736110;-0.18500
4738888;-0.18500
4741665;-0.17000
4744443;-0.16500
4747221;-0.17500
4749999;-0.20000
4752776;-0.19500
4755554;-0.18000
4758332;-0.15000
4761110;-0.13500
4763888;-0.17000
4766665;-0.21000
4769443;-0.22500
4772221;-0.23500
4774999;-0.24500
4777776;-0.24500
4780554;-0.26000
4783332;-0.27000
4786110;-0.28000
4788888;-0.30000
4791665;-0.28500
4794443;-0.27000
4797221;-0.27000
4799999;-0.28000
4802776;-0.29000
4805554;-0.29500
4808332;-0.28000
4811110;-0.28000
4813888;-0.28000
4816665;-0.28500
4819443;-0.31000
4822221;-0.31500
4824999;-0.32000
4827776;-0.29500
4830554;-0.30500
4833332;-0.31500
4836110;-0.31500
4838888;-0.32000
4841665;-0.30500
4844443;-0.29000
4847221;-0.30000
4849999;-0.30500
4852776;-0.32000
4855554;-0.33500
4858332;-0.36500
4861110;-0.40000
4863888;-0.44000
4866665;-0.45500
4869443;-0.50500
4872221;-0.49500
4874999;-0.41500
4877776;-0.27000
4880554;-0.09500
4883332;0.08000
4886110;0.29500
4888888;0.58500
4891665;0.86000
4894443;1.06500
4897221;1.10500
4899999;0.96500
4902776;0.57500
4905554;0.04500
4908332;-0.32000
4911110;-0.45000
4913888;-0.42000
4916665;-0.35000
4919443;-0.32000
4922221;-0.32500
4924999;-0.31500
4927776;-0.31500
4930554;-0.31500
4933332;-0.33500
4936110;-0.34000
4938888;-0.35000
4941665;-0.35000
4944443;-0.33500
4947221;-0.34000
4949999;-0.34500
4952776;-0.35500
4955554;-0.36000
4958332;-0.34000
4961110;-0.34000
4963887;-0.34000
4966665;-0.34500
4969443;-0.35500
4972221;-0.36000
4974999;-0.36000
4977776;-0.34500
4980554;-0.35500
4983332;-0.35500
4986110;-0.36500
4988887;-0.36000
4991665;-0.35000
4994443;-0.34000
4997221;-0.35000
4999999;-0.34500
5002776;-0.35500
5005554;-0.35000
5008332;-0.34500
5011110;-0.33500
5013887;-0.35500
5016665;-0.34000
5019443;-0.34500
5022221;-0.33500
5024999;-0.33500
5027776;-0.33500
5030554;-0.32000
5033332;-0.32500
5036110;-0.34000
5038887;-0.34000
5041665;-0.34500
5044443;-0.32000
5047221;-0.33500
5049999;-0.35000
5052776;-0.36000
5055554;-0.36000
5058332;-0.34500
5061110;-0.34000
5063887;-0.35000
5066665;-0.35000
5069443;-0.35500
5072221;-0.37000
5074999;-0.35000
5077776;-0.34000
5080554;-0.34500
5083332;-0.35000
5086110;-0.35000
5088887;-0.35000
5091665;-0.34000
5094443;-0.34000
5097221;-0.34500
5099999;-0.34500
5102776;-0.34500
5105554;-0.35000
5108332;-0.34500
5111110;-0.34000
5113887;-0.34000
5116665;-0.35500
5119443;-0.36500
5122221;-0.37500
5124999;-0.35000
5127776;-0.36000
5130554;-0.37000
5133332;-0.37000
5136110;-0.36500
5138887;-0.37000
5141665;-0.35000
5144443;-0.35000
5147221;-0.35500
5149999;-0.34500
5152776;-0.34500
5155554;-0.35000
5158332;-0.34500
5161110;-0.33000
5163887;-0.33500
5166665;-0.33000
5169443;-0.33500
5172221;-0.32500
5174999;-0.31000
5177776;-0.29000
5180554;-0.28500
5183332;-0.28500
5186110;-0.27500
5188887;-0.27000
5191665;-0.26000
5194443;-0.24500
5197221;-0.23000
5199999;-0.23500
5202776;-0.24500
5205554;-0.25000
5208332;-0.22500
5211110;-0.22500
5213887;-0.22000
5216665;-0.23000
5219443;-0.23500
5222221;-0.24500
5224999;-0.22500
5227776;-0.21500
5230554;-0.20000
5233332;-0.22000
5236110;-0.22500
5238887;-0.22500
5241665;-0.21000
5244443;-0.20500
5247221;-0.21500
5249999;-0.22500
5252776;-0.22500
5255554;-0.23500
5258332;-0.21500
5261110;-0.21500
5263887;-0.22500
5266665;-0.23500
5269443;-0.24000
5272221;-0.24500
5274999;-0.22000
5277776;-0.22500
5280554;-0.23000
5283332;-0.23500
5286110;-0.24000
5288887;-0.25000
5291665;-0.23500
5294443;-0.23500
5297221;-0.24000
5299999;-0.24500
5302776;-0.25000
5305554;-0.26000
5308332;-0.25500
5311110;-0.24500
5313887;-0.24000
5316665;-0.25000
5319443;-0.25500
5322221;-0.26000
5324999;-0.25000
5327776;-0.25500
5330554;-0.24500
5333332;-0.25000
5336110;-0.26000
5338887;-0.26500
5341665;-0.26000
5344443;-0.24000
5347221;-0.25000
5349999;-0.26000
5352776;-0.26500
5355554;-0.27000
5358332;-0.27000
5361110;-0.27000
5363887;-0.27000
5366665;-0.28000
5369443;-0.29000
5372221;-0.28500
5374998;-0.28500
5377776;-0.27000
5380554;-0.27500
5383332;-0.27500
5386110;-0.29500
5388887;-0.28500
5391665;-0.27000
5394443;-0.26500
5397221;-0.27500
5399998;-0.27500
5402776;-0.28000
5405554;-0.27500
5408332;-0.27500
5411110;-0.26000
5413887;-0.26500
5416665;-0.27000
5419443;-0.27500
5422221;-0.27500
5424998;-0.27500
5427776;-0.26500
5430554;-0.27500
5433332;-0.27000
5436110;-0.28500
5438887;-0.29000
5441665;-0.28000
5444443;-0.27000
5447221;-0.27500
5449998;-0.26000
5452776;-0.27500
5455554;-0.28000
5458332;-0.27000
5461110;-0.25500
5463887;-0.25500
5466665;-0.26000
5469443;-0.26500
5472221;-0.26500
5474998;-0.25000
5477776;-0.23000
5480554;-0.21000
5483332;-0.19500
5486110;-0.21000
5488887;-0.20000
5491665;-0.19000
5494443;-0.17000
5497221;-0.17500
5499998;-0.18000
5502776;-0.17500
5505554;-0.17500
5508332;-0.16500
5511110;-0.15000
5513887;-0.14000
5516665;-0.15500
5519443;-0.17500
5522221;-0.18500
5524998;-0.17500
5527776;-0.18000
5530554;-0.18500
5533332;-0.19500
5536110;-0.20500
5538887;-0.20000
5541665;-0.19500
5544443;-0.17000
5547221;-0.17000
5549998;-0.19500
5552776;-0.20500
5555554;-0.21000
5558332;-0.18000
5561110;-0.14500
5563887;-0.12500
5566665;-0.16000
5569443;-0.19000
5572221;-0.22000
5574998;-0.22500
5577776;-0.23000
5580554;-0.25000
5583332;-0.28000
5586110;-0.29500
5588887;-0.30500
5591665;-0.30500
5594443;-0.29000
5597221;-0.29500
5599998;-0.30500
5602776;-0.31000
5605554;-0.31500
5608332;-0.30500
5611110;-0.29000
5613887;-0.31000
5616665;-0.31000
5619443;-0.31000
5622221;-0.30500
5624998;-0.30000
5627776;-0.28500
5630554;-0.29000
5633332;-0.30500
5636110;-0.31000
5638887;-0.31500
5641665;-0.31000
5644443;-0.31500
5647221;-0.31000
5649998;-0.32500
5652776;-0.35000
5655554;-0.38500
5658332;-0.42000
5661110;-0.44000
5663887;-0.45500
5666665;-0.50000
5669443;-0.54000
5672221;-0.50500
5674998;-0.41000
5677776;-0.26500
5680554;-0.11000
5683332;0.06500
5686110;0.27500
5688887;0.56500
5691665;0.82000
5694443;0.97000
5697221;1.01500
5699998;0.92500
5702776;0.65500
5705554;0.24000
5708332;-0.13000
5711110;-0.35000
5713887;-0.43500
5716665;-0.43000
5719443;-0.38500
5722221;-0.34500
5724998;-0.33000
5727776;-0.33500
5730554;-0.33500
5733332;-0.34500
5736110;-0.35000
5738887;-0.35000
5741665;-0.34500
5744443;-0.34500
5747221;-0.34500
5749998;-0.35000
5752776;-0.35500
5755554;-0.36000
5758332;-0.34500
5761109;-0.33500
5763887;-0.34500
5766665;-0.34500
5769443;-0.34500
5772221;-0.36000
5774998;-0.34500
5777776;-0.33500
5780554;-0.33000
5783332;-0.35500
5786109;-0.36000
5788887;-0.36500
5791665;-0.34500
5794443;-0.33500
5797221;-0.33500
5799998;-0.35000
5802776;-0.35500
5805554;-0.37000
5808332;-0.36000
5811109;-0.35000
5813887;-0.36000
5816665;-0.37000
5819443;-0.36500
5822221;-0.36000
5824998;-0.37000
5827776;-0.36500
5830554;-0.35500
5833332;-0.37000
5836109;-0.37000
5838887;-0.36500
5841665;-0.35000
5844443;-0.34000
5847221;-0.33500
5849998;-0.34500
5852776;-0.34500
5855554;-0.35000
5858332;-0.34500
5861109;-0.35000
5863887;-0.35000
5866665;-0.35000
5869443;-0.36500
5872221;-0.37500
5874998;-0.38000
5877776;-0.37000
5880554;-0.38000
5883332;-0.38000
5886109;-0.38000
5888887;-0.37500
5891665;-0.37000
5894443;-0.35000
5897221;-0.34500
5899998;-0.34500
5902776;-0.35000
5905554;-0.35500
5908332;-0.35500
5911109;-0.36000
5913887;-0.35000
5916665;-0.35000
5919443;-0.36500
5922221;-0.36000
5924998;-0.35500
5927776;-0.35500
5930554;-0.36000
5933332;-0.37500
5936109;-0.39000
5938887;-0.40500
5941665;-0.39000
5944443;-0.38000
5947221;-0.37500
5949998;-0.38500
5952776;-0.39000
5955554;-0.39500
5958332;-0.39000
5961109;-0.37500
5963887;-0.36500
5966665;-0.35500
5969443;-0.35500
5972221;-0.36500
5974998;-0.35500
5977776;-0.36000
5980554;-0.36000
5983332;-0.37000
5986109;-0.37500
5988887;-0.37000
5991665;-0.34500
5994443;-0.34000
5997221;-0.32500
5999998;-0.32000
6002776;-0.31500
6005554;-0.31500
6008332;-0.30000
6011109;-0.27500
6013887;-0.26500
6016665;-0.26000
6019443;-0.25000
6022221;-0.23500
6024998;-0.19500
6027776;-0.16000
6030554;-0.14500
6033332;-0.13000
6036109;-0.15000
6038887;-0.15000
6041665;-0.12000
6044443;-0.10500
6047221;-0.09500
6049998;-0.11000
6052776;-0.11500
6055554;-0.11000
6058332;-0.10500
6061109;-0.12000
6063887;-0.13000
6066665;-0.15500
6069443;-0.18500
6072221;-0.20000
6074998;-0.22000
6077776;-0.21000
6080554;-0.21000
6083332;-0.22500
6086109;-0.22500
6088887;-0.23000
6091665;-0.23000
6094443;-0.22500
6097221;-0.23000
6099998;-0.24500
6102776;-0.26500
6105554;-0.28500
6108332;-0.28500
6111109;-0.28000
6113887;-0.27000
6116665;-0.28500
6119443;-0.29500
6122221;-0.30500
6124998;-0.31000
6127776;-0.31000
6130554;-0.31500
6133332;-0.32000
6136109;-0.33000
6138887;-0.34500
6141665;-0.33500
6144443;-0.34000
6147221;-0.33500
6149998;-0.34000
6152776;-0.34500
6155554;-0.34500
6158332;-0.35000
6161109;-0.34000
6163887;-0.35000
6166665;-0.36000
6169443;-0.36500
6172220;-0.37500
6174998;-0.38000
6177776;-0.37000
6180554;-0.35500
6183332;-0.37000
6186109;-0.38000
6188887;-0.38500
6191665;-0.37500
6194443;-0.36500
6197220;-0.36000
6199998;-0.36000
6202776;-0.37500
6205554;-0.39000
6208332;-0.39500
6211109;-0.39000
6213887;-0.41500
6216665;-0.41500
6219443;-0.40500
6222220;-0.41000
6224998;-0.41500
6227776;-0.44000
6230554;-0.45000
6233332;-0.43000
6236109;-0.37000
6238887;-0.27000
6241665;-0.11500
6244443;0.04500
6247220;0.19500
6249998;0.37500
6252776;0.58000
6255554;0.78000
6258332;0.93000
6261109;0.89500
6263887;0.65500
6266665;0.21500
6269443;-0.18000
6272220;-0.42500
6274998;-0.50500
6277776;-0.51000
6280554;-0.47000
6283332;-0.42500
6286109;-0.41500
6288887;-0.41500
6291665;-0.40500
6294443;-0.39500
6297220;-0.39000
6299998;-0.39000
6302776;-0.39000
6305554;-0.40500
6308332;-0.38500
6311109;-0.37500
6313887;-0.37500
6316665;-0.38000
6319443;-0.39000
6322220;-0.39000
6324998;-0.38500
6327776;-0.39500
6330554;-0.39500
6333332;-0.40000
6336109;-0.40500
6338887;-0.41500
6341665;-0.41500
6344443;-0.41000
6347220;-0.41000
6349998;-0.41500
6352776;-0.41500
6355554;-0.40000
6358332;-0.38500
6361109;-0.36500
6363887;-0.37000
6366665;-0.38000
6369443;-0.39000
6372220;-0.39500
6374998;-0.39000
6377776;-0.36000
6380554;-0.35500
6383332;-0.37500
6386109;-0.39500
6388887;-0.38500
6391665;-0.38500
6394443;-0.38000
6397220;-0.38000
6399998;-0.39000
6402776;-0.41000
6405554;-0.41000
6408332;-0.41000
6411109;-0.40000
6413887;-0.40000
6416665;-0.39000
6419443;-0.39500
6422220;-0.39000
6424998;-0.38500
6427776;-0.37000
6430554;-0.37000
6433332;-0.37500
6436109;-0.38500
6438887;-0.39500
6441665;-0.38500
6444443;-0.38500
6447220;-0.38000
6449998;-0.38000
6452776;-0.38000
6455554;-0.40000
6458332;-0.38500
6461109;-0.39000
6463887;-0.39000
6466665;-0.40000
6469443;-0.40500
6472220;-0.39500
6474998;-0.39000
6477776;-0.38000
6480554;-0.38000
6483332;-0.38000
6486109;-0.38500
6488887;-0.39500
6491665;-0.39000
6494443;-0.39000
6497220;-0.39500
6499998;-0.41500
6502776;-0.43500
6505554;-0.43500
6508332;-0.44000
6511109;-0.41500
6513887;-0.40500
6516665;-0.41000
6519443;-0.43000
6522220;-0.42500
6524998;-0.43000
6527776;-0.43000
6530554;-0.42000
6533332;-0.42000
6536109;-0.41500
6538887;-0.41500
6541665;-0.40500
6544443;-0.40500
6547220;-0.38500
6549998;-0.39500
6552776;-0.40000
6555554;-0.39500
6558331;-0.38000
6561109;-0.37000
6563887;-0.36500
6566665;-0.37500
6569443;-0.37000
6572220;-0.37000
6574998;-0.35500
6577776;-0.33500
6580554;-0.34000
6583331;-0.35000
6586109;-0.34500
6588887;-0.34000
6591665;-0.33000
6594443;-0.31500
6597220;-0.32000
6599998;-0.33000
6602776;-0.32000
6605554;-0.33000
6608331;-0.32500
6611109;-0.31000
6613887;-0.31000
6616665;-0.32000
6619443;-0.33000
6622220;-0.34000
6624998;-0.32500
6627776;-0.32000
6630554;-0.31500
6633331;-0.31500
6636109;-0.32500
6638887;-0.32500
6641665;-0.31500
6644443;-0.31500
6647220;-0.32000
6649998;-0.32000
6652776;-0.34500
6655554;-0.35000
6658331;-0.34000
6661109;-0.33000
6663887;-0.33000
6666665;-0.35500
6669443;-0.36500
6672220;-0.36000
6674998;-0.34500
6677776;-0.33000
6680554;-0.33000
6683331;-0.33000
6686109;-0.34000
6688887;-0.34500
6691665;-0.34000
6694443;-0.32000
6697220;-0.32500
6699998;-0.32500
6702776;-0.34000
6705554;-0.34000
6708331;-0.32500
6711109;-0.32000
6713887;-0.32000
6716665;-0.31000
6719443;-0.31000
6722220;-0.32000
6724998;-0.31500
6727776;-0.32500
6730554;-0.32000
6733331;-0.33500
6736109;-0.34500
6738887;-0.35000
6741665;-0.34000
6744443;-0.33000
6747220;-0.32500
6749998;-0.33500
6752776;-0.33500
6755554;-0.34000
6758331;-0.33500
6761109;-0.32500
6763887;-0.31500
6766665;-0.33000
6769443;-0.33000
6772220;-0.32500
6774998;-0.33000
6777776;-0.31000
6780554;-0.30500
6783331;-0.31000
6786109;-0.32000
6788887;-0.32500
6791665;-0.32000
6794443;-0.32500
6797220;-0.31500
6799998;-0.32500
6802776;-0.32500
6805554;-0.32500
6808331;-0.33000
6811109;-0.32500
6813887;-0.32500
6816665;-0.33500
6819443;-0.33500
6822220;-0.34000
6824998;-0.34000
6827776;-0.32500
6830554;-0.32000
6833331;-0.32500
6836109;-0.33000
6838887;-0.34500
6841665;-0.33000
6844443;-0.31500
6847220;-0.32000
6849998;-0.32000
6852776;-0.32500
6855554;-0.32000
6858331;-0.32000
6861109;-0.31500
6863887;-0.30500
6866665;-0.32000
6869443;-0.31500
6872220;-0.32000
6874998;-0.31500
6877776;-0.30500
6880554;-0.30500
6883331;-0.31000
6886109;-0.32000
6888887;-0.32500
6891665;-0.31500
6894443;-0.30500
6897220;-0.30500
6899998;-0.30500
6902776;-0.32000
6905554;-0.33500
6908331;-0.33000
6911109;-0.31500
6913887;-0.31500
6916665;-0.32000
6919443;-0.33000
6922220;-0.33000
6924998;-0.31000
6927776;-0.30500
6930554;-0.31000
6933331;-0.31000
6936109;-0.31000
6938887;-0.31000
6941665;-0.30500
6944442;-0.29500
6947220;-0.29000
6949998;-0.29500
6952776;-0.30500
6955554;-0.31500
6958331;-0.31000
6961109;-0.29500
6963887;-0.30000
6966665;-0.29500
6969442;-0.30500
6972220;-0.30000
6974998;-0.28500
6977776;-0.29000
6980554;-0.29500
6983331;-0.30000
6986109;-0.30500
6988887;-0.31500
6991665;-0.30500
6994442;-0.30000
6997220;-0.29000
6999998;-0.30000
7002776;-0.30500
7005554;-0.30000
7008331;-0.29500
7011109;-0.29000
7013887;-0.28500
7016665;-0.28500
7019442;-0.29000
7022220;-0.30500
7024998;-0.29000
7027776;-0.27000
7030554;-0.28000
7033331;-0.27500
7036109;-0.29000
7038887;-0.28500
7041665;-0.28000
7044442;-0.27500
7047220;-0.28000
7049998;-0.26500
7052776;-0.27000
7055554;-0.26500
7058331;-0.24500
7061109;-0.23500
7063887;-0.23000
7066665;-0.23000
7069442;-0.23500
7072220;-0.22500
7074998;-0.22500
7077776;-0.20500
7080554;-0.19500
7083331;-0.20000
7086109;-0.19000
7088887;-0.19000
7091665;-0.18500
7094442;-0.17000
7097220;-0.17000
7099998;-0.18000
7102776;-0.19500
7105554;-0.20500
7108331;-0.19000
7111109;-0.20000
7113887;-0.19000
7116665;-0.19000
7119442;-0.22500
7122220;-0.23000
7124998;-0.20500
7127776;-0.19000
7130554;-0.16500
7133331;-0.17500
7136109;-0.21500
7138887;-0.23500
7141665;-0.24000
7144442;-0.25000
7147220;-0.25000
7149998;-0.27500
7152776;-0.29500
7155554;-0.30000
7158331;-0.29000
7161109;-0.29000
7163887;-0.29000
7166665;-0.29500
7169442;-0.30000
7172220;-0.30000
7174998;-0.29000
7177776;-0.27500
7180554;-0.27500
7183331;-0.28000
7186109;-0.30000
7188887;-0.30500
7191665;-0.29000
7194442;-0.29000
7197220;-0.29500
7199998;-0.31000
7202776;-0.30500
7205554;-0.31500
7208331;-0.31000
7211109;-0.31000
7213887;-0.31500
7216665;-0.31000
7219442;-0.32000
7222220;-0.33500
7224998;-0.33000
7227776;-0.31000
7230554;-0.32500
7233331;-0.34000
7236109;-0.33500
7238887;-0.37000
7241665;-0.39500
7244442;-0.42500
7247220;-0.44000
7249998;-0.45000
7252776;-0.48000
7255554;-0.50500
7258331;-0.46000
7261109;-0.33000
7263887;-0.17500
7266665;0.00500
7269442;0.17000
7272220;0.40000
7274998;0.67500
7277776;0.91500
7280554;1.07500
7283331;1.12000
7286109;1.00000
7288887;0.67000
7291665;0.22000
7294442;-0.16000
7297220;-0.37500
7299998;-0.44000
7302776;-0.43000
7305554;-0.38500
7308331;-0.36000
7311109;-0.34000
7313887;-0.33500
7316665;-0.34000
7319442;-0.36500
7322220;-0.36000
7324998;-0.35500
7327776;-0.34500
7330554;-0.33500
7333331;-0.35500
7336109;-0.36500
7338887;-0.36000
7341665;-0.36000
7344442;-0.34500
7347220;-0.34000
7349998;-0.34500
7352776;-0.36500
7355553;-0.36500
7358331;-0.35500
7361109;-0.35000
7363887;-0.36500
7366665;-0.37000
7369442;-0.36500
7372220;-0.37500
7374998;-0.37500
7377776;-0.35500
7380553;-0.35000
7383331;-0.35500
7386109;-0.36500
7388887;-0.38000
7391665;-0.37500
7394442;-0.35000
7397220;-0.35000
7399998;-0.36500
7402776;-0.36500
7405553;-0.37500
7408331;-0.38000
7411109;-0.37500
7413887;-0.36500
7416665;-0.37000
7419442;-0.37000
7422220;-0.37500
7424998;-0.35500
7427776;-0.34000
7430553;-0.35000
7433331;-0.35000
7436109;-0.36500
7438887;-0.37500
7441665;-0.35000
7444442;-0.35500
7447220;-0.35000
7449998;-0.35000
7452776;-0.37000
7455553;-0.36000
7458331;-0.35000
7461109;-0.34500
7463887;-0.35000
7466665;-0.35000
7469442;-0.37000
7472220;-0.36000
7474998;-0.36000
7477776;-0.35500
7480553;-0.36000
7483331;-0.36500
7486109;-0.37500
7488887;-0.37500
7491665;-0.36500
7494442;-0.35500
7497220;-0.36500
7499998;-0.37000
7502776;-0.37000
7505553;-0.37500
7508331;-0.37500
7511109;-0.36500
7513887;-0.36500
7516665;-0.36500
7519442;-0.37000
7522220;-0.37500
7524998;-0.39000
7527776;-0.38000
7530553;-0.39000
7533331;-0.39500
7536109;-0.40500
7538887;-0.41000
7541665;-0.40000
7544442;-0.39500
7547220;-0.40000
7549998;-0.41000
7552776;-0.40500
7555553;-0.42000
7558331;-0.41000
7561109;-0.39500
7563887;-0.40000
7566665;-0.40000
7569442;-0.39500
7572220;-0.39500
7574998;-0.38500
7577776;-0.37000
7580553;-0.36000
7583331;-0.37000
7586109;-0.37000
7588887;-0.36000
7591665;-0.34500
7594442;-0.32000
7597220;-0.31000
7599998;-0.30500
7602776;-0.30000
7605553;-0.30000
7608331;-0.28000
7611109;-0.26000
7613887;-0.25500
7616665;-0.24500
7619442;-0.24500
7622220;-0.25500
7624998;-0.23500
7627776;-0.22500
7630553;-0.21500
7633331;-0.22500
7636109;-0.22000
7638887;-0.22000
7641665;-0.20000
7644442;-0.19000
7647220;-0.19500
7649998;-0.19500
7652776;-0.20500
7655553;-0.21000
7658331;-0.19500
7661109;-0.18500
7663887;-0.19000
7666665;-0.20500
7669442;-0.21000
7672220;-0.21500
7674998;-0.19500
7677776;-0.19500
7680553;-0.20000
7683331;-0.19000
7686109;-0.20500
7688887;-0.20000
7691665;-0.20000
7694442;-0.20500
7697220;-0.20500
7699998;-0.21500
7702776;-0.22500
7705553;-0.23000
7708331;-0.23000
7711109;-0.21000
7713887;-0.21000
7716665;-0.21500
7719442;-0.22000
7722220;-0.24500
7724998;-0.22000
7727776;-0.21500
7730553;-0.20000
7733331;-0.21500
7736109;-0.22000
7738887;-0.23000
7741664;-0.22500
7744442;-0.21500
7747220;-0.22000
7749998;-0.23000
7752776;-0.24500
7755553;-0.25000
7758331;-0.24000
7761109;-0.23500
7763887;-0.24000
7766664;-0.23500
7769442;-0.25500
7772220;-0.26500
7774998;-0.24500
7777776;-0.25000
7780553;-0.25500
7783331;-0.25500
7786109;-0.27500
7788887;-0.28000
7791664;-0.27000
7794442;-0.27500
7797220;-0.26000
7799998;-0.27500
7802776;-0.28000
7805553;-0.29000
7808331;-0.28500
7811109;-0.27000
7813887;-0.27500
7816664;-0.28000
7819442;-0.29000
7822220;-0.28500
7824998;-0.28000
7827776;-0.27000
7830553;-0.27000
7833331;-0.28000
7836109;-0.30000
7838887;-0.30000
7841664;-0.28500
7844442;-0.29000
7847220;-0.27500
7849998;-0.28500
7852776;-0.29000
7855553;-0.28500
7858331;-0.28000
7861109;-0.27500
7863887;-0.28000
7866664;-0.28000
7869442;-0.28500
7872220;-0.29000
7874998;-0.27500
7877776;-0.26500
7880553;-0.25500
7883331;-0.27000
7886109;-0.28000
7888887;-0.28000
7891664;-0.27000
7894442;-0.25500
7897220;-0.26000
7899998;-0.25500
7902776;-0.25000
7905553;-0.24500
7908331;-0.23500
7911109;-0.22000
7913887;-0.21500
7916664;-0.21500
7919442;-0.20500
7922220;-0.21500
7924998;-0.21500
7927776;-0.19500
7930553;-0.18500
7933331;-0.19500
7936109;-0.19000
7938887;-0.18500
7941664;-0.17000
7944442;-0.15500
7947220;-0.15000
7949998;-0.16000
7952776;-0.17500
7955553;-0.18500
7958331;-0.17500
7961109;-0.18000
7963887;-0.16500
7966664;-0.17500
7969442;-0.18000
7972220;-0.20000
7974998;-0.18500
7977776;-0.17000
7980553;-0.15000
7983331;-0.15500
7986109;-0.17000
7988887;-0.20500
7991664;-0.23000
7994442;-0.22500
7997220;-0.23000
7999998;-0.26000
8002776;-0.27500
8005553;-0.29000
8008331;-0.28000
8011109;-0.28000
8013887;-0.29000
8016664;-0.29500
8019442;-0.29500
8022220;-0.29000
8024998;-0.29500
8027776;-0.28500
8030553;-0.28500
8033331;-0.28500
8036109;-0.30000
8038887;-0.31000
8041664;-0.29000
8044442;-0.29500
8047220;-0.28500
8049998;-0.28500
8052776;-0.30500
8055553;-0.31500
8058331;-0.30000
8061109;-0.30000
8063887;-0.30500
8066664;-0.31500
8069442;-0.31500
8072220;-0.31500
8074998;-0.31000
8077776;-0.31500
8080553;-0.33000
8083331;-0.36500
8086109;-0.41500
8088887;-0.44500
8091664;-0.46500
8094442;-0.48500
8097220;-0.49500
8099998;-0.48000
8102776;-0.37500
8105553;-0.22000
8108331;-0.02500
8111109;0.18500
8113887;0.44000
8116664;0.72000
8119442;0.95000
8122220;1.06000
8124998;1.07500
8127776;0.88000
8130553;0.50000
8133331;0.05500
8136109;-0.29000
8138887;-0.43500
8141664;-0.43000
8144442;-0.37000
8147220;-0.32500
8149998;-0.31000
8152775;-0.33000
8155553;-0.33500
8158331;-0.32500
8161109;-0.32000
8163887;-0.32500
8166664;-0.33500
8169442;-0.35500
8172220;-0.36000
8174998;-0.34500
8177775;-0.33000
8180553;-0.33500
8183331;-0.33000
8186109;-0.34500
8188887;-0.35000
8191664;-0.35000
8194442;-0.33000
8197220;-0.32500
8199998;-0.33500
8202775;-0.33500
8205553;-0.34500
8208331;-0.34000
8211109;-0.33500
8213887;-0.34000
8216664;-0.34500
8219442;-0.35500
8222220;-0.34000
8224998;-0.35000
8227775;-0.34500
8230553;-0.35000
8233331;-0.34000
8236109;-0.35000
8238887;-0.34000
8241664;-0.33000
8244442;-0.32500
8247220;-0.32000
8249998;-0.33000
8252775;-0.32500
8255553;-0.34500
8258331;-0.32500
8261109;-0.32000
8263887;-0.31000
8266664;-0.31500
8269442;-0.32500
8272220;-0.33000
8274998;-0.33000
8277775;-0.33000
8280553;-0.32000
8283331;-0.32500
8286109;-0.33000
8288887;-0.34000
8291664;-0.33500
8294442;-0.31500
8297220;-0.32000
8299998;-0.33000
8302775;-0.33500
8305553;-0.34500
8308331;-0.32500
8311109;-0.31500
8313887;-0.31500
8316664;-0.31500
8319442;-0.32000
8322220;-0.34000
8324998;-0.33000
8327775;-0.32000
8330553;-0.31500
8333331;-0.31500
8336109;-0.32500
8338887;-0.32500
8341664;-0.31500
8344442;-0.30500
8347220;-0.31000
8349998;-0.31500
8352775;-0.33000
8355553;-0.33500
8358331;-0.33500
8361109;-0.32000
8363887;-0.34000
8366664;-0.34500
8369442;-0.34500
8372220;-0.34500
8374998;-0.34500
8377775;-0.34000
8380553;-0.34500
8383331;-0.34000
8386109;-0.35000
8388887;-0.34000
8391664;-0.32500
8394442;-0.32000
8397220;-0.33000
8399998;-0.33000
8402775;-0.32000
8405553;-0.32500
8408331;-0.31500
8411109;-0.29500
8413887;-0.29500
8416664;-0.28500
8419442;-0.28500
8422220;-0.28000
8424998;-0.27500
8427775;-0.25000
8430553;-0.24500
8433331;-0.24500
8436109;-0.25000
8438887;-0.23000
8441664;-0.23000
8444442;-0.22000
8447220;-0.20500
8449998;-0.21000
8452775;-0.21500
8455553;-0.20500
8458331;-0.19500
8461109;-0.19500
8463887;-0.19500
8466664;-0.19000
8469442;-0.20000
8472220;-0.20500
8474998;-0.20000
8477775;-0.18500
8480553;-0.19000
8483331;-0.18000
8486109;-0.19000
8488887;-0.20000
8491664;-0.20000
8494442;-0.18500
8497220;-0.18500
8499998;-0.20500
8502775;-0.20500
8505553;-0.21500
8508331;-0.20000
8511109;-0.18500
8513887;-0.19000
8516664;-0.20500
8519442;-0.22000
8522220;-0.22500
8524998;-0.21500
8527775;-0.21000
8530553;-0.21000
8533331;-0.22000
8536109;-0.22500
8538886;-0.22500
8541664;-0.22000
8544442;-0.21500
8547220;-0.20500
8549998;-0.21500
8552775;-0.22000
8555553;-0.22500
8558331;-0.23500
8561109;-0.21500
8563886;-0.21500
8566664;-0.23000
8569442;-0.24000
8572220;-0.24000
8574998;-0.23500
8577775;-0.23000
8580553;-0.24500
8583331;-0.24500
8586109;-0.25000
8588886;-0.26000
8591664;-0.25500
8594442;-0.24500
8597220;-0.25000
8599998;-0.26000
8602775;-0.26500
8605553;-0.24500
8608331;-0.24000
8611109;-0.23500
8613886;-0.24500
8616664;-0.24500
8619442;-0.25500
8622220;-0.26500
8624998;-0.25500
8627775;-0.23000
8630553;-0.23500
8633331;-0.23500
8636109;-0.25000
8638886;-0.24500
8641664;-0.25000
8644442;-0.24000
8647220;-0.24000
8649998;-0.24500
8652775;-0.25000
8655553;-0.25500
8658331;-0.24000
8661109;-0.22500
8663886;-0.23000
8666664;-0.23000
8669442;-0.24000
8672220;-0.25500
8674998;-0.23500
8677775;-0.22500
8680553;-0.22000
8683331;-0.23000
8686109;-0.23000
8688886;-0.23500
8691664;-0.23500
8694442;-0.23000
8697220;-0.23000
8699998;-0.23000
8702775;-0.23500
8705553;-0.23000
8708331;-0.22000
8711109;-0.21500
8713886;-0.21000
8716664;-0.21500
8719442;-0.22000
8722220;-0.20500
8724998;-0.19000
8727775;-0.18000
8730553;-0.17500
8733331;-0.17500
8736109;-0.18000
8738886;-0.17000
8741664;-0.16500
8744442;-0.14000
8747220;-0.13000
8749998;-0.12500
8752775;-0.13500
8755553;-0.12500
8758331;-0.12000
8761109;-0.12000
8763886;-0.13000
8766664;-0.13000
8769442;-0.15000
8772220;-0.15000
8774998;-0.14000
8777775;-0.13500
8780553;-0.14000
8783331;-0.14000
8786109;-0.13000
8788886;-0.11500
8791664;-0.11500
8794442;-0.14500
8797220;-0.17000
8799998;-0.20500
8802775;-0.22500
8805553;-0.24000
8808331;-0.24500
8811109;-0.24500
8813886;-0.24500
8816664;-0.26000
8819442;-0.26000
8822220;-0.27500
8824998;-0.26500
8827775;-0.26500
8830553;-0.26000
8833331;-0.27000
8836109;-0.27500
8838886;-0.29000
8841664;-0.27500
8844442;-0.28000
8847220;-0.26500
8849998;-0.28000
8852775;-0.29000
8855553;-0.29000
8858331;-0.27000
8861109;-0.26000
8863886;-0.27500
8866664;-0.27500
8869442;-0.29000
8872220;-0.30000
8874998;-0.30000
8877775;-0.30500
8880553;-0.33500
8883331;-0.37500
8886109;-0.41500
8888886;-0.44500
8891664;-0.48000
8894442;-0.51500
8897220;-0.50500
8899998;-0.42500
8902775;-0.29500
8905553;-0.15000
8908331;0.03500
8911109;0.30000
8913886;0.59500
8916664;0.86500
8919442;0.99000
8922220;0.96500
8924998;0.74000
8927775;0.36000
8930553;-0.07000
8933331;-0.35000
8936109;-0.45000
8938886;-0.42000
8941664;-0.35000
8944442;-0.32000
8947220;-0.32000
8949997;-0.33500
8952775;-0.32000
8955553;-0.34500
8958331;-0.33500
8961109;-0.34000
8963886;-0.34500
8966664;-0.34500
8969442;-0.34500
8972220;-0.35500
8974997;-0.34000
8977775;-0.32500
8980553;-0.32500
8983331;-0.34000
8986109;-0.33500
8988886;-0.34000
8991664;-0.32500
8994442;-0.32500
8997220;-0.32500
8999997;-0.33500
9002775;-0.34500
9005553;-0.35500
9008331;-0.35000
9011109;-0.34000
9013886;-0.33000
9016664;-0.34000
9019442;-0.35000
9022220;-0.36500
9024997;-0.35000
9027775;-0.35000
9030553;-0.35500
9033331;-0.36000
9036109;-0.36500
9038886;-0.37000
9041664;-0.36500
9044442;-0.36500
9047220;-0.36000
9049997;-0.36500
9052775;-0.36000
9055553;-0.37500
9058331;-0.36000
9061109;-0.34000
9063886;-0.34000
9066664;-0.35000
9069442;-0.36000
9072220;-0.36500
9074997;-0.36000
9077775;-0.35000
9080553;-0.34500
9083331;-0.36000
9086109;-0.37000
9088886;-0.37500
9091664;-0.35500
9094442;-0.36500
9097220;-0.35500
9099997;-0.35000
9102775;-0.35500
9105553;-0.37000
9108331;-0.35500
9111109;-0.35500
9113886;-0.34500
9116664;-0.36000
9119442;-0.36500
9122220;-0.38000
9124997;-0.38000
9127775;-0.37500
9130553;-0.37500
9133331;-0.38000
9136109;-0.37500
9138886;-0.37500
9141664;-0.37000
9144442;-0.37000
9147220;-0.38000
9149997;-0.39000
9152775;-0.40000
9155553;-0.40500
9158331;-0.39500
9161109;-0.39000
9163886;-0.39500
9166664;-0.40500
9169442;-0.41500
9172220;-0.41000
9174997;-0.39000
9177775;-0.38500
9180553;-0.39000
9183331;-0.39000
9186109;-0.40500
9188886;-0.41000
9191664;-0.40000
9194442;-0.38000
9197220;-0.37000
9199997;-0.36500
9202775;-0.35500
9205553;-0.35500
9208331;-0.35500
9211109;-0.34000
9213886;-0.32000
9216664;-0.31000
9219442;-0.30000
9222220;-0.30000
9224997;-0.29000
9227775;-0.27500
9230553;-0.27500
9233331;-0.29000
9236109;-0.28000
9238886;-0.27000
9241664;-0.25500
9244442;-0.24000
9247220;-0.23500
9249997;-0.25500
9252775;-0.26500
9255553;-0.28500
9258331;-0.27500
9261109;-0.27500
9263886;-0.26500
9266664;-0.28000
9269442;-0.26500
9272220;-0.27500
9274997;-0.26500
9277775;-0.25500
9280553;-0.26500
9283331;-0.27500
9286109;-0.28500
9288886;-0.28500
9291664;-0.28000
9294442;-0.28000
9297220;-0.27500
9299997;-0.27500
9302775;-0.29500
9305553;-0.29500
9308331;-0.29500
9311109;-0.27500
9313886;-0.27500
9316664;-0.27500
9319442;-0.29000
9322220;-0.29000
9324997;-0.29500
9327775;-0.30000
9330553;-0.29500
9333331;-0.30000
9336108;-0.30000
9338886;-0.31000
9341664;-0.31000
9344442;-0.30000
9347220;-0.30500
9349997;-0.31000
9352775;-0.31500
9355553;-0.33500
9358331;-0.33000
9361108;-0.33000
9363886;-0.33500
9366664;-0.33500
9369442;-0.33500
9372220;-0.34000
9374997;-0.35000
9377775;-0.33000
9380553;-0.33500
9383331;-0.32000
9386108;-0.33500
9388886;-0.35000
9391664;-0.34000
9394442;-0.33000
9397220;-0.32500
9399997;-0.32000
9402775;-0.34500
9405553;-0.36000
9408331;-0.35500
9411108;-0.34500
9413886;-0.33500
9416664;-0.33500
9419442;-0.36000
9422220;-0.36500
9424997;-0.35500
9427775;-0.33500
9430553;-0.33000
9433331;-0.35000
9436108;-0.36000
9438886;-0.36000
9441664;-0.35500
9444442;-0.35500
9447220;-0.35000
9449997;-0.36000
9452775;-0.37000
9455553;-0.37000
9458331;-0.36000
9461108;-0.35500
9463886;-0.34500
9466664;-0.35500
9469442;-0.35500
9472220;-0.36000
9474997;-0.34000
9477775;-0.32000
9480553;-0.30500
9483331;-0.30000
9486108;-0.30500
9488886;-0.30000
9491664;-0.29000
9494442;-0.27500
9497220;-0.27000
9499997;-0.28000
9502775;-0.27000
9505553;-0.28500
9508331;-0.27000
9511108;-0.24500
9513886;-0.25000
9516664;-0.26000
9519442;-0.27000
9522220;-0.26500
9524997;-0.26000
9527775;-0.25500
9530553;-0.25500
9533331;-0.25500
9536108;-0.28000
9538886;-0.29500
9541664;-0.30500
9544442;-0.27500
9547220;-0.23000
9549997;-0.23000
9552775;-0.25500
9555553;-0.30500
9558331;-0.33000
9561108;-0.34500
9563886;-0.35000
9566664;-0.37500
9569442;-0.39000
9572220;-0.40000
9574997;-0.41000
9577775;-0.41000
9580553;-0.38500
9583331;-0.38000
9586108;-0.38500
9588886;-0.40500
9591664;-0.40000
9594442;-0.40000
9597220;-0.39000
9599997;-0.39500
9602775;-0.39000
9605553;-0.39000
9608331;-0.38500
9611108;-0.37500
9613886;-0.37500
9616664;-0.39500
9619442;-0.41000
9622220;-0.42000
9624997;-0.40000
9627775;-0.39000
9630553;-0.37500
9633331;-0.39000
9636108;-0.39000
9638886;-0.40500
9641664;-0.41000
9644442;-0.42500
9647220;-0.46500
9649997;-0.49000
9652775;-0.53000
9655553;-0.57500
9658331;-0.60500
9661108;-0.57000
9663886;-0.45000
9666664;-0.29500
9669442;-0.12000
9672220;0.09000
9674997;0.39500
9677775;0.66500
9680553;0.86500
9683331;0.95000
9686108;0.86500
9688886;0.56000
9691664;0.13500
9694442;-0.23000
9697220;-0.43000
9699997;-0.51000
9702775;-0.54500
9705553;-0.53000
9708331;-0.48000
9711108;-0.44500
9713886;-0.43500
9716664;-0.44500
9719442;-0.46000
9722220;-0.45000
9724997;-0.44000
9727775;-0.43500
9730553;-0.44000
9733331;-0.44500
9736108;-0.45000
9738886;-0.45000
9741664;-0.44500
9744442;-0.43000
9747219;-0.43500
9749997;-0.43500
9752775;-0.45500
9755553;-0.45000
9758331;-0.44000
9761108;-0.44000
9763886;-0.44000
9766664;-0.44500
9769442;-0.45000
9772219;-0.45500
9774997;-0.44000
9777775;-0.44500
9780553;-0.45000
9783331;-0.43500
9786108;-0.45000
9788886;-0.45500
9791664;-0.45000
9794442;-0.44500
9797219;-0.43500
9799997;-0.45000
9802775;-0.44500
9805553;-0.45500
9808331;-0.45000
9811108;-0.44500
9813886;-0.42500
9816664;-0.43500
9819442;-0.43000
9822219;-0.44500
9824997;-0.44000
9827775;-0.44500
9830553;-0.43000
9833331;-0.43500
9836108;-0.44000
9838886;-0.46000
9841664;-0.45000
9844442;-0.44000
9847219;-0.44000
9849997;-0.43000
9852775;-0.43500
9855553;-0.45500
9858331;-0.43500
9861108;-0.44000
9863886;-0.44000
9866664;-0.42500
9869442;-0.44000
9872219;-0.43000
9874997;-0.43500
9877775;-0.43000
9880553;-0.42500
9883331;-0.43000
9886108;-0.44500
9888886;-0.45500
9891664;-0.44500
9894442;-0.44500
9897219;-0.44500
9899997;-0.45000
9902775;-0.45500
9905553;-0.47000
9908331;-0.45000
9911108;-0.46500
9913886;-0.44500
9916664;-0.46500
9919442;-0.46500
9922219;-0.46000
9924997;-0.46000
9927775;-0.45000
9930553;-0.45000
9933331;-0.44500
9936108;-0.45500
9938886;-0.46000
9941664;-0.46000
9944442;-0.45000
9947219;-0.45500
9949997;-0.45000
9952775;-0.45000
9955553;-0.45000
9958331;-0.44500
9961108;-0.44000
9963886;-0.41500
9966664;-0.42000
9969442;-0.40500
9972219;-0.40500
9974997;-0.38500
9977775;-0.35500
9980553;-0.34500
9983331;-0.33000
9986108;-0.33500
9988886;-0.33500
9991664;-0.32000
9994442;-0.29500
9997219;-0.28000
9999997;-0.27000
10002775;-0.28000
10005553;-0.28500
10008331;-0.27500
10011108;-0.26500
10013886;-0.25500
10016664;-0.26500
10019442;-0.28000
10022219;-0.27500
10024997;-0.26500
10027775;-0.26000
10030553;-0.26000
10033331;-0.26500
10036108;-0.28000
10038886;-0.27500
10041664;-0.28000
10044442;-0.27500
10047219;-0.27000
10049997;-0.26500
10052775;-0.27000
10055553;-0.28000
10058331;-0.26500
10061108;-0.26000
10063886;-0.26000
10066664;-0.26000
10069442;-0.26500
10072219;-0.27000
10074997;-0.26500
10077775;-0.26000
10080553;-0.25500
10083331;-0.25500
10086108;-0.25500
10088886;-0.26000
10091664;-0.26000
10094442;-0.26000
10097219;-0.26000
10099997;-0.26500
10102775;-0.28000
10105553;-0.30500
10108331;-0.29000
10111108;-0.28000
10113886;-0.27500
10116664;-0.28000
10119442;-0.29000
10122219;-0.29500
10124997;-0.28000
10127775;-0.27500
10130553;-0.28000
10133330;-0.28500
10136108;-0.28500
10138886;-0.29500
10141664;-0.28500
10144442;-0.28500
10147219;-0.28500
10149997;-0.28500
10152775;-0.28500
10155553;-0.29000
10158330;-0.28000
10161108;-0.27000
10163886;-0.26500
10166664;-0.27000
10169442;-0.28500
10172219;-0.30000
10174997;-0.28500
10177775;-0.28500
10180553;-0.28500
10183330;-0.28500
10186108;-0.29000
10188886;-0.29500
10191664;-0.28000
10194442;-0.27500
10197219;-0.26500
10199997;-0.27500
10202775;-0.27000
10205553;-0.28000
10208330;-0.28000
10211108;-0.26500
10213886;-0.26000
10216664;-0.26000
10219442;-0.26500
10222219;-0.28000
10224997;-0.27500
10227775;-0.27000
10230553;-0.26500
10233330;-0.26500
10236108;-0.27000
10238886;-0.28000
10241664;-0.26500
10244442;-0.26000
10247219;-0.26500
10249997;-0.26500
10252775;-0.27000
10255553;-0.27500
10258330;-0.26500
10261108;-0.26500
10263886;-0.25500
10266664;-0.24000
10269442;-0.23000
10272219;-0.22000
10274997;-0.20500
10277775;-0.18500
10280553;-0.17500
10283330;-0.18000
10286108;-0.18000
10288886;-0.19000
10291664;-0.17500
10294442;-0.15500
10297219;-0.15000
10299997;-0.14500
10302775;-0.15500
10305553;-0.17500
10308330;-0.17000
10311108;-0.16000
10313886;-0.17500
10316664;-0.18000
10319442;-0.18500
10322219;-0.18000
10324997;-0.19000
10327775;-0.19000
10330553;-0.18000
10333330;-0.16500
10336108;-0.15500
10338886;-0.14000
10341664;-0.13000
10344442;-0.14500
10347219;-0.18000
10349997;-0.20500
10352775;-0.22000
10355553;-0.24500
10358330;-0.24000
10361108;-0.26000
10363886;-0.26500
10366664;-0.27000
10369442;-0.28000
10372219;-0.28500
10374997;-0.28500
10377775;-0.27000
10380553;-0.28000
10383330;-0.28500
10386108;-0.29500
10388886;-0.30000
10391664;-0.29000
10394442;-0.28500
10397219;-0.28000
10399997;-0.29000
10402775;-0.30500
10405553;-0.30000
10408330;-0.29500
10411108;-0.29000
10413886;-0.30000
10416664;-0.29500
10419442;-0.30500
10422219;-0.34000
10424997;-0.36500
10427775;-0.40000
10430553;-0.44500
10433330;-0.46500
10436108;-0.52000
10438886;-0.55500
10441664;-0.51000
10444442;-0.43000
10447219;-0.31000
10449997;-0.21500
10452775;-0.13500
10455553;-0.07500
10458330;0.02500
10461108;0.16000
10463886;0.36000
10466664;0.59000
10469442;0.86000
10472219;1.06500
10474997;1.16500
10477775;1.11000
10480553;0.79500
10483330;0.30500
10486108;-0.15000
10488886;-0.40000
10491664;-0.42500
10494442;-0.35000
10497219;-0.30000
10499997;-0.29000
10502775;-0.31000
10505553;-0.32000
10508330;-0.32000
10511108;-0.31500
10513886;-0.32000
10516664;-0.33000
10519441;-0.34000
10522219;-0.35000
10524997;-0.34000
10527775;-0.34500
10530553;-0.32500
10533330;-0.33000
10536108;-0.33500
10538886;-0.34500
10541664;-0.33000
10544441;-0.33000
10547219;-0.31500
10549997;-0.32500
10552775;-0.33000
10555553;-0.34000
10558330;-0.34500
10561108;-0.33500
10563886;-0.33500
10566664;-0.34500
10569441;-0.35000
10572219;-0.36000
10574997;-0.35500
10577775;-0.35000
10580553;-0.34000
10583330;-0.34500
10586108;-0.35500
10588886;-0.36000
10591664;-0.34500
10594441;-0.33000
10597219;-0.33000
10599997;-0.33000
10602775;-0.34500
10605553;-0.35000
10608330;-0.34000
10611108;-0.34000
10613886;-0.33000
10616664;-0.33000
10619441;-0.34500
10622219;-0.35500
10624997;-0.35000
10627775;-0.33500
10630553;-0.33000
10633330;-0.34500
10636108;-0.34500
10638886;-0.35000
10641664;-0.34000
10644441;-0.34000
10647219;-0.34000
10649997;-0.35000
10652775;-0.36500
10655553;-0.36000
10658330;-0.35500
10661108;-0.34500
10663886;-0.35000
10666664;-0.34000
10669441;-0.34500
10672219;-0.35000
10674997;-0.33500
10677775;-0.33000
10680553;-0.33000
10683330;-0.34000
10686108;-0.35000
10688886;-0.35000
10691664;-0.35000
10694441;-0.34500
10697219;-0.34000
10699997;-0.34500
10702775;-0.35500
10705553;-0.37000
10708330;-0.36000
10711108;-0.35500
10713886;-0.34000
10716664;-0.34500
10719441;-0.35000
10722219;-0.35500
10724997;-0.35000
10727775;-0.33000
10730553;-0.31500
10733330;-0.33000
10736108;-0.34500
10738886;-0.35000
10741664;-0.34000
10744441;-0.33500
10747219;-0.33000
10749997;-0.32000
10752775;-0.32500
10755553;-0.33500
10758330;-0.31000
10761108;-0.29500
10763886;-0.28500
10766664;-0.27500
10769441;-0.27000
10772219;-0.26000
10774997;-0.25500
10777775;-0.24500
10780553;-0.23000
10783330;-0.23500
10786108;-0.24000
10788886;-0.24000
10791664;-0.22500
10794441;-0.23500
10797219;-0.22000
10799997;-0.23000
10802775;-0.21500
10805553;-0.22500
10808330;-0.21000
10811108;-0.21000
10813886;-0.18500
10816664;-0.19000
10819441;-0.20500
10822219;-0.20500
10824997;-0.19000
10827775;-0.20000
10830553;-0.19500
10833330;-0.20500
10836108;-0.20500
10838886;-0.22000
10841664;-0.21500
10844441;-0.20500
10847219;-0.20500
10849997;-0.20000
10852775;-0.21500
10855553;-0.23000
10858330;-0.22500
10861108;-0.21500
10863886;-0.22000
10866664;-0.22500
10869441;-0.23500
10872219;-0.24000
10874997;-0.24500
10877775;-0.24000
10880553;-0.23500
10883330;-0.23000
10886108;-0.24500
10888886;-0.25500
10891664;-0.24000
10894441;-0.22000
10897219;-0.23000
10899997;-0.24000
10902775;-0.24000
10905553;-0.24000
10908330;-0.24500
10911108;-0.24000
10913886;-0.24000
10916664;-0.24500
10919441;-0.26000
10922219;-0.27000
10924997;-0.26500
10927775;-0.25000
10930552;-0.26000
10933330;-0.26000
10936108;-0.27500
10938886;-0.28500
10941664;-0.27000
10944441;-0.28000
10947219;-0.26500
10949997;-0.28000
10952775;-0.28000
10955552;-0.28500
10958330;-0.27500
10961108;-0.27000
10963886;-0.28000
10966664;-0.28000
10969441;-0.28500
10972219;-0.29000
10974997;-0.28500
10977775;-0.27000
10980552;-0.25500
10983330;-0.27000
10986108;-0.28000
10988886;-0.29000
10991664;-0.28000
10994441;-0.28500
10997219;-0.27000
10999997;-0.28500
11002775;-0.29000
11005552;-0.29500
11008330;-0.29000
11011108;-0.27500
11013886;-0.27500
11016664;-0.27000
11019441;-0.27000
11022219;-0.28000
11024997;-0.27500
11027775;-0.26500
11030552;-0.27500
11033330;-0.27500
11036108;-0.27500
11038886;-0.28500
11041664;-0.27000
11044441;-0.27000
11047219;-0.26000
11049997;-0.26000
11052775;-0.25500
11055552;-0.27000
11058330;-0.26000
11061108;-0.24500
11063886;-0.23000
11066664;-0.23000
11069441;-0.21500
11072219;-0.21500
11074997;-0.21000
11077775;-0.19500
11080552;-0.19000
11083330;-0.19500
11086108;-0.21500
11088886;-0.19500
11091664;-0.18500
11094441;-0.17000
11097219;-0.17000
11099997;-0.16500
11102775;-0.17500
11105552;-0.18500
11108330;-0.19000
11111108;-0.18000
11113886;-0.17500
11116664;-0.17500
11119441;-0.19000
11122219;-0.19000
11124997;-0.20000
11127775;-0.19500
11130552;-0.17500
11133330;-0.15000
11136108;-0.15500
11138886;-0.18000
11141664;-0.20500
11144441;-0.22000
11147219;-0.23000
11149997;-0.24500
11152775;-0.26000
11155552;-0.28500
11158330;-0.29000
11161108;-0.28500
11163886;-0.29500
11166664;-0.30000
11169441;-0.30000
11172219;-0.31000
11174997;-0.30500
11177775;-0.29500
11180552;-0.29000
11183330;-0.30500
11186108;-0.30500
11188886;-0.30500
11191664;-0.30500
11194441;-0.29000
11197219;-0.29500
11199997;-0.30500
11202775;-0.31000
11205552;-0.32000
11208330;-0.30500
11211108;-0.29500
11213886;-0.29000
11216664;-0.30000
11219441;-0.31500
11222219;-0.34000
11224997;-0.33500
11227775;-0.36000
11230552;-0.39500
11233330;-0.44000
11236108;-0.46000
11238886;-0.49500
11241664;-0.52500
11244441;-0.49500
11247219;-0.39000
11249997;-0.23000
11252775;-0.04500
11255552;0.14000
11258330;0.40000
11261108;0.69000
11263886;0.93500
11266664;1.06000
11269441;1.05000
11272219;0.86500
11274997;0.50000
11277775;0.05000
11280552;-0.27500
11283330;-0.43500
11286108;-0.47500
11288886;-0.44500
11291664;-0.40500
11294441;-0.36500
11297219;-0.34000
11299997;-0.33000
11302775;-0.34500
11305552;-0.36000
11308330;-0.36500
11311108;-0.34500
11313886;-0.34000
11316663;-0.34000
11319441;-0.35500
11322219;-0.36000
11324997;-0.35000
11327775;-0.34500
11330552;-0.34000
11333330;-0.34000
11336108;-0.36000
11338886;-0.36500
11341663;-0.35500
11344441;-0.35000
11347219;-0.34500
11349997;-0.35500
11352775;-0.35500
11355552;-0.36500
11358330;-0.35500
11361108;-0.34000
11363886;-0.33500
11366663;-0.33500
11369441;-0.34500
11372219;-0.36000
11374997;-0.36000
11377775;-0.35000
11380552;-0.35000
11383330;-0.36500
11386108;-0.36500
11388886;-0.37000
11391663;-0.36000
11394441;-0.35000
11397219;-0.34000
11399997;-0.34000
11402775;-0.35000
11405552;-0.36000
11408330;-0.35000
11411108;-0.34000
11413886;-0.33500
11416663;-0.35000
11419441;-0.35000
11422219;-0.35000
11424997;-0.35000
11427775;-0.34500
11430552;-0.34000
11433330;-0.34000
11436108;-0.35500
11438886;-0.35500
11441663;-0.35000
11444441;-0.35000
11447219;-0.33000
11449997;-0.35000
11452775;-0.35500
11455552;-0.36000
11458330;-0.35500
11461108;-0.35500
11463886;-0.34500
11466663;-0.34500
11469441;-0.35000
11472219;-0.36000
11474997;-0.35000
11477775;-0.35000
11480552;-0.34000
11483330;-0.34500
11486108;-0.35500
11488886;-0.36000
11491663;-0.35000
11494441;-0.34500
11497219;-0.33500
11499997;-0.34500
11502775;-0.35500
11505552;-0.36000
11508330;-0.35500
11511108;-0.33500
11513886;-0.32500
11516663;-0.33500
11519441;-0.35000
11522219;-0.35000
11524997;-0.35500
11527775;-0.33000
11530552;-0.33500
11533330;-0.34000
11536108;-0.33500
11538886;-0.35000
11541663;-0.34500
11544441;-0.34000
11547219;-0.32500
11549997;-0.33500
11552775;-0.34500
11555552;-0.36000
11558330;-0.35000
11561108;-0.32500
11563886;-0.33000
11566663;-0.32000
11569441;-0.32000
11572219;-0.31500
11574997;-0.30500
11577775;-0.28000
11580552;-0.26500
11583330;-0.26500
11586108;-0.27000
11588886;-0.26500
11591663;-0.25500
11594441;-0.25500
11597219;-0.24000
11599997;-0.25500
11602775;-0.25500
11605552;-0.25500
11608330;-0.25500
11611108;-0.22500
11613886;-0.21500
11616663;-0.22500
11619441;-0.23500
11622219;-0.24500
11624997;-0.24000
11627775;-0.23000
11630552;-0.23500
11633330;-0.22000
11636108;-0.23000
11638886;-0.24500
11641663;-0.24000
11644441;-0.24500
11647219;-0.24500
11649997;-0.25500
11652775;-0.25500
11655552;-0.25500
11658330;-0.25500
11661108;-0.25000
11663886;-0.24000
11666663;-0.24500
11669441;-0.26500
11672219;-0.26500
11674997;-0.25500
11677775;-0.24000
11680552;-0.23500
11683330;-0.24500
11686108;-0.24500
11688886;-0.26000
11691663;-0.26500
11694441;-0.26500
11697219;-0.25500
11699997;-0.27000
11702775;-0.27500
11705552;-0.27000
11708330;-0.27500
11711108;-0.26000
11713886;-0.25500
11716663;-0.27000
11719441;-0.28500
11722219;-0.29500
11724997;-0.29000
11727774;-0.28500
11730552;-0.28500
11733330;-0.29500
11736108;-0.31500
11738886;-0.31000
11741663;-0.31000
11744441;-0.30500
11747219;-0.30000
11749997;-0.31500
11752774;-0.31000
11755552;-0.31000
11758330;-0.30500
11761108;-0.29000
11763886;-0.29500
11766663;-0.31500
11769441;-0.32000
11772219;-0.33500
11774997;-0.33000
11777774;-0.31500
11780552;-0.30000
11783330;-0.30000
11786108;-0.30500
11788886;-0.31500
11791663;-0.30500
11794441;-0.31000
11797219;-0.29500
11799997;-0.30500
11802774;-0.33500
11805552;-0.33500
11808330;-0.33500
11811108;-0.32500
11813886;-0.32500
11816663;-0.33000
11819441;-0.34500
11822219;-0.34500
11824997;-0.33500
11827774;-0.32000
11830552;-0.30500
11833330;-0.31500
11836108;-0.32000
11838886;-0.33000
11841663;-0.32000
11844441;-0.31500
11847219;-0.30500
11849997;-0.30500
11852774;-0.32500
11855552;-0.33500
11858330;-0.32000
11861108;-0.29000
11863886;-0.28500
11866663;-0.28000
11869441;-0.26500
11872219;-0.27000
11874997;-0.28000
11877774;-0.25500
11880552;-0.25500
11883330;-0.26000
11886108;-0.28000
11888886;-0.29000
11891663;-0.27500
11894441;-0.25500
11897219;-0.23500
11899997;-0.23500
11902774;-0.21500
11905552;-0.22500
11908330;-0.22500
11911108;-0.22500
11913886;-0.22000
11916663;-0.22000
11919441;-0.22500
11922219;-0.24000
11924997;-0.25000
11927774;-0.24000
11930552;-0.23000
11933330;-0.23500
11936108;-0.25500
11938886;-0.28000
11941663;-0.26500
11944441;-0.24500
11947219;-0.21500
11949997;-0.21000
11952774;-0.23000
11955552;-0.27500
11958330;-0.29000
11961108;-0.30500
11963886;-0.30500
11966663;-0.32500
11969441;-0.33000
11972219;-0.35000
11974997;-0.35000
11977774;-0.35000
11980552;-0.34000
11983330;-0.34500
11986108;-0.34500
11988886;-0.36000
11991663;-0.35500
11994441;-0.34000
11997219;-0.34500
11999997;-0.36000
12002774;-0.35500
12005552;-0.39000
12008330;-0.39000
12011108;-0.38000
12013886;-0.37000
12016663;-0.36500
12019441;-0.37500
12022219;-0.37000
12024997;-0.38500
12027774;-0.37500
12030552;-0.37000
12033330;-0.37000
12036108;-0.38500
12038886;-0.42000
12041663;-0.46000
12044441;-0.47500
12047219;-0.48500
12049997;-0.48500
12052774;-0.54000
12055552;-0.59000
12058330;-0.62000
12061108;-0.60500
12063886;-0.54500
12066663;-0.45500
12069441;-0.35000
12072219;-0.23000
12074997;-0.09000
12077774;0.10000
12080552;0.34500
12083330;0.59500
12086108;0.80000
12088886;0.94500
12091663;1.00500
12094441;1.00000
12097219;0.86500
12099997;0.56000
12102774;0.17000
12105552;-0.19500
12108330;-0.42500
12111108;-0.52000
12113885;-0.53500
12116663;-0.51000
12119441;-0.47500
12122219;-0.46500
12124997;-0.45000
12127774;-0.45000
12130552;-0.43500
12133330;-0.43000
12136108;-0.43500
12138885;-0.43000
12141663;-0.42500
12144441;-0.42000
12147219;-0.42000
12149997;-0.42000
12152774;-0.42500
12155552;-0.44500
12158330;-0.45000
12161108;-0.45500
12163885;-0.45500
12166663;-0.45500
12169441;-0.46000
12172219;-0.45000
12174997;-0.44500
12177774;-0.44500
12180552;-0.44500
12183330;-0.45500
12186108;-0.47500
12188885;-0.47500
12191663;-0.47000
12194441;-0.45500
12197219;-0.46500
12199997;-0.45500
12202774;-0.45000
12205552;-0.46000
12208330;-0.46000
12211108;-0.46000
12213885;-0.46500
12216663;-0.47000
12219441;-0.47500
12222219;-0.47500
12224997;-0.46000
12227774;-0.45500
12230552;-0.45500
12233330;-0.46000
12236108;-0.47500
12238885;-0.49000
12241663;-0.47500
12244441;-0.46000
12247219;-0.45000
12249997;-0.45500
12252774;-0.48000
12255552;-0.49000
12258330;-0.48000
12261108;-0.47000
12263885;-0.47500
12266663;-0.49000
12269441;-0.48500
12272219;-0.50000
12274997;-0.48000
12277774;-0.48000
12280552;-0.47000
12283330;-0.46500
12286108;-0.47500
12288885;-0.49000
12291663;-0.49500
12294441;-0.48500
12297219;-0.48000
12299997;-0.47000
12302774;-0.47500
12305552;-0.48500
12308330;-0.50000
12311108;-0.49500
12313885;-0.49500
12316663;-0.50000
12319441;-0.51500
12322219;-0.52500
12324997;-0.53000
12327774;-0.53000
12330552;-0.51500
12333330;-0.50500
12336108;-0.52000
12338885;-0.53500
12341663;-0.53000
12344441;-0.52000
12347219;-0.52500
12349997;-0.53000
12352774;-0.54000
12355552;-0.54000
12358330;-0.52000
12361108;-0.50500
12363885;-0.51500
12366663;-0.51500
12369441;-0.52000
12372219;-0.53000
12374997;-0.53000
12377774;-0.51500
12380552;-0.52000
12383330;-0.50500
12386108;-0.51000
12388885;-0.49500
12391663;-0.48000
12394441;-0.47000
12397219;-0.47000
12399997;-0.46500
12402774;-0.47000
12405552;-0.47000
12408330;-0.44500
12411108;-0.42500
12413885;-0.41000
12416663;-0.40000
12419441;-0.38500
12422219;-0.38000
12424997;-0.38500
12427774;-0.37000
12430552;-0.36000
12433330;-0.36500
12436108;-0.37000
12438885;-0.38000
12441663;-0.37500
12444441;-0.37000
12447219;-0.37000
12449997;-0.36500
12452774;-0.37000
12455552;-0.36500
12458330;-0.37000
12461108;-0.36000
12463885;-0.36000
12466663;-0.36500
12469441;-0.37000
12472219;-0.39500
12474997;-0.38500
12477774;-0.37500
12480552;-0.37500
12483330;-0.36000
12486108;-0.36500
12488885;-0.38500
12491663;-0.37000
12494441;-0.37000
12497219;-0.37000
12499996;-0.37000
12502774;-0.37500
12505552;-0.39000
12508330;-0.39000
12511108;-0.38500
12513885;-0.37500
12516663;-0.38000
12519441;-0.39000
12522219;-0.39500
12524996;-0.39500
12527774;-0.38500
12530552;-0.38000
12533330;-0.38500
12536108;-0.40000
12538885;-0.42000
12541663;-0.42000
12544441;-0.40500
12547219;-0.40500
12549996;-0.40500
12552774;-0.41500
12555552;-0.42000
12558330;-0.42500
12561108;-0.40500
12563885;-0.40000
12566663;-0.39500
12569441;-0.41000
12572219;-0.43000
12574996;-0.42500
12577774;-0.41000
12580552;-0.40000
12583330;-0.40500
12586108;-0.40000
12588885;-0.40500
12591663;-0.41500
12594441;-0.39500
12597219;-0.40000
12599996;-0.40500
12602774;-0.41500
12605552;-0.42500
12608330;-0.41500
12611108;-0.39500
12613885;-0.39500
12616663;-0.40500
12619441;-0.41000
12622219;-0.42000
12624996;-0.41000
12627774;-0.39500
12630552;-0.39000
12633330;-0.38500
12636108;-0.40000
12638885;-0.40000
12641663;-0.40500
12644441;-0.39500
12647219;-0.38500
12649996;-0.38500
12652774;-0.39500
12655552;-0.40000
12658330;-0.39500
12661108;-0.39500
12663885;-0.39000
12666663;-0.39500
12669441;-0.40000
12672219;-0.40000
12674996;-0.38000
12677774;-0.37000
12680552;-0.36000
12683330;-0.35500
12686108;-0.35000
12688885;-0.35500
12691663;-0.34500
12694441;-0.32000
12697219;-0.30500
12699996;-0.30000
12702774;-0.29500
12705552;-0.31000
12708330;-0.28500
12711108;-0.27000
12713885;-0.25500
12716663;-0.27000
12719441;-0.28000
12722219;-0.30500
12724996;-0.28500
12727774;-0.28500
12730552;-0.28500
12733330;-0.29000
12736108;-0.30000
12738885;-0.30500
12741663;-0.30500
12744441;-0.28500
12747219;-0.28000
12749996;-0.27000
12752774;-0.28000
12755552;-0.30000
12758330;-0.30000
12761108;-0.31000
12763885;-0.29000
12766663;-0.27500
12769441;-0.27500
12772219;-0.30000
12774996;-0.30500
12777774;-0.33500
12780552;-0.34000
12783330;-0.35500
12786108;-0.37500
12788885;-0.39000
12791663;-0.39000
12794441;-0.37500
12797219;-0.37000
12799996;-0.39000
12802774;-0.38500
12805552;-0.40500
12808330;-0.38500
12811108;-0.38500
12813885;-0.38000
12816663;-0.39500
12819441;-0.40000
12822219;-0.42000
12824996;-0.40500
12827774;-0.39500
12830552;-0.39000
12833330;-0.39500
12836108;-0.40000
12838885;-0.41000
12841663;-0.41500
12844441;-0.41000
12847219;-0.40000
12849996;-0.40000
12852774;-0.42500
12855552;-0.42500
12858330;-0.43500
12861108;-0.44500
12863885;-0.48500
12866663;-0.51000
12869441;-0.53000
12872219;-0.55500
12874996;-0.60000
12877774;-0.60500
12880552;-0.54500
12883330;-0.47000
12886108;-0.35000
12888885;-0.25500
12891663;-0.15000
12894441;-0.03500
12897219;0.13000
12899996;0.36500
12902774;0.60000
12905552;0.81000
12908330;0.93000
12911107;0.96000
12913885;0.81500
12916663;0.46500
12919441;0.02000
12922219;-0.35500
12924996;-0.52500
12927774;-0.54500
12930552;-0.49500
12933330;-0.45500
12936107;-0.44000
12938885;-0.42500
12941663;-0.42500
12944441;-0.43000
12947219;-0.42500
12949996;-0.42500
12952774;-0.43000
12955552;-0.44000
12958330;-0.43000
12961107;-0.42500
12963885;-0.42500
12966663;-0.43000
12969441;-0.44000
12972219;-0.45000
12974996;-0.45500
12977774;-0.43500
12980552;-0.43000
12983330;-0.44000
12986107;-0.44500
12988885;-0.46500
12991663;-0.46000
12994441;-0.45000
12997219;-0.44500
12999996;-0.45500
13002774;-0.45500
13005552;-0.46500
13008330;-0.45500
13011107;-0.44500
13013885;-0.44500
13016663;-0.44500
13019441;-0.44500
13022219;-0.46000
13024996;-0.45500
13027774;-0.44500
13030552;-0.44000
13033330;-0.44500
13036107;-0.45500
13038885;-0.45500
13041663;-0.45500
13044441;-0.44000
13047219;-0.44500
13049996;-0.43000
13052774;-0.43500
13055552;-0.45500
13058330;-0.45500
13061107;-0.44000
13063885;-0.44000
13066663;-0.44000
13069441;-0.45000
13072219;-0.46500
13074996;-0.46500
13077774;-0.46000
13080552;-0.45000
13083330;-0.45500
13086107;-0.45000
13088885;-0.47000
13091663;-0.46500
13094441;-0.45000
13097219;-0.44500
13099996;-0.43000
13102774;-0.45500
13105552;-0.45000
13108330;-0.45000
13111107;-0.45000
13113885;-0.44000
13116663;-0.43500
13119441;-0.45000
13122219;-0.46500
13124996;-0.46000
13127774;-0.45500
13130552;-0.45000
13133330;-0.45500
13136107;-0.46000
13138885;-0.47500
13141663;-0.48500
13144441;-0.47000
13147219;-0.48000
13149996;-0.47000
13152774;-0.48500
13155552;-0.48500
13158330;-0.48500
13161107;-0.47500
13163885;-0.47000
13166663;-0.46500
13169441;-0.48000
13172219;-0.48500
13174996;-0.48500
13177774;-0.47000
13180552;-0.45500
13183330;-0.46000
13186107;-0.47000
13188885;-0.47000
13191663;-0.45500
13194441;-0.43000
13197219;-0.43000
13199996;-0.42000
13202774;-0.41500
13205552;-0.41000
13208330;-0.39000
13211107;-0.38000
13213885;-0.36000
13216663;-0.36000
13219441;-0.35500
13222219;-0.35500
13224996;-0.35500
13227774;-0.32500
13230552;-0.31000
13233330;-0.30500
13236107;-0.34000
13238885;-0.32500
13241663;-0.31500
13244441;-0.31000
13247219;-0.30000
13249996;-0.30500
13252774;-0.30500
13255552;-0.33000
13258330;-0.33000
13261107;-0.32500
13263885;-0.32500
13266663;-0.31000
13269441;-0.32000
13272219;-0.33500
13274996;-0.32500
13277774;-0.31500
13280552;-0.31000
13283330;-0.31500
13286107;-0.32000
13288885;-0.31500
13291663;-0.31500
13294441;-0.32000
13297218;-0.30000
13299996;-0.31000
13302774;-0.31500
13305552;-0.32500
13308330;-0.32500
13311107;-0.33000
13313885;-0.31500
13316663;-0.30500
13319441;-0.31500
13322218;-0.33500
13324996;-0.33500
13327774;-0.32500
13330552;-0.31500
13333330;-0.32000
13336107;-0.32500
13338885;-0.33500
13341663;-0.33500
13344441;-0.34000
13347218;-0.33500
13349996;-0.34000
13352774;-0.35500
13355552;-0.36500
13358330;-0.36500
13361107;-0.35500
13363885;-0.36000
13366663;-0.35000
13369441;-0.35000
13372218;-0.37500
13374996;-0.36500
13377774;-0.35500
13380552;-0.34500
13383330;-0.35500
13386107;-0.37000
13388885;-0.38000
13391663;-0.37500
13394441;-0.37000
13397218;-0.36000
13399996;-0.36500
13402774;-0.38000
13405552;-0.39000
13408330;-0.39500
13411107;-0.38000
13413885;-0.37000
13416663;-0.37000
13419441;-0.37500
13422218;-0.38500
13424996;-0.37500
13427774;-0.37500
13430552;-0.36000
13433330;-0.36500
13436107;-0.37000
13438885;-0.38000
13441663;-0.37000
13444441;-0.36000
13447218;-0.35000
13449996;-0.35500
13452774;-0.35500
13455552;-0.37500
13458330;-0.36500
13461107;-0.36000
13463885;-0.34500
13466663;-0.36000
13469441;-0.36000
13472218;-0.38500
13474996;-0.38000
13477774;-0.37500
13480552;-0.37000
13483330;-0.36500
13486107;-0.36500
13488885;-0.38000
13491663;-0.36000
13494441;-0.36000
13497218;-0.33500
13499996;-0.31500
13502774;-0.31500
13505552;-0.31000
13508330;-0.30000
13511107;-0.28000
13513885;-0.27500
13516663;-0.27500
13519441;-0.28000
13522218;-0.28500
13524996;-0.27000
13527774;-0.25000
13530552;-0.23500
13533330;-0.23000
13536107;-0.24500
13538885;-0.26000
13541663;-0.26000
13544441;-0.25000
13547218;-0.25500
13549996;-0.27000
13552774;-0.27500
13555552;-0.29500
13558330;-0.28000
13561107;-0.27000
13563885;-0.26000
13566663;-0.26000
13569441;-0.28000
13572218;-0.28000
13574996;-0.28000
13577774;-0.29000
13580552;-0.29000
13583330;-0.27500
13586107;-0.26000
13588885;-0.25000
13591663;-0.23500
13594441;-0.25500
13597218;-0.26500
13599996;-0.30500
13602774;-0.31500
13605552;-0.33500
13608330;-0.34500
13611107;-0.34500
13613885;-0.35000
13616663;-0.35000
13619441;-0.36500
13622218;-0.37500
13624996;-0.37000
13627774;-0.36500
13630552;-0.36500
13633330;-0.37000
13636107;-0.37500
13638885;-0.40000
13641663;-0.39000
13644441;-0.37500
13647218;-0.37000
13649996;-0.38500
13652774;-0.39500
13655552;-0.39500
13658330;-0.38500
13661107;-0.38000
13663885;-0.37500
13666663;-0.37000
13669441;-0.38500
13672218;-0.39000
13674996;-0.38500
13677774;-0.40500
13680552;-0.42500
13683330;-0.46500
13686107;-0.50000
13688885;-0.54000
13691663;-0.56500
13694441;-0.58000
13697218;-0.58000
13699996;-0.50000
13702774;-0.37500
13705552;-0.22000
13708329;-0.05500
13711107;0.14500
13713885;0.40000
13716663;0.67500
13719441;0.88500
13722218;1.02000
13724996;1.05000
13727774;0.91500
13730552;0.58000
13733329;0.10500
13736107;-0.30000
13738885;-0.49500
13741663;-0.52000
13744441;-0.47000
13747218;-0.42500
13749996;-0.39500
13752774;-0.40000
13755552;-0.41000
13758329;-0.41000
13761107;-0.41000
13763885;-0.40000
13766663;-0.40500
13769441;-0.41500
13772218;-0.43000
13774996;-0.44000
13777774;-0.42500
13780552;-0.41500
13783329;-0.41500
13786107;-0.44000
13788885;-0.44500
13791663;-0.44500
13794441;-0.44000
13797218;-0.44500
13799996;-0.45000
13802774;-0.45000
13805552;-0.46500
13808329;-0.44500
13811107;-0.45000
13813885;-0.43500
13816663;-0.43500
13819441;-0.44500
13822218;-0.44000
13824996;-0.44500
13827774;-0.43000
13830552;-0.43500
13833329;-0.43000
13836107;-0.43500
13838885;-0.45000
13841663;-0.45500
13844441;-0.44500
13847218;-0.43000
13849996;-0.43000
13852774;-0.44000
13855552;-0.44500
13858329;-0.44500
13861107;-0.44500
13863885;-0.44500
13866663;-0.44500
13869441;-0.45000
13872218;-0.46000
13874996;-0.45500
13877774;-0.44500
13880552;-0.43000
13883329;-0.44000
13886107;-0.44500
13888885;-0.45000
13891663;-0.45500
13894441;-0.44500
13897218;-0.43500
13899996;-0.45000
13902774;-0.44500
13905552;-0.46000
13908329;-0.44500
13911107;-0.44500
13913885;-0.43500
13916663;-0.43500
13919441;-0.44000
13922218;-0.45000
13924996;-0.44500
13927774;-0.44000
13930552;-0.43500
13933329;-0.44500
13936107;-0.44500
13938885;-0.46500
13941663;-0.46500
13944441;-0.45000
13947218;-0.44500
13949996;-0.45000
13952774;-0.45000
13955552;-0.47000
13958329;-0.46000
13961107;-0.44500
13963885;-0.44000
13966663;-0.43500
13969441;-0.44500
13972218;-0.46000
13974996;-0.46500
13977774;-0.44500
13980552;-0.43500
13983329;-0.44000
13986107;-0.44500
13988885;-0.46000
13991663;-0.46000
13994441;-0.45000
13997218;-0.43000
13999996;-0.43000
14002774;-0.44000
14005552;-0.45500
14008329;-0.44000
14011107;-0.42000
14013885;-0.42000
14016663;-0.42000
14019441;-0.42000
14022218;-0.42500
14024996;-0.41000
14027774;-0.40000
14030552;-0.38500
14033329;-0.37000
14036107;-0.37500
14038885;-0.37000
14041663;-0.35500
14044441;-0.34000
14047218;-0.32500
14049996;-0.33500
14052774;-0.32000
14055552;-0.33000
14058329;-0.32000
14061107;-0.32000
14063885;-0.30000
14066663;-0.30500
14069441;-0.30500
14072218;-0.31000
14074996;-0.31500
14077774;-0.30500
14080552;-0.31000
14083329;-0.29500
14086107;-0.31000
14088885;-0.32000
14091663;-0.32000
14094440;-0.32500
14097218;-0.33000
14099996;-0.31000
14102774;-0.32500
14105552;-0.33500
14108329;-0.34000
14111107;-0.32500
14113885;-0.31500
14116663;-0.31500
14119440;-0.33000
14122218;-0.33500
14124996;-0.32500
14127774;-0.31500
14130552;-0.31000
14133329;-0.31500
14136107;-0.32500
14138885;-0.33500
14141663;-0.33000
14144440;-0.31500
14147218;-0.32000
14149996;-0.31500
14152774;-0.33000
14155552;-0.34000
14158329;-0.34500
14161107;-0.33500
14163885;-0.32000
14166663;-0.32000
14169440;-0.34000
14172218;-0.36000
14174996;-0.36500
14177774;-0.35500
14180552;-0.34500
14183329;-0.34000
14186107;-0.36000
14188885;-0.36500
14191663;-0.38500
14194440;-0.37000
14197218;-0.36500
14199996;-0.38000
14202774;-0.38500
14205552;-0.39500
14208329;-0.39000
14211107;-0.37500
14213885;-0.36500
14216663;-0.36500
14219440;-0.36500
14222218;-0.37500
14224996;-0.37000
14227774;-0.36500
14230552;-0.36000
14233329;-0.36000
14236107;-0.37000
14238885;-0.37500
14241663;-0.37000
14244440;-0.37500
14247218;-0.37500
14249996;-0.37000
14252774;-0.38500
14255552;-0.39000
14258329;-0.38000
14261107;-0.37500
14263885;-0.37500
14266663;-0.37000
14269440;-0.38500
14272218;-0.40000
14274996;-0.39000
14277774;-0.37000
14280552;-0.35000
14283329;-0.35500
14286107;-0.37000
14288885;-0.37000
14291663;-0.36500
14294440;-0.35500
14297218;-0.35000
14299996;-0.36000
14302774;-0.35000
14305552;-0.36000
14308329;-0.36000
14311107;-0.35500
14313885;-0.35500
14316663;-0.34500
14319440;-0.35000
14322218;-0.36000
14324996;-0.34500
14327774;-0.32000
14330552;-0.31000
14333329;-0.30000
14336107;-0.29500
14338885;-0.31000
14341663;-0.30500
14344440;-0.29500
14347218;-0.28500
14349996;-0.27500
14352774;-0.28500
14355552;-0.28500
14358329;-0.27000
14361107;-0.25500
14363885;-0.24000
14366663;-0.24000
14369440;-0.24500
14372218;-0.25000
14374996;-0.25000
14377774;-0.24500
14380552;-0.25500
14383329;-0.25000
14386107;-0.26500
14388885;-0.28000
14391663;-0.26500
14394440;-0.27500
14397218;-0.28000
14399996;-0.27500
14402774;-0.27000
14405552;-0.25000
14408329;-0.24000
14411107;-0.24500
14413885;-0.26500
14416663;-0.28000
14419440;-0.29500
14422218;-0.32500
14424996;-0.34000
14427774;-0.34000
14430552;-0.35000
14433329;-0.36000
14436107;-0.37500
14438885;-0.38500
14441663;-0.37500
14444440;-0.37000
14447218;-0.37000
14449996;-0.38000
14452774;-0.38000
14455552;-0.40000
14458329;-0.39500
14461107;-0.38500
14463885;-0.39000
14466663;-0.40500
14469440;-0.39000
14472218;-0.41000
14474996;-0.40000
14477774;-0.39000
14480552;-0.38500
14483329;-0.37500
14486107;-0.39000
14488885;-0.40500
14491663;-0.40500
14494440;-0.39500
14497218;-0.42000
14499996;-0.44500
14502774;-0.51000
14505551;-0.54000
14508329;-0.56000
14511107;-0.59500
14513885;-0.60500
14516663;-0.59500
14519440;-0.51500
14522218;-0.41000
14524996;-0.30000
14527774;-0.22000
14530551;-0.15000
14533329;-0.08000
14536107;0.00500
14538885;0.12000
14541663;0.30000
14544440;0.54000
14547218;0.76000
14549996;0.91500
14552774;1.00500
14555551;1.02000
14558329;0.94000
14561107;0.69500
14563885;0.31000
14566663;-0.11000
14569440;-0.40000
14572218;-0.50000
14574996;-0.49000
14577774;-0.43000
14580551;-0.39000
14583329;-0.37000
14586107;-0.40000
14588885;-0.41500
14591663;-0.42500
14594440;-0.42000
14597218;-0.40500
14599996;-0.41500
14602774;-0.43000
14605551;-0.46000
14608329;-0.44000
14611107;-0.43500
14613885;-0.43500
14616663;-0.43000
14619440;-0.43500
14622218;-0.45000
14624996;-0.45000
14627774;-0.43000
14630551;-0.42000
14633329;-0.42500
14636107;-0.43000
14638885;-0.44000
14641663;-0.43500
14644440;-0.43000
14647218;-0.42500
14649996;-0.43000
14652774;-0.43500
14655551;-0.43500
14658329;-0.45500
14661107;-0.44000
14663885;-0.42500
14666663;-0.41500
14669440;-0.43500
14672218;-0.43500
14674996;-0.43500
14677774;-0.43000
14680551;-0.43500
14683329;-0.45000
14686107;-0.45500
14688885;-0.47500
14691663;-0.46500
14694440;-0.44500
14697218;-0.44500
14699996;-0.45000
14702774;-0.45000
14705551;-0.46500
14708329;-0.46500
14711107;-0.44000
14713885;-0.43500
14716663;-0.43000
14719440;-0.45000
14722218;-0.44500
14724996;-0.45500
14727774;-0.44000
14730551;-0.44000
14733329;-0.44500
14736107;-0.44500
14738885;-0.45500
14741663;-0.45000
14744440;-0.44500
14747218;-0.44000
14749996;-0.43000
14752774;-0.44500
14755551;-0.45000
14758329;-0.44500
14761107;-0.43500
14763885;-0.44500
14766663;-0.45500
14769440;-0.46500
14772218;-0.48000
14774996;-0.46500
14777774;-0.44500
14780551;-0.44000
14783329;-0.44000
14786107;-0.44500
14788885;-0.45500
14791663;-0.45500
14794440;-0.45500
14797218;-0.44000
14799996;-0.44500
14802774;-0.45000
14805551;-0.46500
14808329;-0.45000
14811107;-0.45500
14813885;-0.45000
14816663;-0.44500
14819440;-0.45000
14822218;-0.45500
14824996;-0.44500
14827774;-0.44000
14830551;-0.42000
14833329;-0.42500
14836107;-0.42500
14838885;-0.43000
14841663;-0.42000
14844440;-0.41000
14847218;-0.39500
14849996;-0.39000
14852774;-0.38000
14855551;-0.39000
14858329;-0.38000
14861107;-0.36000
14863885;-0.34500
14866663;-0.34500
14869440;-0.35500
14872218;-0.36000
14874996;-0.35000
14877774;-0.33000
14880551;-0.33000
14883329;-0.32500
14886107;-0.33500
14888885;-0.35500
14891662;-0.34500
14894440;-0.34500
14897218;-0.33000
14899996;-0.33000
14902774;-0.34000
14905551;-0.36000
14908329;-0.34000
14911107;-0.34000
14913885;-0.35000
14916662;-0.34500
14919440;-0.35000
14922218;-0.36000
14924996;-0.36500
14927774;-0.36000
14930551;-0.35000
14933329;-0.35500
14936107;-0.37500
14938885;-0.38500
14941662;-0.38000
14944440;-0.37000
14947218;-0.35500
14949996;-0.35500
14952774;-0.37000
14955551;-0.37500
14958329;-0.37000
14961107;-0.36000
14963885;-0.35500
14966662;-0.35500
14969440;-0.36000
14972218;-0.36500
14974996;-0.37000
14977774;-0.36500
14980551;-0.35500
14983329;-0.37000
14986107;-0.37000
14988885;-0.40000
14991662;-0.40000
14994440;-0.40000
14997218;-0.39000
14999996;-0.39000
15002774;-0.41000
15005551;-0.42000
15008329;-0.41500
15011107;-0.40000
15013885;-0.39500
15016662;-0.37500
15019440;-0.39500
15022218;-0.41500
15024996;-0.42000
15027774;-0.41500
15030551;-0.41000
15033329;-0.41500
15036107;-0.41000
15038885;-0.41500
15041662;-0.42000
15044440;-0.41500
15047218;-0.41000
15049996;-0.40000
15052774;-0.41500
15055551;-0.41500
15058329;-0.41500
15061107;-0.42000
15063885;-0.40500
15066662;-0.41500
15069440;-0.43000
15072218;-0.43500
15074996;-0.43000
15077774;-0.42000
15080551;-0.41500
15083329;-0.41500
15086107;-0.41500
15088885;-0.42500
15091662;-0.42000
15094440;-0.41000
15097218;-0.40500
15099996;-0.40000
15102774;-0.40500
15105551;-0.41500
15108329;-0.40000
15111107;-0.39500
15113885;-0.38500
15116662;-0.36000
15119440;-0.35000
15122218;-0.37000
15124996;-0.35500
15127774;-0.35000
15130551;-0.34500
15133329;-0.34000
15136107;-0.34500
15138885;-0.35000
15141662;-0.34000
15144440;-0.31500
15147218;-0.33000
15149996;-0.30000
15152774;-0.31500
15155551;-0.32500
15158329;-0.32500
15161107;-0.31000
15163885;-0.31000
15166662;-0.31500
15169440;-0.31500
15172218;-0.34000
15174996;-0.33500
15177774;-0.33500
15180551;-0.31500
15183329;-0.32000
15186107;-0.34000
15188885;-0.35500
15191662;-0.34000
15194440;-0.32000
15197218;-0.30000
15199996;-0.32500
15202774;-0.36000
15205551;-0.38500
15208329;-0.41000
15211107;-0.42000
15213885;-0.42500
15216662;-0.42500
15219440;-0.45000
15222218;-0.46500
15224996;-0.47000
15227774;-0.45500
15230551;-0.45500
15233329;-0.45500
15236107;-0.45500
15238885;-0.48500
15241662;-0.47500
15244440;-0.47000
15247218;-0.45500
15249996;-0.45500
15252774;-0.46500
15255551;-0.47000
15258329;-0.46000
15261107;-0.45500
15263885;-0.45000
15266662;-0.44500
15269440;-0.46500
15272218;-0.48000
15274996;-0.47000
15277774;-0.47000
15280551;-0.47000
15283329;-0.51000
15286107;-0.57000
15288885;-0.60500
15291662;-0.60500
15294440;-0.63000
15297218;-0.66000
15299996;-0.67000
15302773;-0.59000
15305551;-0.46500
15308329;-0.31500
15311107;-0.11000
15313885;0.14500
15316662;0.44500
15319440;0.68000
15322218;0.80000
15324996;0.77000
15327773;0.56000
15330551;0.20000
15333329;-0.21500
15336107;-0.49000
15338885;-0.61500
15341662;-0.63000
15344440;-0.58000
15347218;-0.52000
15349996;-0.49500
15352773;-0.50000
