time_ms;ecg_value
0;-0.17500
2778;-0.15500
5556;-0.12500
8333;-0.11500
11111;-0.13000
13889;-0.15500
16667;-0.17000
19444;-0.18000
22222;-0.20000
25000;-0.22500
27778;-0.23500
30556;-0.25500
33333;-0.24500
36111;-0.24500
38889;-0.25500
41667;-0.25500
44444;-0.26500
47222;-0.27500
50000;-0.27500
52778;-0.26000
55556;-0.26500
58333;-0.27000
61111;-0.28000
63889;-0.28500
66667;-0.28500
69444;-0.27000
72222;-0.26500
75000;-0.27000
77778;-0.27000
80556;-0.27500
83333;-0.27000
86111;-0.26500
88889;-0.27000
91667;-0.27500
94444;-0.28000
97222;-0.30500
100000;-0.32000
102778;-0.34500
105556;-0.39000
108333;-0.40500
111111;-0.43000
113889;-0.48500
116667;-0.49500
119444;-0.44000
122222;-0.33000
125000;-0.19500
127778;-0.07000
130556;0.12500
133333;0.39500
136111;0.67000
138889;0.87000
141667;0.96500
144444;0.91000
147222;0.64500
150000;0.27000
152778;-0.09500
155556;-0.33500
158333;-0.41000
161111;-0.40500
163889;-0.35000
166667;-0.30500
169444;-0.28500
172222;-0.29500
175000;-0.30500
177778;-0.29500
180556;-0.30000
183333;-0.29000
186111;-0.29500
188889;-0.30000
191667;-0.31500
194444;-0.32000
197222;-0.32500
200000;-0.32500
202778;-0.30500
205555;-0.31500
208333;-0.32000
211111;-0.32500
213889;-0.33000
216667;-0.31500
219444;-0.30000
222222;-0.30000
225000;-0.31000
227778;-0.32000
230555;-0.32500
233333;-0.31000
236111;-0.30000
238889;-0.29500
241667;-0.31000
244444;-0.31500
247222;-0.32000
250000;-0.30500
252778;-0.30000
255555;-0.30500
258333;-0.30000
261111;-0.31500
263889;-0.31000
266667;-0.31000
269444;-0.30500
272222;-0.29500
275000;-0.29000
277778;-0.30500
280555;-0.30500
283333;-0.30000
286111;-0.27500
288889;-0.29500
291667;-0.30000
294444;-0.31000
297222;-0.31000
300000;-0.29000
302778;-0.28500
305555;-0.28000
308333;-0.30500
311111;-0.30500
313889;-0.32000
316667;-0.29000
319444;-0.28000
322222;-0.29500
325000;-0.30000
327778;-0.30000
330555;-0.30000
333333;-0.29500
336111;-0.28500
338889;-0.28000
341667;-0.29000
344444;-0.30000
347222;-0.30000
350000;-0.30000
352778;-0.28000
355555;-0.27500
358333;-0.29500
361111;-0.28500
363889;-0.29500
366667;-0.29000
369444;-0.28000
372222;-0.27500
375000;-0.29500
377778;-0.29500
380555;-0.31000
383333;-0.29500
386111;-0.29500
388889;-0.30500
391667;-0.31500
394444;-0.31500
397222;-0.32000
400000;-0.31500
402778;-0.30000
405555;-0.30500
408333;-0.31500
411111;-0.32000
413889;-0.32000
416667;-0.30500
419444;-0.29000
422222;-0.29500
425000;-0.29000
427778;-0.28500
430555;-0.29000
433333;-0.28500
436111;-0.26500
438889;-0.26500
441667;-0.27000
444444;-0.26500
447222;-0.25000
450000;-0.25000
452778;-0.22000
455555;-0.22000
458333;-0.21500
461111;-0.22500
463889;-0.23500
466667;-0.22500
469444;-0.20000
472222;-0.20500
475000;-0.21500
477778;-0.22000
480555;-0.21500
483333;-0.21000
486111;-0.21000
488889;-0.20000
491667;-0.20000
494444;-0.21500
497222;-0.22000
500000;-0.20500
502778;-0.20000
505555;-0.19500
508333;-0.21000
511111;-0.21500
513889;-0.22500
516667;-0.21000
519444;-0.20500
522222;-0.20000
525000;-0.21000
527778;-0.22000
530555;-0.21500
533333;-0.21000
536111;-0.21000
538889;-0.21000
541667;-0.22000
544444;-0.23000
547222;-0.23500
550000;-0.23000
552778;-0.22500
555555;-0.22500
558333;-0.23500
561111;-0.23500
563889;-0.24000
566667;-0.24500
569444;-0.22500
572222;-0.23500
575000;-0.23000
577778;-0.24500
580555;-0.24500
583333;-0.24000
586111;-0.23500
588889;-0.25500
591667;-0.24500
594444;-0.25500
597222;-0.25000
600000;-0.25000
602778;-0.24500
605555;-0.24500
608333;-0.24500
611111;-0.26000
613889;-0.25500
616666;-0.24500
619444;-0.24500
622222;-0.25000
625000;-0.26500
627778;-0.26500
630555;-0.27000
633333;-0.27500
636111;-0.25000
638889;-0.25000
641666;-0.26000
644444;-0.27000
647222;-0.26000
650000;-0.25500
652778;-0.25000
655555;-0.26000
658333;-0.26500
661111;-0.26000
663889;-0.26500
666666;-0.26000
669444;-0.25500
672222;-0.25000
675000;-0.26000
677778;-0.26500
680555;-0.26500
683333;-0.25500
686111;-0.24500
688889;-0.24000
691666;-0.25500
694444;-0.25500
697222;-0.27500
700000;-0.26500
702778;-0.24000
705555;-0.25500
708333;-0.25500
711111;-0.26500
713889;-0.26000
716666;-0.24500
719444;-0.24500
722222;-0.23000
725000;-0.23500
727778;-0.23000
730555;-0.22500
733333;-0.21000
736111;-0.18500
738889;-0.19500
741666;-0.20000
744444;-0.20500
747222;-0.20500
750000;-0.20000
752778;-0.17000
755555;-0.17000
758333;-0.16000
761111;-0.16000
763889;-0.15500
766666;-0.15000
769444;-0.13500
772222;-0.15500
775000;-0.15500
777778;-0.16500
780555;-0.17500
783333;-0.16500
786111;-0.15500
788889;-0.17000
791666;-0.18500
794444;-0.19500
797222;-0.20000
800000;-0.17000
802778;-0.13000
805555;-0.13500
808333;-0.16500
811111;-0.20000
813889;-0.22000
816666;-0.22500
819444;-0.24000
822222;-0.26000
825000;-0.27000
827778;-0.28500
830555;-0.29500
833333;-0.29000
836111;-0.27500
838889;-0.27000
841666;-0.27500
844444;-0.27500
847222;-0.28000
850000;-0.27000
852778;-0.28500
855555;-0.28500
858333;-0.30500
861111;-0.32000
863889;-0.30500
866666;-0.30000
869444;-0.28000
872222;-0.28500
875000;-0.29000
877778;-0.30500
880555;-0.32000
883333;-0.30500
886111;-0.30000
888889;-0.30000
891666;-0.30500
894444;-0.33000
897222;-0.35500
900000;-0.39000
902778;-0.40000
905555;-0.40500
908333;-0.42000
911111;-0.47000
913889;-0.53000
916666;-0.56500
919444;-0.52500
922222;-0.48000
925000;-0.40500
927778;-0.32000
930555;-0.23000
933333;-0.10500
936111;0.08000
938889;0.33000
941666;0.58500
944444;0.76000
947222;0.83500
950000;0.78000
952778;0.55500
955555;0.19500
958333;-0.14500
961111;-0.36000
963889;-0.45000
966666;-0.43500
969444;-0.38000
972222;-0.35500
975000;-0.33500
977778;-0.35000
980555;-0.36500
983333;-0.35000
986111;-0.32000
988889;-0.32000
991666;-0.32000
994444;-0.33500
997222;-0.35000
1000000;-0.33500
1002777;-0.33500
1005555;-0.33500
1008333;-0.33500
1011111;-0.34500
1013889;-0.36500
1016666;-0.35500
1019444;-0.33500
1022222;-0.34000
1025000;-0.33500
1027777;-0.34500
1030555;-0.34000
1033333;-0.33500
1036111;-0.32500
1038889;-0.34000
1041666;-0.34500
1044444;-0.34500
1047222;-0.35000
1050000;-0.33500
1052777;-0.33500
1055555;-0.32000
1058333;-0.33000
1061111;-0.35500
1063889;-0.35000
1066666;-0.34500
1069444;-0.33000
1072222;-0.33000
1075000;-0.33000
1077777;-0.34500
1080555;-0.35000
1083333;-0.33500
1086111;-0.33500
1088889;-0.33500
1091666;-0.34500
1094444;-0.34500
1097222;-0.34500
1100000;-0.33000
1102777;-0.33000
1105555;-0.32000
1108333;-0.33000
1111111;-0.34000
1113889;-0.34500
1116666;-0.33500
1119444;-0.34000
1122222;-0.33500
1125000;-0.34000
1127777;-0.34500
1130555;-0.34500
1133333;-0.33500
1136111;-0.34500
1138889;-0.34000
1141666;-0.35000
1144444;-0.34500
1147222;-0.35000
1150000;-0.33500
1152777;-0.32500
1155555;-0.32500
1158333;-0.32000
1161111;-0.33500
1163889;-0.34000
1166666;-0.34500
1169444;-0.33000
1172222;-0.33500
1175000;-0.34500
1177777;-0.35500
1180555;-0.35000
1183333;-0.35000
1186111;-0.34500
1188889;-0.36500
1191666;-0.37000
1194444;-0.37500
1197222;-0.37000
1200000;-0.35000
1202777;-0.36000
1205555;-0.36000
1208333;-0.36500
1211111;-0.38500
1213889;-0.37500
1216666;-0.36500
1219444;-0.36000
1222222;-0.36000
1225000;-0.36000
1227777;-0.35500
1230555;-0.34000
1233333;-0.32000
1236111;-0.29500
1238889;-0.30000
1241666;-0.28500
1244444;-0.28000
1247222;-0.27500
1250000;-0.27500
1252777;-0.25500
1255555;-0.25000
1258333;-0.25500
1261111;-0.25500
1263889;-0.24500
1266666;-0.24000
1269444;-0.24000
1272222;-0.24000
1275000;-0.24000
1277777;-0.25500
1280555;-0.25000
1283333;-0.25000
1286111;-0.23500
1288889;-0.24000
1291666;-0.25500
1294444;-0.26500
1297222;-0.26500
1300000;-0.26500
1302777;-0.25000
1305555;-0.25500
1308333;-0.26500
1311111;-0.27000
1313889;-0.27000
1316666;-0.25000
1319444;-0.24000
1322222;-0.23000
1325000;-0.24500
1327777;-0.25500
1330555;-0.27000
1333333;-0.26500
1336111;-0.25500
1338889;-0.25500
1341666;-0.27000
1344444;-0.27500
1347222;-0.28000
1350000;-0.27500
1352777;-0.25000
1355555;-0.26500
1358333;-0.27500
1361111;-0.28500
1363889;-0.29500
1366666;-0.28000
1369444;-0.26500
1372222;-0.27500
1375000;-0.28500
1377777;-0.29500
1380555;-0.29000
1383333;-0.27500
1386111;-0.27000
1388888;-0.27000
1391666;-0.28000
1394444;-0.29000
1397222;-0.29500
1400000;-0.29000
1402777;-0.28000
1405555;-0.28500
1408333;-0.29000
1411111;-0.31500
1413888;-0.31000
1416666;-0.30000
1419444;-0.29000
1422222;-0.29000
1425000;-0.29500
1427777;-0.29500
1430555;-0.30500
1433333;-0.30000
1436111;-0.28500
1438888;-0.29500
1441666;-0.29000
1444444;-0.29500
1447222;-0.30000
1450000;-0.29500
1452777;-0.29000
1455555;-0.30500
1458333;-0.30000
1461111;-0.30000
1463888;-0.30500
1466666;-0.29500
1469444;-0.29000
1472222;-0.28000
1475000;-0.28500
1477777;-0.28000
1480555;-0.29500
1483333;-0.29000
1486111;-0.28500
1488888;-0.28500
1491666;-0.29500
1494444;-0.31000
1497222;-0.30000
1500000;-0.30000
1502777;-0.28500
1505555;-0.28000
1508333;-0.27000
1511111;-0.26500
1513888;-0.24500
1516666;-0.22500
1519444;-0.21000
1522222;-0.20500
1525000;-0.22500
1527777;-0.22000
1530555;-0.21500
1533333;-0.19500
1536111;-0.18000
1538888;-0.17500
1541666;-0.19000
1544444;-0.20000
1547222;-0.20500
1550000;-0.19500
1552777;-0.17500
1555555;-0.18500
1558333;-0.19500
1561111;-0.19500
1563888;-0.19000
1566666;-0.20000
1569444;-0.19000
1572222;-0.19000
1575000;-0.20500
1577777;-0.22000
1580555;-0.21500
1583333;-0.19000
1586111;-0.16500
1588888;-0.16000
1591666;-0.19500
1594444;-0.24000
1597222;-0.26000
1600000;-0.25000
1602777;-0.26000
1605555;-0.27500
1608333;-0.29000
1611111;-0.31000
1613888;-0.31000
1616666;-0.30000
1619444;-0.30500
1622222;-0.31000
1625000;-0.32000
1627777;-0.32000
1630555;-0.31500
1633333;-0.31500
1636111;-0.29500
1638888;-0.30000
1641666;-0.31500
1644444;-0.32000
1647222;-0.33000
1650000;-0.32000
1652777;-0.31000
1655555;-0.31500
1658333;-0.32000
1661111;-0.32000
1663888;-0.31500
1666666;-0.32000
1669444;-0.31000
1672222;-0.31000
1675000;-0.31500
1677777;-0.33500
1680555;-0.36000
1683333;-0.38500
1686111;-0.41500
1688888;-0.42000
1691666;-0.44500
1694444;-0.50000
1697222;-0.51000
1700000;-0.45000
1702777;-0.33500
1705555;-0.19500
1708333;-0.05500
1711111;0.14500
1713888;0.40500
1716666;0.67500
1719444;0.87000
1722222;0.91500
1725000;0.79500
1727777;0.48500
1730555;0.08000
1733333;-0.22500
1736111;-0.38000
1738888;-0.43500
1741666;-0.43500
1744444;-0.40000
1747222;-0.37000
1750000;-0.34500
1752777;-0.33500
1755555;-0.33500
1758333;-0.34000
1761111;-0.35000
1763888;-0.35500
1766666;-0.33500
1769444;-0.33500
1772222;-0.33500
1775000;-0.34000
1777777;-0.35500
1780555;-0.35500
1783333;-0.35000
1786111;-0.33500
1788888;-0.34000
1791666;-0.34500
1794444;-0.35000
1797222;-0.35500
1799999;-0.33500
1802777;-0.33000
1805555;-0.33000
1808333;-0.33000
1811111;-0.33500
1813888;-0.35000
1816666;-0.35000
1819444;-0.32500
1822222;-0.33500
1824999;-0.35000
1827777;-0.35500
1830555;-0.36000
1833333;-0.35500
1836111;-0.34500
1838888;-0.35000
1841666;-0.35500
1844444;-0.36500
1847222;-0.37000
1849999;-0.35000
1852777;-0.34500
1855555;-0.34000
1858333;-0.34500
1861111;-0.36000
1863888;-0.35000
1866666;-0.34500
1869444;-0.34000
1872222;-0.33500
1874999;-0.36500
1877777;-0.36000
1880555;-0.35500
1883333;-0.35000
1886111;-0.34000
1888888;-0.34000
1891666;-0.34500
1894444;-0.34000
1897222;-0.34500
1899999;-0.33500
1902777;-0.33500
1905555;-0.34000
1908333;-0.34000
1911111;-0.34500
1913888;-0.34500
1916666;-0.34000
1919444;-0.34000
1922222;-0.33500
1924999;-0.34500
1927777;-0.35500
1930555;-0.35500
1933333;-0.34500
1936111;-0.35000
1938888;-0.33500
1941666;-0.35000
1944444;-0.35000
1947222;-0.36000
1949999;-0.34500
1952777;-0.34500
1955555;-0.34500
1958333;-0.35000
1961111;-0.37000
1963888;-0.37500
1966666;-0.37000
1969444;-0.36000
1972222;-0.37500
1974999;-0.36500
1977777;-0.39000
1980555;-0.39000
1983333;-0.38500
1986111;-0.38000
1988888;-0.38000
1991666;-0.38500
1994444;-0.39000
1997222;-0.39000
1999999;-0.39000
2002777;-0.36000
2005555;-0.36000
2008333;-0.35500
2011111;-0.34500
2013888;-0.33000
2016666;-0.30000
2019444;-0.30000
2022222;-0.29000
2024999;-0.28500
2027777;-0.27500
2030555;-0.28000
2033333;-0.26000
2036111;-0.23500
2038888;-0.22500
2041666;-0.22500
2044444;-0.22000
2047222;-0.22000
2049999;-0.20500
2052777;-0.20000
2055555;-0.20000
2058333;-0.21000
2061111;-0.21500
2063888;-0.21500
2066666;-0.21000
2069444;-0.20000
2072222;-0.20500
2074999;-0.21000
2077777;-0.21500
2080555;-0.21500
2083333;-0.21000
2086111;-0.19500
2088888;-0.20000
2091666;-0.19000
2094444;-0.19500
2097222;-0.19500
2099999;-0.20000
2102777;-0.19500
2105555;-0.19000
2108333;-0.19000
2111111;-0.20000
2113888;-0.20500
2116666;-0.19500
2119444;-0.19000
2122222;-0.19000
2124999;-0.20000
2127777;-0.20000
2130555;-0.21000
2133333;-0.20000
2136111;-0.19000
2138888;-0.20000
2141666;-0.20500
2144444;-0.22000
2147222;-0.22000
2149999;-0.21000
2152777;-0.20500
2155555;-0.21000
2158333;-0.21500
2161111;-0.21000
2163888;-0.21000
2166666;-0.21000
2169444;-0.20500
2172222;-0.20500
2174999;-0.21500
2177777;-0.22000
2180555;-0.22500
2183333;-0.20500
2186110;-0.20500
2188888;-0.21000
2191666;-0.21500
2194444;-0.21500
2197222;-0.23500
2199999;-0.23000
2202777;-0.22000
2205555;-0.20000
2208333;-0.21000
2211110;-0.21500
2213888;-0.22000
2216666;-0.22500
2219444;-0.21000
2222222;-0.21500
2224999;-0.21500
2227777;-0.22000
2230555;-0.21500
2233333;-0.21500
2236110;-0.20500
2238888;-0.20500
2241666;-0.20500
2244444;-0.21500
2247222;-0.23000
2249999;-0.21000
2252777;-0.19500
2255555;-0.19000
2258333;-0.19500
2261110;-0.21000
2263888;-0.21000
2266666;-0.20500
2269444;-0.19500
2272222;-0.20000
2274999;-0.20500
2277777;-0.21500
2280555;-0.21500
2283333;-0.20000
2286110;-0.19500
2288888;-0.20000
2291666;-0.21000
2294444;-0.21000
2297222;-0.20500
2299999;-0.20500
2302777;-0.19000
2305555;-0.19500
2308333;-0.20000
2311110;-0.21000
2313888;-0.20000
2316666;-0.19000
2319444;-0.18000
2322222;-0.16500
2324999;-0.18000
2327777;-0.17000
2330555;-0.15500
2333333;-0.13500
2336110;-0.12000
2338888;-0.11500
2341666;-0.12500
2344444;-0.12500
2347222;-0.12500
2349999;-0.10500
2352777;-0.08500
2355555;-0.08000
2358333;-0.08500
2361110;-0.10000
2363888;-0.10000
2366666;-0.09500
2369444;-0.09500
2372222;-0.10500
2374999;-0.11000
2377777;-0.11000
2380555;-0.11500
2383333;-0.12500
2386110;-0.11500
2388888;-0.11500
2391666;-0.10500
2394444;-0.10500
2397222;-0.08000
2399999;-0.08500
2402777;-0.10000
2405555;-0.12500
2408333;-0.14000
2411110;-0.16500
2413888;-0.18000
2416666;-0.19000
2419444;-0.19000
2422222;-0.19500
2424999;-0.19500
2427777;-0.21500
2430555;-0.21000
2433333;-0.19500
2436110;-0.20500
2438888;-0.20500
2441666;-0.21000
2444444;-0.22000
2447222;-0.23000
2449999;-0.22500
2452777;-0.21000
2455555;-0.21000
2458333;-0.22000
2461110;-0.22500
2463888;-0.23000
2466666;-0.21500
2469444;-0.21500
2472222;-0.21000
2474999;-0.21000
2477777;-0.22000
2480555;-0.23000
2483333;-0.23000
2486110;-0.24500
2488888;-0.28000
2491666;-0.31000
2494444;-0.33500
2497222;-0.36500
2499999;-0.39500
2502777;-0.40500
2505555;-0.36000
2508333;-0.25500
2511110;-0.12000
2513888;0.01000
2516666;0.16000
2519444;0.34000
2522222;0.57500
2524999;0.81000
2527777;0.97000
2530555;1.08500
2533333;1.18500
2536110;1.24500
2538888;1.17000
2541666;0.98500
2544444;0.64000
2547222;0.23500
2549999;-0.11000
2552777;-0.29500
2555555;-0.34000
2558333;-0.32000
2561110;-0.27500
2563888;-0.24500
2566666;-0.22000
2569444;-0.21000
2572222;-0.22000
2574999;-0.23500
2577777;-0.24000
2580555;-0.23500
2583333;-0.23000
2586110;-0.22500
2588888;-0.22500
2591666;-0.22500
2594444;-0.24000
2597221;-0.24500
2599999;-0.23000
2602777;-0.23000
2605555;-0.23500
2608333;-0.24000
2611110;-0.24500
2613888;-0.24500
2616666;-0.24500
2619444;-0.24000
2622221;-0.24000
2624999;-0.24500
2627777;-0.24500
2630555;-0.25000
2633333;-0.23500
2636110;-0.22000
2638888;-0.23000
2641666;-0.22000
2644444;-0.23500
2647221;-0.24500
2649999;-0.23500
2652777;-0.24500
2655555;-0.23000
2658333;-0.22500
2661110;-0.24500
2663888;-0.25000
2666666;-0.24000
2669444;-0.23500
2672221;-0.23000
2674999;-0.24000
2677777;-0.24000
2680555;-0.24500
2683333;-0.24000
2686110;-0.23000
2688888;-0.24000
2691666;-0.23500
2694444;-0.24500
2697221;-0.24500
2699999;-0.24500
2702777;-0.24000
2705555;-0.23000
2708333;-0.24000
2711110;-0.24000
2713888;-0.23000
2716666;-0.23000
2719444;-0.23000
2722221;-0.23000
2724999;-0.24000
2727777;-0.23000
2730555;-0.24000
2733333;-0.22500
2736110;-0.21500
2738888;-0.21000
2741666;-0.21500
2744444;-0.23500
2747221;-0.23500
2749999;-0.23000
2752777;-0.22000
2755555;-0.21500
2758333;-0.22000
2761110;-0.24000
2763888;-0.24500
2766666;-0.24500
2769444;-0.23500
2772221;-0.22500
2774999;-0.24000
2777777;-0.25500
2780555;-0.26500
2783333;-0.24500
2786110;-0.25000
2788888;-0.25000
2791666;-0.25500
2794444;-0.26000
2797221;-0.25000
2799999;-0.24000
2802777;-0.24500
2805555;-0.24000
2808333;-0.25000
2811110;-0.25000
2813888;-0.26000
2816666;-0.25500
2819444;-0.24000
2822221;-0.24000
2824999;-0.22000
2827777;-0.25500
2830555;-0.24500
2833333;-0.22000
2836110;-0.22500
2838888;-0.21000
2841666;-0.21500
2844444;-0.21000
2847221;-0.19500
2849999;-0.18000
2852777;-0.15000
2855555;-0.15000
2858333;-0.14500
2861110;-0.16000
2863888;-0.15000
2866666;-0.14000
2869444;-0.13000
2872221;-0.13500
2874999;-0.13500
2877777;-0.14000
2880555;-0.14000
2883333;-0.14000
2886110;-0.13000
2888888;-0.11500
2891666;-0.12500
2894444;-0.14000
2897221;-0.14500
2899999;-0.13000
2902777;-0.12500
2905555;-0.12500
2908333;-0.13000
2911110;-0.15000
2913888;-0.15500
2916666;-0.14500
2919444;-0.14000
2922221;-0.12500
2924999;-0.12500
2927777;-0.14500
2930555;-0.15000
2933333;-0.14000
2936110;-0.13500
2938888;-0.13500
2941666;-0.14500
2944444;-0.15000
2947221;-0.16000
2949999;-0.15000
2952777;-0.13000
2955555;-0.13500
2958333;-0.15000
2961110;-0.15000
2963888;-0.16000
2966666;-0.16000
2969444;-0.15000
2972221;-0.15500
2974999;-0.15500
2977777;-0.16000
2980555;-0.18000
2983332;-0.17500
2986110;-0.17000
2988888;-0.16500
2991666;-0.17500
2994444;-0.18500
2997221;-0.18500
2999999;-0.18500
3002777;-0.16500
3005555;-0.17000
3008332;-0.17500
3011110;-0.19000
3013888;-0.18500
3016666;-0.17000
3019444;-0.17000
3022221;-0.18000
3024999;-0.18000
3027777;-0.19000
3030555;-0.19500
3033332;-0.19500
3036110;-0.17000
3038888;-0.19000
3041666;-0.20000
3044444;-0.20500
3047221;-0.21000
3049999;-0.20000
3052777;-0.20000
3055555;-0.20500
3058332;-0.20000
3061110;-0.20000
3063888;-0.20500
3066666;-0.19500
3069444;-0.18000
3072221;-0.18000
3074999;-0.18000
3077777;-0.19500
3080555;-0.19500
3083332;-0.19500
3086110;-0.18500
3088888;-0.18500
3091666;-0.18500
3094444;-0.19500
3097221;-0.20000
3099999;-0.18500
3102777;-0.17500
3105555;-0.18500
3108332;-0.19000
3111110;-0.20000
3113888;-0.20500
3116666;-0.19500
3119444;-0.19000
3122221;-0.18500
3124999;-0.19000
3127777;-0.20000
3130555;-0.20500
3133332;-0.20000
3136110;-0.18500
3138888;-0.17500
3141666;-0.17000
3144444;-0.17000
3147221;-0.15000
3149999;-0.12500
3152777;-0.11500
3155555;-0.11000
3158332;-0.11500
3161110;-0.13000
3163888;-0.12000
3166666;-0.09500
3169444;-0.09500
3172221;-0.08000
3174999;-0.08500
3177777;-0.09500
3180555;-0.09000
3183332;-0.08500
3186110;-0.08000
3188888;-0.08000
3191666;-0.09000
3194444;-0.11500
3197221;-0.12500
3199999;-0.11000
3202777;-0.10500
3205555;-0.11000
3208332;-0.13000
3211110;-0.13500
3213888;-0.13500
3216666;-0.10000
3219444;-0.08000
3222221;-0.08000
3224999;-0.11000
3227777;-0.14500
3230555;-0.15500
3233332;-0.16500
3236110;-0.16500
3238888;-0.18500
3241666;-0.19000
3244444;-0.20500
3247221;-0.22000
3249999;-0.21500
3252777;-0.20500
3255555;-0.20000
3258332;-0.20000
3261110;-0.21500
3263888;-0.22500
3266666;-0.21500
3269444;-0.21000
3272221;-0.21000
3274999;-0.22500
3277777;-0.24000
3280555;-0.24500
3283332;-0.23500
3286110;-0.23500
3288888;-0.23500
3291666;-0.24000
3294444;-0.24000
3297221;-0.25000
3299999;-0.25000
3302777;-0.23500
3305555;-0.23500
3308332;-0.23000
3311110;-0.24000
3313888;-0.25500
3316666;-0.25500
3319444;-0.28000
3322221;-0.32500
3324999;-0.35500
3327777;-0.38000
3330555;-0.41000
3333332;-0.44500
3336110;-0.44000
3338888;-0.38000
3341666;-0.26500
3344444;-0.14000
3347221;-0.00500
3349999;0.21500
3352777;0.48500
3355555;0.74000
3358332;0.90500
3361110;0.98000
3363888;0.88000
3366666;0.62000
3369444;0.24500
3372221;-0.10500
3374999;-0.33500
3377777;-0.39000
3380555;-0.36000
3383332;-0.30000
3386110;-0.25000
3388888;-0.27000
3391666;-0.26000
3394443;-0.27500
3397221;-0.27500
3399999;-0.26500
3402777;-0.26000
3405555;-0.26500
3408332;-0.27000
3411110;-0.27000
3413888;-0.28000
3416666;-0.27000
3419443;-0.25000
3422221;-0.24000
3424999;-0.25500
3427777;-0.26000
3430555;-0.27000
3433332;-0.26000
3436110;-0.27000
3438888;-0.26500
3441666;-0.27500
3444443;-0.28000
3447221;-0.27500
3449999;-0.27500
3452777;-0.27000
3455555;-0.27500
3458332;-0.26000
3461110;-0.27500
3463888;-0.27500
3466666;-0.26500
3469443;-0.25500
3472221;-0.26000
3474999;-0.26000
3477777;-0.27000
3480555;-0.26500
3483332;-0.26000
3486110;-0.25500
3488888;-0.26000
3491666;-0.27000
3494443;-0.26000
3497221;-0.27000
3499999;-0.27500
3502777;-0.27000
3505555;-0.26000
3508332;-0.26000
3511110;-0.26500
3513888;-0.27000
3516666;-0.27000
3519443;-0.28000
3522221;-0.26500
3524999;-0.25000
3527777;-0.26000
3530555;-0.27000
3533332;-0.26500
3536110;-0.27000
3538888;-0.27000
3541666;-0.26000
3544443;-0.27000
3547221;-0.27500
3549999;-0.26500
3552777;-0.26000
3555555;-0.26500
3558332;-0.26000
3561110;-0.27000
3563888;-0.27000
3566666;-0.25500
3569443;-0.25500
3572221;-0.26000
3574999;-0.25500
3577777;-0.26500
3580555;-0.26500
3583332;-0.26500
3586110;-0.25500
3588888;-0.26000
3591666;-0.27000
3594443;-0.28500
3597221;-0.29000
3599999;-0.27000
3602777;-0.26500
3605555;-0.26500
3608332;-0.27000
3611110;-0.28000
3613888;-0.28500
3616666;-0.27000
3619443;-0.26500
3622221;-0.26000
3624999;-0.27500
3627777;-0.28000
3630555;-0.29000
3633332;-0.28500
3636110;-0.27500
3638888;-0.26500
3641666;-0.27000
3644443;-0.28000
3647221;-0.28500
3649999;-0.28000
3652777;-0.27000
3655555;-0.26500
3658332;-0.27500
3661110;-0.27500
3663888;-0.28500
3666666;-0.26500
3669443;-0.27000
3672221;-0.25500
3674999;-0.25500
3677777;-0.25500
3680555;-0.25500
3683332;-0.23500
3686110;-0.23000
3688888;-0.22000
3691666;-0.22000
3694443;-0.20000
3697221;-0.21500
3699999;-0.20000
3702777;-0.18000
3705555;-0.18500
3708332;-0.17500
3711110;-0.17500
3713888;-0.18000
3716666;-0.19000
3719443;-0.17000
3722221;-0.17500
3724999;-0.16500
3727777;-0.18000
3730555;-0.18000
3733332;-0.17000
3736110;-0.16500
3738888;-0.16000
3741666;-0.17000
3744443;-0.18500
3747221;-0.19000
3749999;-0.18000
3752777;-0.19000
3755555;-0.17500
3758332;-0.18000
3761110;-0.19000
3763888;-0.20000
3766666;-0.18500
3769443;-0.17500
3772221;-0.18000
3774999;-0.18500
3777777;-0.19000
3780554;-0.19000
3783332;-0.19500
3786110;-0.17500
3788888;-0.18000
3791666;-0.18500
3794443;-0.19500
3797221;-0.20500
3799999;-0.20000
3802777;-0.21000
3805554;-0.20000
3808332;-0.20500
3811110;-0.20500
3813888;-0.21000
3816666;-0.21500
3819443;-0.22000
3822221;-0.21000
3824999;-0.22000
3827777;-0.22000
3830554;-0.24000
3833332;-0.22500
3836110;-0.23000
3838888;-0.22000
3841666;-0.22500
3844443;-0.24000
3847221;-0.24000
3849999;-0.23500
3852777;-0.22500
3855554;-0.22000
3858332;-0.22500
3861110;-0.23000
3863888;-0.23500
3866666;-0.22500
3869443;-0.22000
3872221;-0.21000
3874999;-0.22500
3877777;-0.22500
3880554;-0.24000
3883332;-0.23500
3886110;-0.23000
3888888;-0.23000
3891666;-0.24000
3894443;-0.25000
3897221;-0.25500
3899999;-0.25500
3902777;-0.24000
3905554;-0.24500
3908332;-0.24500
3911110;-0.25000
3913888;-0.26000
3916666;-0.25500
3919443;-0.24000
3922221;-0.23500
3924999;-0.23500
3927777;-0.24000
3930554;-0.25000
3933332;-0.23000
3936110;-0.23000
3938888;-0.23000
3941666;-0.22500
3944443;-0.22500
3947221;-0.23500
3949999;-0.23000
3952777;-0.23000
3955554;-0.23500
3958332;-0.23000
3961110;-0.24000
3963888;-0.23500
3966666;-0.24000
3969443;-0.24000
3972221;-0.23500
3974999;-0.24500
3977777;-0.24500
3980554;-0.24500
3983332;-0.23000
3986110;-0.20500
3988888;-0.19500
3991666;-0.18500
3994443;-0.17500
3997221;-0.18500
3999999;-0.17500
4002777;-0.16500
4005554;-0.17500
4008332;-0.16000
4011110;-0.17500
4013888;-0.16000
4016666;-0.14500
4019443;-0.12500
4022221;-0.13500
4024999;-0.13000
4027777;-0.15500
4030554;-0.15000
4033332;-0.14500
4036110;-0.14500
4038888;-0.15500
4041666;-0.16500
4044443;-0.17500
4047221;-0.18000
4049999;-0.16500
4052777;-0.18000
4055554;-0.18000
4058332;-0.18500
4061110;-0.17500
4063888;-0.15500
4066666;-0.13500
4069443;-0.14000
4072221;-0.17000
4074999;-0.20500
4077777;-0.22500
4080554;-0.23500
4083332;-0.25000
4086110;-0.25000
4088888;-0.26000
4091666;-0.27000
4094443;-0.28500
4097221;-0.30500
4099999;-0.28500
4102777;-0.28000
4105554;-0.28500
4108332;-0.29500
4111110;-0.29500
4113888;-0.30000
4116666;-0.29500
4119443;-0.29000
4122221;-0.29500
4124999;-0.29500
4127777;-0.30000
4130554;-0.31500
4133332;-0.30000
4136110;-0.30000
4138888;-0.29000
4141666;-0.30000
4144443;-0.32500
4147221;-0.33000
4149999;-0.32000
4152777;-0.31500
4155554;-0.32500
4158332;-0.34000
4161110;-0.39000
4163888;-0.41000
4166666;-0.42500
4169443;-0.46500
4172221;-0.51000
4174999;-0.51000
4177777;-0.46500
4180554;-0.36500
4183332;-0.23500
4186110;-0.08000
4188888;0.12000
4191665;0.39500
4194443;0.65000
4197221;0.83500
4199999;0.94000
4202777;0.95000
4205554;0.85000
4208332;0.65500
4211110;0.44000
4213888;0.18500
4216665;-0.04500
4219443;-0.24500
4222221;-0.39000
4224999;-0.46500
4227777;-0.47000
4230554;-0.43500
4233332;-0.38000
4236110;-0.36000
4238888;-0.35500
4241665;-0.36500
4244443;-0.35500
4247221;-0.36000
4249999;-0.37000
4252777;-0.36000
4255554;-0.36000
4258332;-0.36500
4261110;-0.38000
4263888;-0.38000
4266665;-0.38500
4269443;-0.36000
4272221;-0.35500
4274999;-0.36500
4277777;-0.37500
4280554;-0.38500
4283332;-0.37500
4286110;-0.37000
4288888;-0.36500
4291665;-0.38000
4294443;-0.38500
4297221;-0.38500
4299999;-0.36500
4302777;-0.36000
4305554;-0.36000
4308332;-0.36500
4311110;-0.37500
4313888;-0.38500
4316665;-0.38000
4319443;-0.37000
4322221;-0.36500
4324999;-0.36500
4327777;-0.38000
4330554;-0.38500
4333332;-0.38000
4336110;-0.37000
4338888;-0.35500
4341665;-0.36500
4344443;-0.38000
4347221;-0.38500
4349999;-0.38000
4352777;-0.38500
4355554;-0.39000
4358332;-0.40000
4361110;-0.41000
4363888;-0.41000
4366665;-0.39000
4369443;-0.39000
4372221;-0.39500
4374999;-0.41000
4377777;-0.40500
4380554;-0.39500
4383332;-0.38500
4386110;-0.38000
4388888;-0.38000
4391665;-0.38000
4394443;-0.39000
4397221;-0.39500
4399999;-0.39500
4402777;-0.38000
4405554;-0.37500
4408332;-0.38000
4411110;-0.38500
4413888;-0.39000
4416665;-0.39500
4419443;-0.38500
4422221;-0.39000
4424999;-0.39500
4427777;-0.41000
4430554;-0.42500
4433332;-0.42500
4436110;-0.41000
4438888;-0.40000
4441665;-0.39500
4444443;-0.39000
4447221;-0.40500
4449999;-0.40000
4452777;-0.38500
4455554;-0.38500
4458332;-0.39000
4461110;-0.40500
4463888;-0.43000
4466665;-0.42000
4469443;-0.44000
4472221;-0.41500
4474999;-0.42000
4477777;-0.42500
4480554;-0.44500
4483332;-0.42500
4486110;-0.42500
4488888;-0.42000
4491665;-0.43500
4494443;-0.43500
4497221;-0.44500
4499999;-0.44000
4502777;-0.42500
4505554;-0.42500
4508332;-0.41500
4511110;-0.40000
4513888;-0.40000
4516665;-0.37500
4519443;-0.35500
4522221;-0.35000
4524999;-0.35500
4527777;-0.36500
4530554;-0.36500
4533332;-0.33500
4536110;-0.32500
4538888;-0.31500
4541665;-0.31500
4544443;-0.30500
4547221;-0.32500
4549999;-0.32000
4552777;-0.31500
4555554;-0.31000
4558332;-0.30500
4561110;-0.30500
4563888;-0.32500
4566665;-0.32500
4569443;-0.32000
4572221;-0.31000
4574999;-0.32000
4577776;-0.32000
4580554;-0.33500
4583332;-0.32500
4586110;-0.32000
4588888;-0.30500
4591665;-0.31500
4594443;-0.31000
4597221;-0.33000
4599999;-0.32000
4602776;-0.31500
4605554;-0.30500
4608332;-0.31500
4611110;-0.32000
4613888;-0.33000
4616665;-0.33000
4619443;-0.33000
4622221;-0.33000
4624999;-0.32000
4627776;-0.32500
4630554;-0.33500
4633332;-0.33000
4636110;-0.34000
4638888;-0.33500
4641665;-0.35000
4644443;-0.35000
4647221;-0.36000
4649999;-0.34500
4652776;-0.33000
4655554;-0.33000
4658332;-0.34000
4661110;-0.36000
4663888;-0.36000
4666665;-0.36500
4669443;-0.36000
4672221;-0.36000
4674999;-0.35500
4677776;-0.37500
4680554;-0.37000
4683332;-0.36000
4686110;-0.34500
4688888;-0.35000
4691665;-0.36000
4694443;-0.36000
4697221;-0.37500
4699999;-0.38000
4702776;-0.36000
4705554;-0.36000
4708332;-0.35500
4711110;-0.36500
4713888;-0.36500
4716665;-0.35500
4719443;-0.36000
4722221;-0.34000
4724999;-0.35500
4727776;-0.37000
4730554;-0.37000
4733332;-0.36500
4736110;-0.37000
4738888;-0.36500
4741665;-0.36500
4744443;-0.37000
4747221;-0.37500
4749999;-0.37000
4752776;-0.36500
4755554;-0.36500
4758332;-0.37000
4761110;-0.37000
4763888;-0.38500
4766665;-0.38500
4769443;-0.37000
4772221;-0.37000
4774999;-0.37000
4777776;-0.37000
4780554;-0.36000
4783332;-0.36500
4786110;-0.36500
4788888;-0.35500
4791665;-0.35500
4794443;-0.36500
4797221;-0.38500
4799999;-0.38000
4802776;-0.36000
4805554;-0.35500
4808332;-0.36500
4811110;-0.35000
4813888;-0.34000
4816665;-0.32500
4819443;-0.31000
4822221;-0.30500
4824999;-0.30500
4827776;-0.32000
4830554;-0.32000
4833332;-0.32500
4836110;-0.31000
4838888;-0.30500
4841665;-0.30500
4844443;-0.30000
4847221;-0.30000
4849999;-0.28500
4852776;-0.26500
4855554;-0.25500
4858332;-0.25500
4861110;-0.27000
4863888;-0.28000
4866665;-0.30000
4869443;-0.30000
4872221;-0.29500
4874999;-0.30000
4877776;-0.30500
4880554;-0.32500
4883332;-0.31000
4886110;-0.29500
4888888;-0.28500
4891665;-0.28000
4894443;-0.28500
4897221;-0.30500
4899999;-0.33000
4902776;-0.34500
4905554;-0.34000
4908332;-0.36500
4911110;-0.38000
4913888;-0.39000
4916665;-0.38500
4919443;-0.37500
4922221;-0.38000
4924999;-0.39000
4927776;-0.39500
4930554;-0.39500
4933332;-0.40500
4936110;-0.39000
4938888;-0.40000
4941665;-0.39000
4944443;-0.39500
4947221;-0.41500
4949999;-0.40500
4952776;-0.40500
4955554;-0.41000
4958332;-0.41000
4961110;-0.42000
4963887;-0.43000
4966665;-0.42000
4969443;-0.40000
4972221;-0.39500
4974999;-0.39000
4977776;-0.40500
4980554;-0.39500
4983332;-0.39000
4986110;-0.37500
4988887;-0.39000
4991665;-0.38500
4994443;-0.40500
4997221;-0.44500
4999999;-0.47500
5002776;-0.48000
5005554;-0.49500
5008332;-0.50500
5011110;-0.53500
5013887;-0.59500
5016665;-0.59500
5019443;-0.56000
5022221;-0.46000
5024999;-0.33500
5027776;-0.20000
5030554;-0.04500
5033332;0.18500
5036110;0.46000
5038887;0.67000
5041665;0.79500
5044443;0.80000
5047221;0.64500
5049999;0.32000
5052776;-0.03000
5055554;-0.31500
5058332;-0.47500
5061110;-0.53000
5063887;-0.52000
5066665;-0.49500
5069443;-0.46500
5072221;-0.43500
5074999;-0.44000
5077776;-0.45000
5080554;-0.45000
5083332;-0.44500
5086110;-0.42500
5088887;-0.43500
5091665;-0.43500
5094443;-0.43500
5097221;-0.45000
5099999;-0.45000
5102776;-0.44500
5105554;-0.43500
5108332;-0.44500
5111110;-0.45000
5113887;-0.45500
5116665;-0.45000
5119443;-0.44000
5122221;-0.43500
5124999;-0.44000
5127776;-0.44500
5130554;-0.45000
5133332;-0.45000
5136110;-0.44000
5138887;-0.44000
5141665;-0.43500
5144443;-0.45000
5147221;-0.46000
5149999;-0.44500
5152776;-0.43500
5155554;-0.44000
5158332;-0.43500
5161110;-0.44000
5163887;-0.44000
5166665;-0.44000
5169443;-0.43000
5172221;-0.42500
5174999;-0.43000
5177776;-0.45000
5180554;-0.46000
5183332;-0.45500
5186110;-0.44000
5188887;-0.44500
5191665;-0.44000
5194443;-0.45000
5197221;-0.45000
5199999;-0.44000
5202776;-0.43500
5205554;-0.43000
5208332;-0.42500
5211110;-0.44500
5213887;-0.45500
5216665;-0.44500
5219443;-0.44000
5222221;-0.42500
5224999;-0.42500
5227776;-0.42500
5230554;-0.44000
5233332;-0.44000
5236110;-0.42500
5238887;-0.42000
5241665;-0.43000
5244443;-0.44000
5247221;-0.45000
5249999;-0.44000
5252776;-0.44000
5255554;-0.44000
5258332;-0.43500
5261110;-0.44000
5263887;-0.45500
5266665;-0.45500
5269443;-0.44000
5272221;-0.43500
5274999;-0.44500
5277776;-0.45000
5280554;-0.46000
5283332;-0.46000
5286110;-0.45500
5288887;-0.45000
5291665;-0.45500
5294443;-0.46500
5297221;-0.48000
5299999;-0.47000
5302776;-0.46500
5305554;-0.46500
5308332;-0.47000
5311110;-0.48000
5313887;-0.48000
5316665;-0.48500
5319443;-0.48000
5322221;-0.46500
5324999;-0.46500
5327776;-0.47500
5330554;-0.49500
5333332;-0.47000
5336110;-0.46500
5338887;-0.46500
5341665;-0.45000
5344443;-0.46000
5347221;-0.47000
5349999;-0.45000
5352776;-0.44500
5355554;-0.43500
5358332;-0.42000
5361110;-0.42000
5363887;-0.41000
5366665;-0.39000
5369443;-0.37000
5372221;-0.36000
5374998;-0.35500
5377776;-0.35000
5380554;-0.34000
5383332;-0.34000
5386110;-0.33000
5388887;-0.32000
5391665;-0.32000
5394443;-0.32000
5397221;-0.32500
5399998;-0.31500
5402776;-0.30000
5405554;-0.29500
5408332;-0.30000
5411110;-0.31000
5413887;-0.31000
5416665;-0.31000
5419443;-0.31000
5422221;-0.30000
5424998;-0.30500
5427776;-0.31000
5430554;-0.31500
5433332;-0.31000
5436110;-0.30000
5438887;-0.29000
5441665;-0.30000
5444443;-0.31500
5447221;-0.32000
5449998;-0.31500
5452776;-0.30500
5455554;-0.30000
5458332;-0.30000
5461110;-0.30500
5463887;-0.32000
5466665;-0.31000
5469443;-0.31000
5472221;-0.29500
5474998;-0.30500
5477776;-0.31500
5480554;-0.32500
5483332;-0.32000
5486110;-0.32000
5488887;-0.31000
5491665;-0.31500
5494443;-0.32000
5497221;-0.33000
5499998;-0.32000
5502776;-0.31000
5505554;-0.30500
5508332;-0.31500
5511110;-0.31500
5513887;-0.33000
5516665;-0.33000
5519443;-0.32000
5522221;-0.31000
5524998;-0.33000
5527776;-0.33000
5530554;-0.34500
5533332;-0.33500
5536110;-0.33000
5538887;-0.32000
5541665;-0.32000
5544443;-0.33500
5547221;-0.33500
5549998;-0.34000
5552776;-0.33500
5555554;-0.33000
5558332;-0.33000
5561110;-0.34500
5563887;-0.35000
5566665;-0.34500
5569443;-0.34000
5572221;-0.33500
5574998;-0.33500
5577776;-0.33500
5580554;-0.36500
5583332;-0.35000
5586110;-0.33500
5588887;-0.33000
5591665;-0.32000
5594443;-0.34500
5597221;-0.35500
5599998;-0.35000
5602776;-0.33000
5605554;-0.33000
5608332;-0.33000
5611110;-0.33500
5613887;-0.35000
5616665;-0.33500
5619443;-0.32000
5622221;-0.33000
5624998;-0.33000
5627776;-0.33000
5630554;-0.33500
5633332;-0.33500
5636110;-0.33000
5638887;-0.32000
5641665;-0.33000
5644443;-0.34500
5647221;-0.34000
5649998;-0.33500
5652776;-0.32000
5655554;-0.32000
5658332;-0.31500
5661110;-0.32000
5663887;-0.32000
5666665;-0.32500
5669443;-0.31500
5672221;-0.31000
5674998;-0.31500
5677776;-0.32000
5680554;-0.33500
5683332;-0.32500
5686110;-0.30000
5688887;-0.28000
5691665;-0.26500
5694443;-0.27000
5697221;-0.27500
5699998;-0.26000
5702776;-0.26000
5705554;-0.25000
5708332;-0.24500
5711110;-0.25000
5713887;-0.25500
5716665;-0.24500
5719443;-0.22000
5722221;-0.21500
5724998;-0.22000
5727776;-0.23000
5730554;-0.24000
5733332;-0.24000
5736110;-0.23500
5738887;-0.23500
5741665;-0.23000
5744443;-0.23500
5747221;-0.24500
5749998;-0.24500
5752776;-0.23500
5755554;-0.22500
5758332;-0.20500
5761109;-0.19500
5763887;-0.20500
5766665;-0.21000
5769443;-0.22500
5772221;-0.24000
5774998;-0.25000
5777776;-0.27500
5780554;-0.29500
5783332;-0.31000
5786109;-0.30500
5788887;-0.30500
5791665;-0.32500
5794443;-0.34000
5797221;-0.37000
5799998;-0.36000
5802776;-0.36000
5805554;-0.35000
5808332;-0.34500
5811109;-0.35000
5813887;-0.36500
5816665;-0.36500
5819443;-0.35500
5822221;-0.34500
5824998;-0.35000
5827776;-0.35000
5830554;-0.36000
5833332;-0.35500
5836109;-0.36000
5838887;-0.34500
5841665;-0.36000
5844443;-0.35500
5847221;-0.36500
5849998;-0.36500
5852776;-0.36000
5855554;-0.37000
5858332;-0.41000
5861109;-0.45500
5863887;-0.50000
5866665;-0.50000
5869443;-0.55000
5872221;-0.57000
5874998;-0.53500
5877776;-0.43500
5880554;-0.30500
5883332;-0.13500
5886109;0.05500
5888887;0.30500
5891665;0.57000
5894443;0.80000
5897221;0.93000
5899998;0.94500
5902776;0.78500
5905554;0.40000
5908332;-0.04000
5911109;-0.38000
5913887;-0.50500
5916665;-0.48000
5919443;-0.41000
5922221;-0.37000
5924998;-0.37000
5927776;-0.38000
5930554;-0.39500
5933332;-0.38000
5936109;-0.38000
5938887;-0.37000
5941665;-0.39000
5944443;-0.40000
5947221;-0.41000
5949998;-0.40500
5952776;-0.39500
5955554;-0.38500
5958332;-0.39500
5961109;-0.39000
5963887;-0.40000
5966665;-0.38500
5969443;-0.38500
5972221;-0.38000
5974998;-0.37500
5977776;-0.37500
5980554;-0.40000
5983332;-0.40500
5986109;-0.39000
5988887;-0.38000
5991665;-0.39000
5994443;-0.40000
5997221;-0.40500
5999998;-0.40000
6002776;-0.40000
6005554;-0.38000
6008332;-0.37500
6011109;-0.39000
6013887;-0.39500
6016665;-0.40000
6019443;-0.38500
6022221;-0.38000
6024998;-0.37000
6027776;-0.38500
6030554;-0.39000
6033332;-0.40000
6036109;-0.39500
6038887;-0.37000
6041665;-0.39000
6044443;-0.39000
6047221;-0.40000
6049998;-0.40000
6052776;-0.39500
6055554;-0.38000
6058332;-0.37500
6061109;-0.37500
6063887;-0.38000
6066665;-0.37500
6069443;-0.37000
6072221;-0.36500
6074998;-0.37000
6077776;-0.38000
6080554;-0.39500
6083332;-0.38000
6086109;-0.37500
6088887;-0.37500
6091665;-0.38000
6094443;-0.37500
6097221;-0.38500
6099998;-0.37500
6102776;-0.38000
6105554;-0.36500
6108332;-0.37000
6111109;-0.37000
6113887;-0.38500
6116665;-0.38000
6119443;-0.36500
6122221;-0.36000
6124998;-0.37000
6127776;-0.37500
6130554;-0.39000
6133332;-0.38000
6136109;-0.37000
6138887;-0.37000
6141665;-0.38500
6144443;-0.38500
6147221;-0.40000
6149998;-0.39000
6152776;-0.39500
6155554;-0.39000
6158332;-0.38500
6161109;-0.39000
6163887;-0.39500
6166665;-0.39500
6169443;-0.40000
6172220;-0.38500
6174998;-0.38000
6177776;-0.38500
6180554;-0.39500
6183332;-0.38000
6186109;-0.36500
6188887;-0.35500
6191665;-0.34500
6194443;-0.34000
6197220;-0.34500
6199998;-0.33000
6202776;-0.31500
6205554;-0.30000
6208332;-0.30000
6211109;-0.30500
6213887;-0.31000
6216665;-0.30500
6219443;-0.28500
6222220;-0.27000
6224998;-0.27500
6227776;-0.27500
6230554;-0.29000
6233332;-0.29000
6236109;-0.26000
6238887;-0.25000
6241665;-0.26000
6244443;-0.26500
6247220;-0.27500
6249998;-0.28500
6252776;-0.26500
6255554;-0.26500
6258332;-0.26000
6261109;-0.27000
6263887;-0.28000
6266665;-0.27500
6269443;-0.26500
6272220;-0.26000
6274998;-0.27000
6277776;-0.28000
6280554;-0.28000
6283332;-0.28000
6286109;-0.28500
6288887;-0.27000
6291665;-0.28500
6294443;-0.29000
6297220;-0.28500
6299998;-0.29000
6302776;-0.28000
6305554;-0.27000
6308332;-0.28500
6311109;-0.28500
6313887;-0.29000
6316665;-0.30500
6319443;-0.28500
6322220;-0.28500
6324998;-0.29500
6327776;-0.29000
6330554;-0.29500
6333332;-0.31000
6336109;-0.30500
6338887;-0.29500
6341665;-0.30000
6344443;-0.30000
6347220;-0.31000
6349998;-0.31000
6352776;-0.30000
6355554;-0.30000
6358332;-0.31000
6361109;-0.32500
6363887;-0.31500
6366665;-0.32000
6369443;-0.31500
6372220;-0.30500
6374998;-0.31500
6377776;-0.32500
6380554;-0.33000
6383332;-0.32500
6386109;-0.31500
6388887;-0.29500
6391665;-0.30500
6394443;-0.31500
6397220;-0.33500
6399998;-0.32000
6402776;-0.31000
6405554;-0.31000
6408332;-0.31000
6411109;-0.32000
6413887;-0.34000
6416665;-0.33000
6419443;-0.32000
6422220;-0.31000
6424998;-0.32000
6427776;-0.32000
6430554;-0.32000
6433332;-0.32500
6436109;-0.31000
6438887;-0.30000
6441665;-0.31000
6444443;-0.31500
6447220;-0.31500
6449998;-0.31500
6452776;-0.30500
6455554;-0.30000
6458332;-0.30000
6461109;-0.30000
6463887;-0.32500
6466665;-0.30500
6469443;-0.30000
6472220;-0.29500
6474998;-0.29000
6477776;-0.31000
6480554;-0.31500
6483332;-0.30000
6486109;-0.28000
6488887;-0.26500
6491665;-0.25000
6494443;-0.25500
6497220;-0.26000
6499998;-0.26000
6502776;-0.23500
6505554;-0.23000
6508332;-0.22500
6511109;-0.23500
6513887;-0.23000
6516665;-0.21500
6519443;-0.19500
6522220;-0.19000
6524998;-0.19000
6527776;-0.21000
6530554;-0.22000
6533332;-0.21500
6536109;-0.21000
6538887;-0.20500
6541665;-0.21000
6544443;-0.21500
6547220;-0.22500
6549998;-0.23000
6552776;-0.23000
6555554;-0.21500
6558331;-0.19000
6561109;-0.17000
6563887;-0.18500
6566665;-0.21500
6569443;-0.23000
6572220;-0.23000
6574998;-0.24000
6577776;-0.26000
6580554;-0.28000
6583331;-0.29000
6586109;-0.28500
6588887;-0.29000
6591665;-0.30000
6594443;-0.32000
6597220;-0.32500
6599998;-0.32000
6602776;-0.32500
6605554;-0.31000
6608331;-0.31000
6611109;-0.32000
6613887;-0.33000
6616665;-0.32500
6619443;-0.31500
6622220;-0.31500
6624998;-0.32000
6627776;-0.32000
6630554;-0.34000
6633331;-0.33000
6636109;-0.33000
6638887;-0.31500
6641665;-0.32000
6644443;-0.33000
6647220;-0.33500
6649998;-0.33000
6652776;-0.34000
6655554;-0.35500
6658331;-0.39500
6661109;-0.45000
6663887;-0.47000
6666665;-0.49500
6669443;-0.52000
6672220;-0.52500
6674998;-0.45000
6677776;-0.31500
6680554;-0.17500
6683331;0.01500
6686109;0.27500
6688887;0.57500
6691665;0.79500
6694443;0.89500
6697220;0.82000
6699998;0.55000
6702776;0.16000
6705554;-0.21000
6708331;-0.43000
6711109;-0.48000
6713887;-0.45000
6716665;-0.38500
6719443;-0.34500
6722220;-0.33500
6724998;-0.34500
6727776;-0.35000
6730554;-0.36500
6733331;-0.37000
6736109;-0.36500
6738887;-0.34500
6741665;-0.35500
6744443;-0.37000
6747220;-0.38000
6749998;-0.36500
6752776;-0.36500
6755554;-0.35000
6758331;-0.34500
6761109;-0.35500
6763887;-0.36000
6766665;-0.36000
6769443;-0.36000
6772220;-0.35000
6774998;-0.34500
6777776;-0.35500
6780554;-0.36000
6783331;-0.35500
6786109;-0.34500
6788887;-0.34000
6791665;-0.34500
6794443;-0.35000
6797220;-0.36000
6799998;-0.36000
6802776;-0.34500
6805554;-0.34500
6808331;-0.33500
6811109;-0.34000
6813887;-0.34500
6816665;-0.34000
6819443;-0.33000
6822220;-0.32000
6824998;-0.33000
6827776;-0.33000
6830554;-0.34500
6833331;-0.35500
6836109;-0.33000
6838887;-0.33000
6841665;-0.33000
6844443;-0.34000
6847220;-0.34500
6849998;-0.34500
6852776;-0.34000
6855554;-0.33500
6858331;-0.33500
6861109;-0.34000
6863887;-0.36000
6866665;-0.35000
6869443;-0.34000
6872220;-0.33500
6874998;-0.33500
6877776;-0.35000
6880554;-0.35000
6883331;-0.34500
6886109;-0.33000
6888887;-0.32500
6891665;-0.33500
6894443;-0.34000
6897220;-0.35000
6899998;-0.35000
6902776;-0.34500
6905554;-0.32500
6908331;-0.33500
6911109;-0.34500
6913887;-0.35000
6916665;-0.34500
6919443;-0.34000
6922220;-0.34000
6924998;-0.33500
6927776;-0.35000
6930554;-0.35500
6933331;-0.36000
6936109;-0.36000
6938887;-0.35000
6941665;-0.35000
6944442;-0.36000
6947220;-0.35500
6949998;-0.37000
6952776;-0.35500
6955554;-0.35000
6958331;-0.34500
6961109;-0.35500
6963887;-0.35500
6966665;-0.35000
6969442;-0.33000
6972220;-0.32000
6974998;-0.31000
6977776;-0.31000
6980554;-0.31000
6983331;-0.30000
6986109;-0.28500
6988887;-0.26500
6991665;-0.26500
6994442;-0.26500
6997220;-0.26500
6999998;-0.27500
7002776;-0.25000
7005554;-0.23000
7008331;-0.24000
7011109;-0.24500
7013887;-0.25000
7016665;-0.25500
7019442;-0.24500
7022220;-0.25000
7024998;-0.24000
7027776;-0.23500
7030554;-0.25500
7033331;-0.25000
7036109;-0.23500
7038887;-0.22500
7041665;-0.23000
7044442;-0.24500
7047220;-0.25500
7049998;-0.24500
7052776;-0.22500
7055554;-0.21500
7058331;-0.21500
7061109;-0.22500
7063887;-0.24500
7066665;-0.25000
7069442;-0.25000
7072220;-0.23500
7074998;-0.25000
7077776;-0.25500
7080554;-0.26000
7083331;-0.26500
7086109;-0.25000
7088887;-0.24000
7091665;-0.25500
7094442;-0.25500
7097220;-0.26000
7099998;-0.25500
7102776;-0.26000
7105554;-0.25000
7108331;-0.26500
7111109;-0.27500
7113887;-0.27500
7116665;-0.27500
7119442;-0.25500
7122220;-0.26500
7124998;-0.26500
7127776;-0.29000
7130554;-0.28500
7133331;-0.28500
7136109;-0.28000
7138887;-0.27000
7141665;-0.28500
7144442;-0.29000
7147220;-0.30500
7149998;-0.30000
7152776;-0.27500
7155554;-0.27500
7158331;-0.29000
7161109;-0.30500
7163887;-0.31000
7166665;-0.31500
7169442;-0.30000
7172220;-0.28000
7174998;-0.28500
7177776;-0.29500
7180554;-0.30000
7183331;-0.30000
7186109;-0.30000
7188887;-0.29500
7191665;-0.29500
7194442;-0.29000
7197220;-0.30000
7199998;-0.30500
7202776;-0.29500
7205554;-0.29000
7208331;-0.28500
7211109;-0.29000
7213887;-0.30000
7216665;-0.30000
7219442;-0.30000
7222220;-0.29000
7224998;-0.29500
7227776;-0.30000
7230554;-0.32000
7233331;-0.31500
7236109;-0.30000
7238887;-0.30000
7241665;-0.29000
7244442;-0.29500
7247220;-0.30000
7249998;-0.29500
7252776;-0.27000
7255554;-0.25500
7258331;-0.26000
7261109;-0.25500
7263887;-0.26000
7266665;-0.24500
7269442;-0.23000
7272220;-0.22500
7274998;-0.22500
7277776;-0.22000
7280554;-0.21000
7283331;-0.19000
7286109;-0.19000
7288887;-0.18500
7291665;-0.19500
7294442;-0.20000
7297220;-0.23000
7299998;-0.22000
7302776;-0.22000
7305554;-0.22500
7308331;-0.20500
7311109;-0.21500
7313887;-0.22500
7316665;-0.23000
7319442;-0.23000
7322220;-0.20500
7324998;-0.18500
7327776;-0.19000
7330554;-0.21500
7333331;-0.23500
7336109;-0.24000
7338887;-0.25500
7341665;-0.27500
7344442;-0.31500
7347220;-0.33500
7349998;-0.32000
7352776;-0.31000
7355553;-0.31000
7358331;-0.30000
7361109;-0.31000
7363887;-0.34000
7366665;-0.33000
7369442;-0.32000
7372220;-0.33500
7374998;-0.32500
7377776;-0.32500
7380553;-0.35000
7383331;-0.33500
7386109;-0.32500
7388887;-0.32000
7391665;-0.33500
7394442;-0.34000
7397220;-0.34000
7399998;-0.34000
7402776;-0.31500
7405553;-0.30000
7408331;-0.31000
7411109;-0.31000
7413887;-0.33000
7416665;-0.33000
7419442;-0.34000
7422220;-0.35000
7424998;-0.38500
7427776;-0.43500
7430553;-0.44000
7433331;-0.44500
7436109;-0.45500
7438887;-0.51000
7441665;-0.54500
7444442;-0.52000
7447220;-0.44000
7449998;-0.29000
7452776;-0.14000
7455553;0.09000
7458331;0.36500
7461109;0.62000
7463887;0.79000
7466665;0.83000
7469442;0.69000
7472220;0.39500
7474998;0.01500
7477776;-0.27500
7480553;-0.43500
7483331;-0.47000
7486109;-0.45500
7488887;-0.39500
7491665;-0.37500
7494442;-0.38000
7497220;-0.39500
7499998;-0.38000
7502776;-0.36500
7505553;-0.36000
7508331;-0.36500
7511109;-0.38000
7513887;-0.39000
7516665;-0.38000
7519442;-0.37500
7522220;-0.38000
7524998;-0.38000
7527776;-0.38000
7530553;-0.39000
7533331;-0.39000
7536109;-0.38500
7538887;-0.37000
7541665;-0.37500
7544442;-0.37500
7547220;-0.37000
7549998;-0.36500
7552776;-0.36000
7555553;-0.36000
7558331;-0.36500
7561109;-0.38000
7563887;-0.38500
7566665;-0.37500
7569442;-0.37500
7572220;-0.35500
7574998;-0.35500
7577776;-0.37000
7580553;-0.40000
7583331;-0.39500
7586109;-0.39000
7588887;-0.37500
7591665;-0.38000
7594442;-0.37500
7597220;-0.37500
7599998;-0.38500
7602776;-0.38500
7605553;-0.37000
7608331;-0.37000
7611109;-0.39000
7613887;-0.38500
7616665;-0.37500
7619442;-0.36000
7622220;-0.35500
7624998;-0.34500
7627776;-0.35500
7630553;-0.36000
7633331;-0.35500
7636109;-0.34500
7638887;-0.32000
7641665;-0.32500
7644442;-0.34000
7647220;-0.35000
7649998;-0.36000
7652776;-0.35000
7655553;-0.34000
7658331;-0.34500
7661109;-0.35500
7663887;-0.36000
7666665;-0.35500
7669442;-0.36000
7672220;-0.34000
7674998;-0.34000
7677776;-0.36000
7680553;-0.37000
7683331;-0.37000
7686109;-0.37000
7688887;-0.35500
7691665;-0.36000
7694442;-0.37000
7697220;-0.38500
7699998;-0.38000
7702776;-0.37500
7705553;-0.37000
7708331;-0.37500
7711109;-0.39000
7713887;-0.41500
7716665;-0.41500
7719442;-0.40500
7722220;-0.40000
7724998;-0.41500
7727776;-0.41000
7730553;-0.41500
7733331;-0.40500
7736109;-0.39500
7738887;-0.38000
7741664;-0.37000
7744442;-0.36500
7747220;-0.37000
7749998;-0.34000
7752776;-0.32000
7755553;-0.31000
7758331;-0.29500
7761109;-0.30500
7763887;-0.31000
7766664;-0.30500
7769442;-0.28000
7772220;-0.27500
7774998;-0.27000
7777776;-0.26500
7780553;-0.28500
7783331;-0.28500
7786109;-0.27500
7788887;-0.26500
7791664;-0.26000
7794442;-0.25500
7797220;-0.27500
7799998;-0.26500
7802776;-0.26000
7805553;-0.25500
7808331;-0.26000
7811109;-0.26500
7813887;-0.27500
7816664;-0.26500
7819442;-0.27000
7822220;-0.26500
7824998;-0.27000
7827776;-0.26500
7830553;-0.28000
7833331;-0.27000
7836109;-0.26500
7838887;-0.26000
7841664;-0.26500
7844442;-0.26000
7847220;-0.26500
7849998;-0.27000
7852776;-0.26000
7855553;-0.26000
7858331;-0.27000
7861109;-0.28000
7863887;-0.28000
7866664;-0.29000
7869442;-0.28000
7872220;-0.27000
7874998;-0.28000
7877776;-0.28000
7880553;-0.29500
7883331;-0.29000
7886109;-0.27500
7888887;-0.27500
7891664;-0.27000
7894442;-0.27000
7897220;-0.28500
7899998;-0.28000
7902776;-0.28000
7905553;-0.28000
7908331;-0.28000
7911109;-0.29000
7913887;-0.30500
7916664;-0.29000
7919442;-0.29000
7922220;-0.29000
7924998;-0.29500
7927776;-0.31000
7930553;-0.32500
7933331;-0.31500
7936109;-0.30500
7938887;-0.29500
7941664;-0.29000
7944442;-0.29000
7947220;-0.30000
7949998;-0.30500
7952776;-0.29000
7955553;-0.28500
7958331;-0.29000
7961109;-0.28500
7963887;-0.29500
7966664;-0.29000
7969442;-0.28500
7972220;-0.27500
7974998;-0.27500
7977776;-0.29000
7980553;-0.29500
7983331;-0.29500
7986109;-0.28500
7988887;-0.28500
7991664;-0.29000
7994442;-0.30000
7997220;-0.29500
7999998;-0.29000
8002776;-0.29500
8005553;-0.28500
8008331;-0.29000
8011109;-0.30500
8013887;-0.30500
8016664;-0.31000
8019442;-0.29000
8022220;-0.28500
8024998;-0.27500
8027776;-0.26000
8030553;-0.27500
8033331;-0.26000
8036109;-0.25000
8038887;-0.23500
8041664;-0.24500
8044442;-0.24500
8047220;-0.24000
8049998;-0.24500
8052776;-0.23000
8055553;-0.21000
8058331;-0.20000
8061109;-0.20500
8063887;-0.20500
8066664;-0.20000
8069442;-0.18500
8072220;-0.19000
8074998;-0.19000
8077776;-0.20500
8080553;-0.22000
8083331;-0.21000
8086109;-0.20500
8088887;-0.20500
8091664;-0.21000
8094442;-0.23500
8097220;-0.24500
8099998;-0.23500
8102776;-0.20000
8105553;-0.19500
8108331;-0.20500
8111109;-0.24500
8113887;-0.28500
8116664;-0.27500
8119442;-0.27500
8122220;-0.28000
8124998;-0.28500
8127776;-0.29500
8130553;-0.31500
8133331;-0.31500
8136109;-0.30500
8138887;-0.30000
8141664;-0.29500
8144442;-0.30500
8147220;-0.31500
8149998;-0.31000
8152775;-0.30500
8155553;-0.30500
8158331;-0.31500
8161109;-0.32000
8163887;-0.33500
8166664;-0.33500
8169442;-0.31500
8172220;-0.31000
8174998;-0.31500
8177775;-0.33000
8180553;-0.34000
8183331;-0.34000
8186109;-0.33000
8188887;-0.32000
8191664;-0.32000
8194442;-0.32500
8197220;-0.33000
8199998;-0.34000
8202775;-0.35500
8205553;-0.38000
8208331;-0.42000
8211109;-0.44000
8213887;-0.47500
8216664;-0.52000
8219442;-0.50500
8222220;-0.42000
8224998;-0.31000
8227775;-0.18000
8230553;-0.03000
8233331;0.20500
8236109;0.47000
8238887;0.71500
8241664;0.86000
8244442;0.90000
8247220;0.75500
8249998;0.43000
8252775;0.06500
8255553;-0.21500
8258331;-0.38000
8261109;-0.43000
8263887;-0.43000
8266664;-0.37500
8269442;-0.35000
8272220;-0.33000
8274998;-0.34500
8277775;-0.34000
8280553;-0.35000
8283331;-0.34000
8286109;-0.32500
8288887;-0.32000
8291664;-0.32000
8294442;-0.33500
8297220;-0.35000
8299998;-0.36000
8302775;-0.35500
8305553;-0.33000
8308331;-0.33000
8311109;-0.34000
8313887;-0.35000
8316664;-0.34000
8319442;-0.33500
8322220;-0.33500
8324998;-0.34500
8327775;-0.35000
8330553;-0.34000
8333331;-0.34500
8336109;-0.33000
8338887;-0.32000
8341664;-0.32000
8344442;-0.32500
8347220;-0.33000
8349998;-0.32500
8352775;-0.32500
8355553;-0.32500
8358331;-0.31000
8361109;-0.31500
8363887;-0.33500
8366664;-0.32500
8369442;-0.32000
8372220;-0.31500
8374998;-0.32000
8377775;-0.32500
8380553;-0.34000
8383331;-0.33500
8386109;-0.33000
8388887;-0.32000
8391664;-0.32000
8394442;-0.33000
8397220;-0.33500
8399998;-0.34000
8402775;-0.31500
8405553;-0.31500
8408331;-0.31000
8411109;-0.31500
8413887;-0.32500
8416664;-0.33500
8419442;-0.32500
8422220;-0.32000
8424998;-0.32000
8427775;-0.32500
8430553;-0.33000
8433331;-0.32500
8436109;-0.32000
8438887;-0.30500
8441664;-0.31000
8444442;-0.33500
8447220;-0.33500
8449998;-0.32500
8452775;-0.32000
8455553;-0.31000
8458331;-0.31000
8461109;-0.32000
8463887;-0.32500
8466664;-0.33000
8469442;-0.33000
8472220;-0.32000
8474998;-0.32500
8477775;-0.34000
8480553;-0.34500
8483331;-0.34500
8486109;-0.35000
8488887;-0.35000
8491664;-0.34500
8494442;-0.36000
8497220;-0.37000
8499998;-0.37000
8502775;-0.37500
8505553;-0.36000
8508331;-0.37000
8511109;-0.38000
8513887;-0.39000
8516664;-0.38500
8519442;-0.38000
8522220;-0.36500
8524998;-0.36500
8527775;-0.37000
8530553;-0.37500
8533331;-0.35000
8536109;-0.32500
8538886;-0.31000
8541664;-0.29500
8544442;-0.29500
8547220;-0.29500
8549998;-0.28000
8552775;-0.26500
8555553;-0.24500
8558331;-0.24500
8561109;-0.23500
8563886;-0.24500
8566664;-0.23000
8569442;-0.22000
8572220;-0.21500
8574998;-0.21000
8577775;-0.21500
8580553;-0.22500
8583331;-0.22500
8586109;-0.21500
8588886;-0.21500
8591664;-0.21500
8594442;-0.21000
8597220;-0.23500
8599998;-0.22500
8602775;-0.22500
8605553;-0.22000
8608331;-0.21500
8611109;-0.21000
8613886;-0.23000
8616664;-0.22500
8619442;-0.21000
8622220;-0.20500
8624998;-0.21000
8627775;-0.23000
8630553;-0.22500
8633331;-0.22500
8636109;-0.22000
8638886;-0.21000
8641664;-0.21000
8644442;-0.21000
8647220;-0.23000
8649998;-0.22500
8652775;-0.22000
8655553;-0.21000
8658331;-0.21000
8661109;-0.22500
8663886;-0.23000
8666664;-0.23500
8669442;-0.23000
8672220;-0.22500
8674998;-0.22500
8677775;-0.23500
8680553;-0.25000
8683331;-0.25500
8686109;-0.24000
8688886;-0.23000
8691664;-0.23000
8694442;-0.24500
8697220;-0.25000
8699998;-0.24500
8702775;-0.23500
8705553;-0.24000
8708331;-0.23000
8711109;-0.24500
8713886;-0.24500
8716664;-0.24500
8719442;-0.25000
8722220;-0.24000
8724998;-0.24000
8727775;-0.25000
8730553;-0.26000
8733331;-0.26000
8736109;-0.25000
8738886;-0.23500
8741664;-0.24000
8744442;-0.24500
8747220;-0.26000
8749998;-0.24000
8752775;-0.23500
8755553;-0.22000
8758331;-0.23000
8761109;-0.24500
8763886;-0.24500
8766664;-0.24000
8769442;-0.23000
8772220;-0.23500
8774998;-0.23000
8777775;-0.23500
8780553;-0.25000
8783331;-0.25500
8786109;-0.24000
8788886;-0.22000
8791664;-0.22500
8794442;-0.24000
8797220;-0.24500
8799998;-0.24500
8802775;-0.22500
8805553;-0.22000
8808331;-0.22500
8811109;-0.23000
8813886;-0.24500
8816664;-0.24500
8819442;-0.22500
8822220;-0.23000
8824998;-0.22000
8827775;-0.23000
8830553;-0.22500
8833331;-0.21500
8836109;-0.20000
8838886;-0.18500
8841664;-0.17500
8844442;-0.17000
8847220;-0.18500
8849998;-0.17500
8852775;-0.16500
8855553;-0.15500
8858331;-0.15000
8861109;-0.17000
8863886;-0.17500
8866664;-0.15500
8869442;-0.14500
8872220;-0.12500
8874998;-0.13000
8877775;-0.12500
8880553;-0.13000
8883331;-0.13000
8886109;-0.13500
8888886;-0.12000
8891664;-0.13500
8894442;-0.15000
8897220;-0.17000
8899998;-0.16500
8902775;-0.14500
8905553;-0.14500
8908331;-0.15500
8911109;-0.16000
8913886;-0.15000
8916664;-0.12000
8919442;-0.11000
8922220;-0.12000
8924998;-0.15500
8927775;-0.18000
8930553;-0.20000
8933331;-0.20500
8936109;-0.21000
8938886;-0.21000
8941664;-0.22500
8944442;-0.24000
8947220;-0.25000
8949997;-0.25500
8952775;-0.24500
8955553;-0.24000
8958331;-0.23000
8961109;-0.24500
8963886;-0.25500
8966664;-0.25000
8969442;-0.25000
8972220;-0.24500
8974997;-0.25500
8977775;-0.26500
8980553;-0.27000
8983331;-0.27000
8986109;-0.26500
8988886;-0.25000
8991664;-0.25000
8994442;-0.26000
8997220;-0.28000
8999997;-0.27500
9002775;-0.28000
9005553;-0.26500
9008331;-0.27500
9011109;-0.30500
9013886;-0.34500
9016664;-0.38500
9019442;-0.39500
9022220;-0.40000
9024997;-0.44000
9027775;-0.48000
9030553;-0.52500
9033331;-0.48500
9036109;-0.41000
9038886;-0.33000
9041664;-0.22500
9044442;-0.13500
9047220;-0.04500
9049997;0.11000
9052775;0.31500
9055553;0.55000
9058331;0.75500
9061109;0.90000
9063886;0.97500
9066664;1.04000
9069442;1.01000
9072220;0.83500
9074997;0.46000
9077775;0.04500
9080553;-0.26500
9083331;-0.38500
9086109;-0.36000
9088886;-0.31000
9091664;-0.27500
9094442;-0.28500
9097220;-0.30500
9099997;-0.29500
9102775;-0.29000
9105553;-0.28500
9108331;-0.28500
9111109;-0.30000
9113886;-0.31500
9116664;-0.31000
9119442;-0.31500
9122220;-0.30000
9124997;-0.30500
9127775;-0.31000
9130553;-0.32500
9133331;-0.31500
9136109;-0.30000
9138886;-0.30500
9141664;-0.29500
9144442;-0.30500
9147220;-0.31000
9149997;-0.31000
9152775;-0.30500
9155553;-0.30000
9158331;-0.29500
9161109;-0.31000
9163886;-0.31000
9166664;-0.31000
9169442;-0.29000
9172220;-0.29000
9174997;-0.30000
9177775;-0.30500
9180553;-0.32000
9183331;-0.31000
9186109;-0.30000
9188886;-0.30000
9191664;-0.30000
9194442;-0.32000
9197220;-0.32000
9199997;-0.31500
9202775;-0.29500
9205553;-0.30000
9208331;-0.29500
9211109;-0.29500
9213886;-0.30500
9216664;-0.31000
9219442;-0.31000
9222220;-0.30000
9224997;-0.29000
9227775;-0.30500
9230553;-0.31000
9233331;-0.31000
9236109;-0.30000
9238886;-0.29000
9241664;-0.28500
9244442;-0.30000
9247220;-0.33000
9249997;-0.31500
9252775;-0.30500
9255553;-0.30000
9258331;-0.28500
9261109;-0.30000
9263886;-0.31500
9266664;-0.31000
9269442;-0.30500
9272220;-0.29500
9274997;-0.29500
9277775;-0.30500
9280553;-0.32000
9283331;-0.31500
9286109;-0.31000
9288886;-0.30500
9291664;-0.31000
9294442;-0.30500
9297220;-0.31000
9299997;-0.30500
9302775;-0.29500
9305553;-0.29000
9308331;-0.29000
9311109;-0.29500
9313886;-0.32000
9316664;-0.30500
9319442;-0.30500
9322220;-0.29500
9324997;-0.30000
9327775;-0.30500
9330553;-0.30500
9333331;-0.31000
9336108;-0.31000
9338886;-0.29000
9341664;-0.29500
9344442;-0.30500
9347220;-0.31000
9349997;-0.32000
9352775;-0.31000
9355553;-0.29500
9358331;-0.28500
9361108;-0.28500
9363886;-0.28000
9366664;-0.27000
9369442;-0.26500
9372220;-0.25000
9374997;-0.23500
9377775;-0.23500
9380553;-0.23000
9383331;-0.21500
9386108;-0.21500
9388886;-0.19500
9391664;-0.20500
9394442;-0.21000
9397220;-0.20500
9399997;-0.22000
9402775;-0.20000
9405553;-0.19500
9408331;-0.20000
9411108;-0.20500
9413886;-0.22000
9416664;-0.21000
9419442;-0.19500
9422220;-0.19000
9424997;-0.19000
9427775;-0.19500
9430553;-0.20500
9433331;-0.20500
9436108;-0.19000
9438886;-0.18000
9441664;-0.18000
9444442;-0.18500
9447220;-0.20500
9449997;-0.20000
9452775;-0.20500
9455553;-0.19000
9458331;-0.19000
9461108;-0.19000
9463886;-0.21500
9466664;-0.22000
9469442;-0.20500
9472220;-0.19500
9474997;-0.19500
9477775;-0.21000
9480553;-0.22000
9483331;-0.22000
9486108;-0.21000
9488886;-0.21500
9491664;-0.21000
9494442;-0.22000
9497220;-0.22500
9499997;-0.23500
9502775;-0.23500
9505553;-0.22000
9508331;-0.22000
9511108;-0.23000
9513886;-0.24500
9516664;-0.22500
9519442;-0.22500
9522220;-0.22000
9524997;-0.22500
9527775;-0.22500
9530553;-0.23500
9533331;-0.23500
9536108;-0.23000
9538886;-0.24000
9541664;-0.23000
9544442;-0.24500
9547220;-0.27000
9549997;-0.25500
9552775;-0.25000
9555553;-0.25000
9558331;-0.24500
9561108;-0.25500
9563886;-0.26500
9566664;-0.26000
9569442;-0.25500
9572220;-0.24500
9574997;-0.24500
9577775;-0.25500
9580553;-0.26000
9583331;-0.25000
9586108;-0.24500
9588886;-0.23000
9591664;-0.23000
9594442;-0.24500
9597220;-0.26000
9599997;-0.25500
9602775;-0.24000
9605553;-0.23500
9608331;-0.22500
9611108;-0.24500
9613886;-0.26000
9616664;-0.25000
9619442;-0.24000
9622220;-0.23500
9624997;-0.24000
9627775;-0.26500
9630553;-0.27000
9633331;-0.26000
9636108;-0.25000
9638886;-0.23500
9641664;-0.24000
9644442;-0.24500
9647220;-0.25500
9649997;-0.25000
9652775;-0.24500
9655553;-0.24000
9658331;-0.23000
9661108;-0.23500
9663886;-0.24500
9666664;-0.24500
9669442;-0.24500
9672220;-0.22500
9674997;-0.22000
9677775;-0.23000
9680553;-0.22500
9683331;-0.20000
9686108;-0.19000
9688886;-0.17500
9691664;-0.17000
9694442;-0.16500
9697220;-0.17500
9699997;-0.17000
9702775;-0.16000
9705553;-0.14500
9708331;-0.14500
9711108;-0.15000
9713886;-0.15500
9716664;-0.14500
9719442;-0.14500
9722220;-0.14000
9724997;-0.14500
9727775;-0.15000
9730553;-0.17000
9733331;-0.17500
9736108;-0.15500
9738886;-0.14000
9741664;-0.15500
9744442;-0.15500
9747219;-0.17500
9749997;-0.17000
9752775;-0.14500
9755553;-0.12000
9758331;-0.12000
9761108;-0.14500
9763886;-0.19500
9766664;-0.21500
9769442;-0.21500
9772219;-0.22000
9774997;-0.23500
9777775;-0.25500
9780553;-0.25500
9783331;-0.26000
9786108;-0.26500
9788886;-0.26500
9791664;-0.25500
9794442;-0.26500
9797219;-0.27000
9799997;-0.27500
9802775;-0.26000
9805553;-0.26000
9808331;-0.26500
9811108;-0.26500
9813886;-0.28500
9816664;-0.28500
9819442;-0.27000
9822219;-0.26500
9824997;-0.26500
9827775;-0.28000
9830553;-0.29500
9833331;-0.27500
9836108;-0.27000
9838886;-0.26500
9841664;-0.26500
9844442;-0.27500
9847219;-0.28000
9849997;-0.27500
9852775;-0.27500
9855553;-0.28000
9858331;-0.28500
9861108;-0.30500
9863886;-0.32000
9866664;-0.33500
9869442;-0.37000
9872219;-0.39000
9874997;-0.40500
9877775;-0.43500
9880553;-0.48000
9883331;-0.49000
9886108;-0.43000
9888886;-0.32000
9891664;-0.19500
9894442;-0.04500
9897219;0.12000
9899997;0.37500
9902775;0.63000
9905553;0.79500
9908331;0.87000
9911108;0.80000
9913886;0.58000
9916664;0.23500
9919442;-0.08500
9922219;-0.30000
9924997;-0.39000
9927775;-0.39500
9930553;-0.36500
9933331;-0.33000
9936108;-0.30500
9938886;-0.29500
9941664;-0.29500
9944442;-0.30000
9947219;-0.31000
9949997;-0.29500
9952775;-0.29500
9955553;-0.30500
9958331;-0.29500
9961108;-0.30000
9963886;-0.30500
9966664;-0.31500
9969442;-0.31000
9972219;-0.30000
9974997;-0.30000
9977775;-0.31500
9980553;-0.32000
9983331;-0.32500
9986108;-0.31000
9988886;-0.31500
9991664;-0.30500
9994442;-0.32000
9997219;-0.32000
9999997;-0.33000
10002775;-0.31000
10005553;-0.31500
10008331;-0.31500
10011108;-0.31500
10013886;-0.32500
10016664;-0.31500
10019442;-0.30000
10022219;-0.28500
10024997;-0.29000
10027775;-0.28500
10030553;-0.30500
10033331;-0.30500
10036108;-0.30000
10038886;-0.29000
10041664;-0.28000
10044442;-0.29500
10047219;-0.30500
10049997;-0.31000
10052775;-0.30500
10055553;-0.29500
10058331;-0.30500
10061108;-0.29500
10063886;-0.30500
10066664;-0.30000
10069442;-0.28500
10072219;-0.28000
10074997;-0.29000
10077775;-0.29500
10080553;-0.32000
10083331;-0.32000
10086108;-0.30500
10088886;-0.30000
10091664;-0.29500
10094442;-0.31000
10097219;-0.32000
10099997;-0.31000
10102775;-0.31500
10105553;-0.30000
10108331;-0.30500
10111108;-0.30500
10113886;-0.31500
10116664;-0.31500
10119442;-0.31000
10122219;-0.29500
10124997;-0.29500
10127775;-0.30500
10130553;-0.31000
10133330;-0.31000
10136108;-0.31000
10138886;-0.30500
10141664;-0.31000
10144442;-0.32500
10147219;-0.33000
10149997;-0.33500
10152775;-0.32500
10155553;-0.32000
10158330;-0.31500
10161108;-0.31500
10163886;-0.32000
10166664;-0.32000
10169442;-0.32000
10172219;-0.29500
10174997;-0.30000
10177775;-0.31500
10180553;-0.32500
10183330;-0.34500
10186108;-0.32000
10188886;-0.31500
10191664;-0.32500
10194442;-0.31500
10197219;-0.32500
10199997;-0.33000
10202775;-0.32500
10205553;-0.31500
10208330;-0.32000
10211108;-0.31500
10213886;-0.33000
10216664;-0.31500
10219442;-0.30000
10222219;-0.29000
10224997;-0.27500
10227775;-0.28500
10230553;-0.28500
10233330;-0.27000
10236108;-0.26500
10238886;-0.26500
10241664;-0.26000
10244442;-0.27500
10247219;-0.27000
10249997;-0.27000
10252775;-0.25500
10255553;-0.24500
10258330;-0.25000
10261108;-0.24500
10263886;-0.25000
10266664;-0.26000
10269442;-0.23500
10272219;-0.22500
10274997;-0.22000
10277775;-0.23500
10280553;-0.24000
10283330;-0.23500
10286108;-0.23000
10288886;-0.23000
10291664;-0.23500
10294442;-0.24500
10297219;-0.25000
10299997;-0.24000
10302775;-0.25000
10305553;-0.24000
10308330;-0.24500
10311108;-0.25000
10313886;-0.25500
10316664;-0.27000
10319442;-0.26000
10322219;-0.25500
10324997;-0.25000
10327775;-0.25500
10330553;-0.26000
10333330;-0.28000
10336108;-0.27000
10338886;-0.26500
10341664;-0.26000
10344442;-0.26500
10347219;-0.27000
10349997;-0.26500
10352775;-0.26000
10355553;-0.25000
10358330;-0.26000
10361108;-0.27000
10363886;-0.27500
10366664;-0.27500
10369442;-0.27500
10372219;-0.26500
10374997;-0.28000
10377775;-0.29000
10380553;-0.30500
10383330;-0.30000
10386108;-0.29000
10388886;-0.28500
10391664;-0.29000
10394442;-0.30000
10397219;-0.31000
10399997;-0.31000
10402775;-0.29500
10405553;-0.29000
10408330;-0.28500
10411108;-0.30500
10413886;-0.31500
10416664;-0.30500
10419442;-0.29500
10422219;-0.28000
10424997;-0.28000
10427775;-0.29000
10430553;-0.30000
10433330;-0.30000
10436108;-0.29000
10438886;-0.27500
10441664;-0.29000
10444442;-0.28500
10447219;-0.31000
10449997;-0.29500
10452775;-0.29000
10455553;-0.29500
10458330;-0.29000
10461108;-0.30000
10463886;-0.31000
10466664;-0.31000
10469442;-0.30000
10472219;-0.29500
10474997;-0.30000
10477775;-0.30000
10480553;-0.30000
10483330;-0.30500
10486108;-0.30500
10488886;-0.28500
10491664;-0.30000
10494442;-0.30500
10497219;-0.32000
10499997;-0.31500
10502775;-0.31000
10505553;-0.30500
10508330;-0.29000
10511108;-0.29000
10513886;-0.29500
10516664;-0.28000
10519441;-0.26500
10522219;-0.25000
10524997;-0.24500
10527775;-0.24500
10530553;-0.25500
10533330;-0.25500
10536108;-0.25000
10538886;-0.23000
10541664;-0.23000
10544441;-0.23000
10547219;-0.23000
10549997;-0.21500
10552775;-0.20000
10555553;-0.19500
10558330;-0.18500
10561108;-0.17500
10563886;-0.20500
10566664;-0.21000
10569441;-0.21500
10572219;-0.22000
10574997;-0.21500
10577775;-0.22000
10580553;-0.23000
10583330;-0.24500
10586108;-0.23500
10588886;-0.22000
10591664;-0.20500
10594441;-0.20500
10597219;-0.21500
10599997;-0.23500
10602775;-0.24500
10605553;-0.24500
10608330;-0.26000
10611108;-0.29000
10613886;-0.33000
10616664;-0.32000
10619441;-0.31500
10622219;-0.32000
10624997;-0.32000
10627775;-0.31000
10630553;-0.32000
10633330;-0.32000
10636108;-0.32000
10638886;-0.31000
10641664;-0.31500
10644441;-0.32000
10647219;-0.32500
10649997;-0.33000
10652775;-0.31000
10655553;-0.31000
10658330;-0.31500
10661108;-0.33500
10663886;-0.34000
10666664;-0.33500
10669441;-0.33500
10672219;-0.31500
10674997;-0.32500
10677775;-0.33500
10680553;-0.35000
10683330;-0.36000
10686108;-0.34500
10688886;-0.32500
10691664;-0.33000
10694441;-0.35000
10697219;-0.38500
10699997;-0.41500
10702775;-0.43500
10705553;-0.45000
10708330;-0.49000
10711108;-0.53000
10713886;-0.52500
10716664;-0.43500
10719441;-0.29500
10722219;-0.14000
10724997;0.05500
10727775;0.29000
10730553;0.54500
10733330;0.72000
10736108;0.82000
10738886;0.76500
10741664;0.53500
10744441;0.19500
10747219;-0.12000
10749997;-0.33500
10752775;-0.43500
10755553;-0.44000
10758330;-0.44000
10761108;-0.40500
10763886;-0.40500
10766664;-0.39000
10769441;-0.39000
10772219;-0.38500
10774997;-0.38500
10777775;-0.38000
10780553;-0.38000
10783330;-0.38500
10786108;-0.37500
10788886;-0.38000
10791664;-0.38500
10794441;-0.38000
10797219;-0.38000
10799997;-0.38000
10802775;-0.37500
10805553;-0.37000
10808330;-0.37000
10811108;-0.38000
10813886;-0.39500
10816664;-0.40000
10819441;-0.37500
10822219;-0.36000
10824997;-0.36500
10827775;-0.37500
10830553;-0.39500
10833330;-0.39000
10836108;-0.38000
10838886;-0.37000
10841664;-0.37000
10844441;-0.39000
10847219;-0.40000
10849997;-0.40000
10852775;-0.38000
10855553;-0.38000
10858330;-0.38500
10861108;-0.40000
10863886;-0.41000
10866664;-0.40500
10869441;-0.39000
10872219;-0.37500
10874997;-0.38500
10877775;-0.38500
10880553;-0.40000
10883330;-0.41500
10886108;-0.39000
10888886;-0.39000
10891664;-0.37500
10894441;-0.39000
10897219;-0.39000
10899997;-0.41000
10902775;-0.39500
10905553;-0.37500
10908330;-0.37500
10911108;-0.39000
10913886;-0.40000
10916664;-0.40500
10919441;-0.40000
10922219;-0.39500
10924997;-0.38000
10927775;-0.38000
10930552;-0.39500
10933330;-0.38500
10936108;-0.38500
10938886;-0.38000
10941664;-0.37500
10944441;-0.38500
10947219;-0.38500
10949997;-0.38500
10952775;-0.37500
10955552;-0.36500
10958330;-0.37000
10961108;-0.38000
10963886;-0.39000
10966664;-0.38500
10969441;-0.37500
10972219;-0.37000
10974997;-0.37500
10977775;-0.39000
10980552;-0.39500
10983330;-0.40000
10986108;-0.39500
10988886;-0.38500
10991664;-0.40000
10994441;-0.41000
10997219;-0.43000
10999997;-0.43000
11002775;-0.43500
11005552;-0.42000
11008330;-0.42500
11011108;-0.43500
11013886;-0.44500
11016664;-0.45000
11019441;-0.44000
11022219;-0.42500
11024997;-0.43500
11027775;-0.43000
11030552;-0.43000
11033330;-0.42500
11036108;-0.41000
11038886;-0.39500
11041664;-0.40000
11044441;-0.39500
11047219;-0.39000
11049997;-0.39000
11052775;-0.37500
11055552;-0.33500
11058330;-0.33500
11061108;-0.32000
11063886;-0.33500
11066664;-0.32000
11069441;-0.31000
11072219;-0.29000
11074997;-0.29500
11077775;-0.29500
11080552;-0.30000
11083330;-0.31500
11086108;-0.29000
11088886;-0.29500
11091664;-0.27500
11094441;-0.28000
11097219;-0.29500
11099997;-0.28500
11102775;-0.28500
11105552;-0.28000
11108330;-0.28500
11111108;-0.29000
11113886;-0.30500
11116664;-0.31000
11119441;-0.29500
11122219;-0.28000
11124997;-0.27000
11127775;-0.28000
11130552;-0.29000
11133330;-0.29000
11136108;-0.28500
11138886;-0.27500
11141664;-0.27500
11144441;-0.28500
11147219;-0.28500
11149997;-0.30000
11152775;-0.29000
11155552;-0.28000
11158330;-0.29500
11161108;-0.30500
11163886;-0.31500
11166664;-0.30000
11169441;-0.29500
11172219;-0.28500
11174997;-0.30000
11177775;-0.31000
11180552;-0.32500
11183330;-0.33000
11186108;-0.31500
11188886;-0.31000
11191664;-0.30000
11194441;-0.32000
11197219;-0.32000
11199997;-0.32000
11202775;-0.31000
11205552;-0.30500
11208330;-0.30500
11211108;-0.32000
11213886;-0.32500
11216664;-0.33000
11219441;-0.32000
11222219;-0.30500
11224997;-0.31500
11227775;-0.32000
11230552;-0.32500
11233330;-0.34000
11236108;-0.34000
11238886;-0.32500
11241664;-0.33000
11244441;-0.34000
11247219;-0.34000
11249997;-0.33500
11252775;-0.33000
11255552;-0.32000
11258330;-0.31500
11261108;-0.32000
11263886;-0.34000
11266664;-0.34000
11269441;-0.32000
11272219;-0.31000
11274997;-0.31000
11277775;-0.32000
11280552;-0.33500
11283330;-0.33000
11286108;-0.32500
11288886;-0.30500
11291664;-0.31500
11294441;-0.32000
11297219;-0.31500
11299997;-0.31000
11302775;-0.31500
11305552;-0.30000
11308330;-0.31500
11311108;-0.32000
11313886;-0.33000
11316663;-0.33500
11319441;-0.32500
11322219;-0.31500
11324997;-0.32000
11327775;-0.31000
11330552;-0.32000
11333330;-0.32500
11336108;-0.31000
11338886;-0.30000
11341663;-0.30000
11344441;-0.29500
11347219;-0.30000
11349997;-0.28500
11352775;-0.26000
11355552;-0.24500
11358330;-0.25500
11361108;-0.25000
11363886;-0.25500
11366663;-0.24000
11369441;-0.22500
11372219;-0.21000
11374997;-0.21000
11377775;-0.21500
11380552;-0.21500
11383330;-0.22500
11386108;-0.21500
11388886;-0.21000
11391663;-0.21000
11394441;-0.23500
11397219;-0.24500
11399997;-0.24500
11402775;-0.23000
11405552;-0.22000
11408330;-0.21500
11411108;-0.22500
11413886;-0.24500
11416663;-0.24000
11419441;-0.22000
11422219;-0.19000
11424997;-0.18500
11427775;-0.19000
11430552;-0.24000
11433330;-0.25500
11436108;-0.26000
11438886;-0.27000
11441663;-0.29000
11444441;-0.31500
11447219;-0.32500
11449997;-0.33500
11452775;-0.33000
11455552;-0.32000
11458330;-0.31500
11461108;-0.32000
11463886;-0.32500
11466663;-0.33000
11469441;-0.32500
11472219;-0.31000
11474997;-0.32500
11477775;-0.33000
11480552;-0.34500
11483330;-0.35000
11486108;-0.34000
11488886;-0.32500
11491663;-0.33000
11494441;-0.33500
11497219;-0.34000
11499997;-0.34000
11502775;-0.33000
11505552;-0.32500
11508330;-0.33500
11511108;-0.35500
11513886;-0.39500
11516663;-0.45000
11519441;-0.45500
11522219;-0.47000
11524997;-0.51000
11527775;-0.56000
11530552;-0.59000
11533330;-0.56500
11536108;-0.51000
11538886;-0.41500
11541663;-0.32000
11544441;-0.20500
11547219;-0.08500
11549997;0.10500
11552775;0.38000
11555552;0.64000
11558330;0.83000
11561108;0.88500
11563886;0.77500
11566663;0.44500
11569441;0.04500
11572219;-0.26000
11574997;-0.43500
11577775;-0.47000
11580552;-0.45000
11583330;-0.41500
11586108;-0.37000
11588886;-0.36000
11591663;-0.38000
11594441;-0.37500
11597219;-0.39000
11599997;-0.38500
11602775;-0.37500
11605552;-0.37000
11608330;-0.37000
11611108;-0.37500
11613886;-0.37500
11616663;-0.37500
11619441;-0.36000
11622219;-0.35500
11624997;-0.36000
11627775;-0.36500
11630552;-0.38000
11633330;-0.38500
11636108;-0.37000
11638886;-0.36000
11641663;-0.35000
11644441;-0.35500
11647219;-0.37000
11649997;-0.37000
11652775;-0.35500
11655552;-0.35000
11658330;-0.36000
11661108;-0.37000
11663886;-0.38000
11666663;-0.37500
11669441;-0.36000
11672219;-0.35000
11674997;-0.36000
11677775;-0.36000
11680552;-0.36500
11683330;-0.36500
11686108;-0.36500
11688886;-0.35000
11691663;-0.35500
11694441;-0.35500
11697219;-0.38000
11699997;-0.38000
11702775;-0.36000
11705552;-0.34500
11708330;-0.35500
11711108;-0.36500
11713886;-0.36000
11716663;-0.37000
11719441;-0.36500
11722219;-0.35500
11724997;-0.35500
11727774;-0.36000
11730552;-0.37000
11733330;-0.37000
11736108;-0.36000
11738886;-0.34500
11741663;-0.35500
11744441;-0.36000
11747219;-0.35000
11749997;-0.35500
11752774;-0.34000
11755552;-0.33000
11758330;-0.33500
11761108;-0.33500
11763886;-0.34500
11766663;-0.35000
11769441;-0.33500
11772219;-0.34000
11774997;-0.34500
11777774;-0.35500
11780552;-0.36000
11783330;-0.35000
11786108;-0.35500
11788886;-0.35000
11791663;-0.36000
11794441;-0.36000
11797219;-0.38000
11799997;-0.39000
11802774;-0.37000
11805552;-0.38000
11808330;-0.38500
11811108;-0.39000
11813886;-0.40000
11816663;-0.41000
11819441;-0.40500
11822219;-0.38000
11824997;-0.38500
11827774;-0.38000
11830552;-0.38500
11833330;-0.39000
11836108;-0.38000
11838886;-0.35500
11841663;-0.35500
11844441;-0.37000
11847219;-0.36000
11849997;-0.36000
11852774;-0.34000
11855552;-0.32500
11858330;-0.31500
11861108;-0.31500
11863886;-0.30500
11866663;-0.30500
11869441;-0.28500
11872219;-0.27000
11874997;-0.27000
11877774;-0.27500
11880552;-0.28000
11883330;-0.28000
11886108;-0.26000
11888886;-0.23500
11891663;-0.23500
11894441;-0.24500
11897219;-0.25000
11899997;-0.26000
11902774;-0.25500
11905552;-0.24500
11908330;-0.24500
11911108;-0.24500
11913886;-0.24500
11916663;-0.26500
11919441;-0.25000
11922219;-0.23500
11924997;-0.23500
11927774;-0.24500
11930552;-0.24500
11933330;-0.25000
11936108;-0.25000
11938886;-0.22500
11941663;-0.23500
11944441;-0.24000
11947219;-0.26000
11949997;-0.26500
11952774;-0.27000
11955552;-0.24000
11958330;-0.24500
11961108;-0.26000
11963886;-0.26000
11966663;-0.26500
11969441;-0.25000
11972219;-0.24500
11974997;-0.24000
11977774;-0.25000
11980552;-0.26000
11983330;-0.27000
11986108;-0.26500
11988886;-0.25500
11991663;-0.26500
11994441;-0.27000
11997219;-0.27000
11999997;-0.28500
12002774;-0.27000
12005552;-0.26500
12008330;-0.27500
12011108;-0.28500
12013886;-0.29000
12016663;-0.28500
12019441;-0.28000
12022219;-0.27500
12024997;-0.28000
12027774;-0.29000
12030552;-0.28500
12033330;-0.29000
12036108;-0.28500
12038886;-0.27500
12041663;-0.28000
12044441;-0.29000
12047219;-0.29000
12049997;-0.29000
12052774;-0.30000
12055552;-0.27500
12058330;-0.28000
12061108;-0.28500
12063886;-0.30000
12066663;-0.30000
12069441;-0.27500
12072219;-0.27500
12074997;-0.28500
12077774;-0.29000
12080552;-0.29500
12083330;-0.30000
12086108;-0.29500
12088886;-0.28000
12091663;-0.28500
12094441;-0.28500
12097219;-0.29500
12099997;-0.30000
12102774;-0.28500
12105552;-0.27000
12108330;-0.28000
12111108;-0.28000
12113885;-0.29000
12116663;-0.29500
12119441;-0.28500
12122219;-0.27000
12124997;-0.27000
12127774;-0.27500
12130552;-0.28000
12133330;-0.29000
12136108;-0.28000
12138885;-0.27500
12141663;-0.28000
12144441;-0.28000
12147219;-0.28500
12149997;-0.29500
12152774;-0.27000
12155552;-0.25500
12158330;-0.23500
12161108;-0.22000
12163885;-0.22500
12166663;-0.22500
12169441;-0.22000
12172219;-0.20500
12174997;-0.20500
12177774;-0.19500
12180552;-0.19000
12183330;-0.19000
12186108;-0.17500
12188885;-0.15000
12191663;-0.15000
12194441;-0.17000
12197219;-0.17000
12199997;-0.19500
12202774;-0.18500
12205552;-0.17500
12208330;-0.18000
12211108;-0.18000
12213885;-0.20500
12216663;-0.20500
12219441;-0.19500
12222219;-0.17000
12224997;-0.16500
12227774;-0.13000
12230552;-0.15000
12233330;-0.18000
12236108;-0.18500
12238885;-0.19500
12241663;-0.21000
12244441;-0.22500
12247219;-0.25000
12249997;-0.25500
12252774;-0.27000
12255552;-0.25500
12258330;-0.26500
12261108;-0.27500
12263885;-0.29000
12266663;-0.30000
12269441;-0.27500
12272219;-0.27000
12274997;-0.27000
12277774;-0.29500
12280552;-0.29500
12283330;-0.30000
12286108;-0.29000
12288885;-0.27500
12291663;-0.29000
12294441;-0.28500
12297219;-0.30000
12299997;-0.29500
12302774;-0.29500
12305552;-0.29000
12308330;-0.29500
12311108;-0.29500
12313885;-0.30500
12316663;-0.31500
12319441;-0.31500
12322219;-0.31500
12324997;-0.34500
12327774;-0.40000
12330552;-0.43000
12333330;-0.44500
12336108;-0.48000
12338885;-0.50500
12341663;-0.51000
12344441;-0.46000
12347219;-0.36500
12349997;-0.26500
12352774;-0.16000
12355552;-0.06000
12358330;0.05000
12361108;0.24500
12363885;0.48000
12366663;0.73000
12369441;0.91000
12372219;0.99500
12374997;0.91500
12377774;0.64500
12380552;0.25000
12383330;-0.13500
12386108;-0.37500
12388885;-0.42500
12391663;-0.40000
12394441;-0.35000
12397219;-0.33000
12399997;-0.34000
12402774;-0.34000
12405552;-0.33000
12408330;-0.32500
12411108;-0.33500
12413885;-0.33000
12416663;-0.35000
12419441;-0.33000
12422219;-0.33500
12424997;-0.33500
12427774;-0.33500
12430552;-0.33500
12433330;-0.35000
12436108;-0.34000
12438885;-0.33000
12441663;-0.32500
12444441;-0.34500
12447219;-0.35000
12449997;-0.34500
12452774;-0.34000
12455552;-0.33000
12458330;-0.32500
12461108;-0.34000
12463885;-0.35000
12466663;-0.35500
12469441;-0.34000
12472219;-0.33500
12474997;-0.33000
12477774;-0.33000
12480552;-0.35000
12483330;-0.34000
12486108;-0.32500
12488885;-0.32000
12491663;-0.33000
12494441;-0.33000
12497219;-0.34000
12499996;-0.33500
12502774;-0.32500
12505552;-0.31000
12508330;-0.32500
12511108;-0.33000
12513885;-0.33500
12516663;-0.33500
12519441;-0.33500
12522219;-0.32500
12524996;-0.32500
12527774;-0.33500
12530552;-0.34000
12533330;-0.35000
12536108;-0.34500
12538885;-0.34000
12541663;-0.33000
12544441;-0.33500
12547219;-0.35000
12549996;-0.35000
12552774;-0.34500
12555552;-0.33000
12558330;-0.34000
12561108;-0.34000
12563885;-0.34000
12566663;-0.33500
12569441;-0.33000
12572219;-0.32000
12574996;-0.32000
12577774;-0.32500
12580552;-0.33500
12583330;-0.33000
12586108;-0.33500
12588885;-0.31500
12591663;-0.31000
12594441;-0.33000
12597219;-0.33500
12599996;-0.34500
12602774;-0.33500
12605552;-0.34000
12608330;-0.32500
12611108;-0.35000
12613885;-0.34500
12616663;-0.34000
12619441;-0.33000
12622219;-0.32500
12624996;-0.33000
12627774;-0.33000
12630552;-0.34000
12633330;-0.34000
12636108;-0.33500
12638885;-0.32500
12641663;-0.32500
12644441;-0.32500
12647219;-0.33500
12649996;-0.33000
12652774;-0.32000
12655552;-0.30500
12658330;-0.31000
12661108;-0.31000
12663885;-0.31000
12666663;-0.30500
12669441;-0.29500
12672219;-0.28000
12674996;-0.27500
12677774;-0.26500
12680552;-0.27000
12683330;-0.26500
12686108;-0.25500
12688885;-0.24500
12691663;-0.24000
12694441;-0.24500
12697219;-0.24500
12699996;-0.25000
12702774;-0.24000
12705552;-0.22000
12708330;-0.22000
12711108;-0.22000
12713885;-0.23500
12716663;-0.24000
12719441;-0.22500
12722219;-0.22000
12724996;-0.21500
12727774;-0.22000
12730552;-0.23500
12733330;-0.22500
12736108;-0.22500
12738885;-0.21500
12741663;-0.22500
12744441;-0.23000
12747219;-0.25500
12749996;-0.24500
12752774;-0.23500
12755552;-0.23000
12758330;-0.24500
12761108;-0.24000
12763885;-0.24000
12766663;-0.24500
12769441;-0.23000
12772219;-0.23000
12774996;-0.22000
12777774;-0.24000
12780552;-0.25000
12783330;-0.24500
12786108;-0.24500
12788885;-0.24000
12791663;-0.23000
12794441;-0.25000
12797219;-0.26000
12799996;-0.26500
12802774;-0.24500
12805552;-0.24000
12808330;-0.24500
12811108;-0.26000
12813885;-0.27500
12816663;-0.28000
12819441;-0.27500
12822219;-0.26500
12824996;-0.27500
12827774;-0.28000
12830552;-0.28000
12833330;-0.28000
12836108;-0.28000
12838885;-0.26000
12841663;-0.26500
12844441;-0.26500
12847219;-0.27500
12849996;-0.27500
12852774;-0.26000
12855552;-0.26000
12858330;-0.26000
12861108;-0.26500
12863885;-0.27500
12866663;-0.28000
12869441;-0.26500
12872219;-0.25500
12874996;-0.26500
12877774;-0.27000
12880552;-0.27500
12883330;-0.28500
12886108;-0.27500
12888885;-0.26500
12891663;-0.27000
12894441;-0.27500
12897219;-0.28000
12899996;-0.28500
12902774;-0.27500
12905552;-0.26500
12908330;-0.28000
12911107;-0.28000
12913885;-0.28500
12916663;-0.29000
12919441;-0.27500
12922219;-0.26500
12924996;-0.27000
12927774;-0.27500
12930552;-0.27000
12933330;-0.27500
12936107;-0.26500
12938885;-0.25500
12941663;-0.26500
12944441;-0.26000
12947219;-0.27500
12949996;-0.27500
12952774;-0.26500
12955552;-0.25500
12958330;-0.25000
12961107;-0.25000
12963885;-0.26500
12966663;-0.26000
12969441;-0.25000
12972219;-0.24500
12974996;-0.23000
12977774;-0.21500
12980552;-0.21000
12983330;-0.20500
12986107;-0.19500
12988885;-0.19000
12991663;-0.18000
12994441;-0.18000
12997219;-0.17000
12999996;-0.16500
13002774;-0.16000
13005552;-0.14000
13008330;-0.15500
13011107;-0.16000
13013885;-0.17000
13016663;-0.17500
13019441;-0.17000
13022219;-0.16500
13024996;-0.16500
13027774;-0.16000
13030552;-0.17500
13033330;-0.18000
13036107;-0.18000
13038885;-0.16500
13041663;-0.15000
13044441;-0.14500
13047219;-0.15500
13049996;-0.14000
13052774;-0.15000
13055552;-0.16000
13058330;-0.20000
13061107;-0.21500
13063885;-0.22500
13066663;-0.23500
13069441;-0.24000
13072219;-0.24500
13074996;-0.25500
13077774;-0.27500
13080552;-0.28000
13083330;-0.28500
13086107;-0.28000
13088885;-0.26500
13091663;-0.27000
13094441;-0.27000
13097219;-0.27500
13099996;-0.29000
13102774;-0.29500
13105552;-0.28000
13108330;-0.28000
13111107;-0.29000
13113885;-0.30000
13116663;-0.30500
13119441;-0.29500
13122219;-0.28500
13124996;-0.29000
13127774;-0.31000
13130552;-0.33000
13133330;-0.33500
13136107;-0.32000
13138885;-0.32500
13141663;-0.33000
13144441;-0.36500
13147219;-0.41000
13149996;-0.44000
13152774;-0.46500
13155552;-0.51000
13158330;-0.52000
13161107;-0.46500
13163885;-0.34500
13166663;-0.18500
13169441;0.01000
13172219;0.27500
13174996;0.55500
13177774;0.78000
13180552;0.87000
13183330;0.78000
13186107;0.52000
13188885;0.15500
13191663;-0.20500
13194441;-0.41000
13197219;-0.45500
13199996;-0.42500
13202774;-0.37500
13205552;-0.35000
13208330;-0.34500
13211107;-0.36500
13213885;-0.36000
13216663;-0.35000
13219441;-0.33500
13222219;-0.32000
13224996;-0.33500
13227774;-0.34000
13230552;-0.35500
13233330;-0.34500
13236107;-0.33500
13238885;-0.34000
13241663;-0.33500
13244441;-0.34500
13247219;-0.34500
13249996;-0.35000
13252774;-0.35000
13255552;-0.34000
13258330;-0.33500
13261107;-0.35000
13263885;-0.35000
13266663;-0.35500
13269441;-0.35000
13272219;-0.34000
13274996;-0.35000
13277774;-0.35500
13280552;-0.35000
13283330;-0.35500
13286107;-0.35000
13288885;-0.34500
13291663;-0.34000
13294441;-0.35000
13297218;-0.36000
13299996;-0.37000
13302774;-0.35500
13305552;-0.34000
13308330;-0.33500
13311107;-0.34500
13313885;-0.35000
13316663;-0.34500
13319441;-0.33500
13322218;-0.34000
13324996;-0.34000
13327774;-0.35000
13330552;-0.35500
13333330;-0.36000
13336107;-0.36500
13338885;-0.35000
13341663;-0.35000
13344441;-0.36500
13347218;-0.36500
13349996;-0.37500
13352774;-0.36500
13355552;-0.36500
13358330;-0.34500
13361107;-0.34000
13363885;-0.34500
13366663;-0.35000
13369441;-0.35500
13372218;-0.34500
13374996;-0.33500
13377774;-0.33500
13380552;-0.33000
13383330;-0.34500
13386107;-0.34000
13388885;-0.33000
13391663;-0.33000
13394441;-0.34000
13397218;-0.35000
13399996;-0.36000
13402774;-0.35500
13405552;-0.33500
13408330;-0.34000
13411107;-0.35000
13413885;-0.36000
13416663;-0.38500
13419441;-0.36500
13422218;-0.35500
13424996;-0.35000
13427774;-0.37500
13430552;-0.39000
13433330;-0.39000
13436107;-0.39500
13438885;-0.39000
13441663;-0.37000
13444441;-0.36000
13447218;-0.36500
13449996;-0.37500
13452774;-0.36500
13455552;-0.35000
13458330;-0.35000
13461107;-0.35000
13463885;-0.35000
13466663;-0.35500
13469441;-0.34000
13472218;-0.32500
13474996;-0.31500
13477774;-0.31000
13480552;-0.32000
13483330;-0.31000
13486107;-0.30000
13488885;-0.28500
13491663;-0.28500
13494441;-0.28500
13497218;-0.29000
13499996;-0.29000
13502774;-0.28500
13505552;-0.26000
13508330;-0.26500
13511107;-0.26000
13513885;-0.27500
13516663;-0.27500
13519441;-0.27000
13522218;-0.25500
13524996;-0.25500
13527774;-0.25500
13530552;-0.26000
13533330;-0.27500
13536107;-0.27000
13538885;-0.26000
13541663;-0.26500
13544441;-0.26500
13547218;-0.28500
13549996;-0.28500
13552774;-0.29000
13555552;-0.28500
13558330;-0.28500
13561107;-0.28500
13563885;-0.29500
13566663;-0.30500
13569441;-0.28000
13572218;-0.27000
13574996;-0.26500
13577774;-0.27000
13580552;-0.28000
13583330;-0.29000
13586107;-0.29000
13588885;-0.29500
13591663;-0.29500
13594441;-0.29500
13597218;-0.29500
13599996;-0.30000
13602774;-0.30500
13605552;-0.29500
13608330;-0.29000
13611107;-0.30500
13613885;-0.31500
13616663;-0.32500
13619441;-0.32000
13622218;-0.31000
13624996;-0.30500
13627774;-0.32000
13630552;-0.33000
13633330;-0.33500
13636107;-0.32000
13638885;-0.31500
13641663;-0.31500
13644441;-0.31500
13647218;-0.33000
13649996;-0.32500
13652774;-0.32000
13655552;-0.30500
13658330;-0.30500
13661107;-0.31500
13663885;-0.32000
13666663;-0.33500
13669441;-0.32500
13672218;-0.32000
13674996;-0.32000
13677774;-0.31500
13680552;-0.32000
13683330;-0.33500
13686107;-0.32000
13688885;-0.31500
13691663;-0.32000
13694441;-0.33000
13697218;-0.33500
13699996;-0.33500
13702774;-0.32000
13705552;-0.31000
13708329;-0.32500
13711107;-0.32500
13713885;-0.34000
13716663;-0.33500
13719441;-0.33000
13722218;-0.32000
13724996;-0.30500
13727774;-0.31500
13730552;-0.32500
13733329;-0.33500
13736107;-0.32000
13738885;-0.32000
13741663;-0.31000
13744441;-0.32000
13747218;-0.32500
13749996;-0.31000
13752774;-0.30500
13755552;-0.29500
13758329;-0.28500
13761107;-0.26000
13763885;-0.28000
13766663;-0.28500
13769441;-0.26000
13772218;-0.25000
13774996;-0.25000
13777774;-0.24500
13780552;-0.25500
13783329;-0.25000
13786107;-0.23500
13788885;-0.21500
13791663;-0.22000
13794441;-0.22000
13797218;-0.23500
13799996;-0.24000
13802774;-0.23500
13805552;-0.22500
13808329;-0.22000
13811107;-0.23500
13813885;-0.26000
13816663;-0.26500
13819441;-0.24500
13822218;-0.22000
13824996;-0.22500
13827774;-0.24500
13830552;-0.29000
13833329;-0.31500
13836107;-0.32500
13838885;-0.32500
13841663;-0.32500
13844441;-0.33000
13847218;-0.36000
13849996;-0.35500
13852774;-0.34500
13855552;-0.33000
13858329;-0.32500
13861107;-0.34000
13863885;-0.34500
13866663;-0.35000
13869441;-0.34000
13872218;-0.33000
13874996;-0.34000
13877774;-0.34500
13880552;-0.34500
13883329;-0.35500
13886107;-0.35000
13888885;-0.34500
13891663;-0.34500
13894441;-0.36000
13897218;-0.38000
13899996;-0.38500
13902774;-0.36500
13905552;-0.36500
13908329;-0.36000
13911107;-0.37000
13913885;-0.36500
13916663;-0.37500
13919441;-0.40000
13922218;-0.43500
13924996;-0.45500
13927774;-0.47500
13930552;-0.51500
13933329;-0.56500
13936107;-0.55000
13938885;-0.46000
13941663;-0.34000
13944441;-0.20000
13947218;-0.05000
13949996;0.17000
13952774;0.44000
13955552;0.67500
13958329;0.82500
13961107;0.81500
13963885;0.62000
13966663;0.24000
13969441;-0.15000
13972218;-0.38000
13974996;-0.47000
13977774;-0.49500
13980552;-0.46000
13983329;-0.43000
13986107;-0.42000
13988885;-0.41000
13991663;-0.40000
13994441;-0.40500
13997218;-0.40500
13999996;-0.41000
14002774;-0.39500
14005552;-0.39000
14008329;-0.39500
14011107;-0.40000
14013885;-0.40000
14016663;-0.40500
14019441;-0.39500
14022218;-0.38500
14024996;-0.37500
14027774;-0.39000
14030552;-0.40000
14033329;-0.40500
14036107;-0.38000
14038885;-0.38500
14041663;-0.40000
14044441;-0.40000
14047218;-0.41500
14049996;-0.41000
14052774;-0.39500
14055552;-0.39000
14058329;-0.40500
14061107;-0.40500
14063885;-0.41000
14066663;-0.40000
14069441;-0.41000
14072218;-0.39500
14074996;-0.40500
14077774;-0.41500
14080552;-0.41500
14083329;-0.41500
14086107;-0.40000
14088885;-0.39000
14091663;-0.39000
14094440;-0.40000
14097218;-0.41500
14099996;-0.41000
14102774;-0.40500
14105552;-0.40500
14108329;-0.40500
14111107;-0.41000
14113885;-0.42500
14116663;-0.41000
14119440;-0.40000
14122218;-0.39500
14124996;-0.40000
14127774;-0.41500
14130552;-0.41000
14133329;-0.42000
14136107;-0.41000
14138885;-0.41000
14141663;-0.40000
14144440;-0.40500
14147218;-0.41500
14149996;-0.41500
14152774;-0.40500
14155552;-0.39500
14158329;-0.40000
14161107;-0.39500
14163885;-0.41000
14166663;-0.41000
14169440;-0.40000
14172218;-0.40000
14174996;-0.41000
14177774;-0.41000
14180552;-0.43000
14183329;-0.42500
14186107;-0.42000
14188885;-0.42000
14191663;-0.42500
14194440;-0.44000
14197218;-0.45000
14199996;-0.45500
14202774;-0.44500
14205552;-0.44500
14208329;-0.44500
14211107;-0.46000
14213885;-0.47500
14216663;-0.47500
14219440;-0.46500
14222218;-0.46500
14224996;-0.44500
14227774;-0.45000
14230552;-0.45000
14233329;-0.44000
14236107;-0.42000
14238885;-0.40000
14241663;-0.38500
14244440;-0.38000
14247218;-0.37000
14249996;-0.36500
14252774;-0.34000
14255552;-0.32000
14258329;-0.31500
14261107;-0.31500
14263885;-0.32500
14266663;-0.31500
14269440;-0.30500
14272218;-0.29000
14274996;-0.29000
14277774;-0.29500
14280552;-0.30000
14283329;-0.31000
14286107;-0.31000
14288885;-0.29500
14291663;-0.29000
14294440;-0.29500
14297218;-0.29500
14299996;-0.31000
14302774;-0.29500
14305552;-0.28000
14308329;-0.28000
14311107;-0.29000
14313885;-0.31000
14316663;-0.30500
14319440;-0.31000
14322218;-0.29000
14324996;-0.29500
14327774;-0.30000
14330552;-0.31000
14333329;-0.31000
14336107;-0.30000
14338885;-0.29500
14341663;-0.29500
14344440;-0.30500
14347218;-0.30500
14349996;-0.30500
14352774;-0.31000
14355552;-0.31000
14358329;-0.31000
14361107;-0.31000
14363885;-0.32500
14366663;-0.32000
14369440;-0.31500
14372218;-0.31000
14374996;-0.31000
14377774;-0.32000
14380552;-0.31500
14383329;-0.32000
14386107;-0.32000
14388885;-0.31500
14391663;-0.31500
14394440;-0.32500
14397218;-0.33000
14399996;-0.33000
14402774;-0.32500
14405552;-0.32000
14408329;-0.32500
14411107;-0.33000
14413885;-0.33000
14416663;-0.34000
14419440;-0.33500
14422218;-0.32500
14424996;-0.33000
14427774;-0.33000
14430552;-0.33000
14433329;-0.33000
14436107;-0.32000
14438885;-0.31000
14441663;-0.31500
14444440;-0.31000
14447218;-0.32000
14449996;-0.32000
14452774;-0.30500
14455552;-0.30000
14458329;-0.30000
14461107;-0.30500
14463885;-0.32000
14466663;-0.32500
14469440;-0.31000
14472218;-0.31500
14474996;-0.31000
14477774;-0.31000
14480552;-0.32500
14483329;-0.33000
14486107;-0.32000
14488885;-0.31000
14491663;-0.32000
14494440;-0.31500
14497218;-0.32000
14499996;-0.32500
14502774;-0.31500
14505551;-0.30500
14508329;-0.30500
14511107;-0.32000
14513885;-0.30500
14516663;-0.31500
14519440;-0.31500
14522218;-0.29500
14524996;-0.28500
14527774;-0.27500
14530551;-0.26000
14533329;-0.25500
14536107;-0.25000
14538885;-0.23500
14541663;-0.23000
14544440;-0.23500
14547218;-0.24500
14549996;-0.24000
14552774;-0.22500
14555551;-0.21500
14558329;-0.21500
14561107;-0.21000
14563885;-0.21000
14566663;-0.21500
14569440;-0.20500
14572218;-0.20500
14574996;-0.20500
14577774;-0.20500
14580551;-0.21500
14583329;-0.22500
14586107;-0.22000
14588885;-0.20500
14591663;-0.21500
14594440;-0.23500
14597218;-0.23500
14599996;-0.22000
14602774;-0.19500
14605551;-0.18500
14608329;-0.19500
14611107;-0.24000
14613885;-0.27000
14616663;-0.29000
14619440;-0.30000
14622218;-0.29500
14624996;-0.30000
14627774;-0.32000
14630551;-0.32500
14633329;-0.33000
14636107;-0.32000
14638885;-0.32000
14641663;-0.32000
14644440;-0.32500
14647218;-0.32500
14649996;-0.34000
14652774;-0.33000
14655551;-0.32500
14658329;-0.33500
14661107;-0.32500
14663885;-0.33500
14666663;-0.34000
14669440;-0.33000
14672218;-0.33000
14674996;-0.32500
14677774;-0.34000
14680551;-0.34500
14683329;-0.34000
14686107;-0.33500
14688885;-0.33500
14691663;-0.33500
14694440;-0.33000
14697218;-0.35500
14699996;-0.38500
14702774;-0.42500
14705551;-0.44500
14708329;-0.46000
14711107;-0.49000
14713885;-0.53500
14716663;-0.54000
14719440;-0.47500
14722218;-0.34000
14724996;-0.18000
14727774;-0.01500
14730551;0.22500
14733329;0.50500
14736107;0.76500
14738885;0.91000
14741663;0.90000
14744440;0.68000
14747218;0.30000
14749996;-0.09500
14752774;-0.36000
14755551;-0.45000
14758329;-0.45500
14761107;-0.41500
14763885;-0.38000
14766663;-0.37500
14769440;-0.36500
14772218;-0.36500
14774996;-0.36000
14777774;-0.36000
14780551;-0.37500
14783329;-0.38000
14786107;-0.37500
14788885;-0.36500
14791663;-0.37500
14794440;-0.38000
14797218;-0.39500
14799996;-0.39500
14802774;-0.39000
14805551;-0.37500
14808329;-0.36500
14811107;-0.36500
14813885;-0.38000
14816663;-0.38500
14819440;-0.37500
14822218;-0.36500
14824996;-0.37500
14827774;-0.37500
14830551;-0.38000
14833329;-0.38000
14836107;-0.37000
14838885;-0.37000
14841663;-0.35500
14844440;-0.37500
14847218;-0.37500
14849996;-0.38000
14852774;-0.37000
14855551;-0.35500
14858329;-0.37000
14861107;-0.38000
14863885;-0.37500
14866663;-0.38500
14869440;-0.37000
14872218;-0.36500
14874996;-0.36500
14877774;-0.38000
14880551;-0.37500
14883329;-0.39000
14886107;-0.37500
14888885;-0.35500
14891662;-0.37000
14894440;-0.37000
14897218;-0.37500
14899996;-0.37500
14902774;-0.37500
14905551;-0.36000
14908329;-0.35000
14911107;-0.36000
14913885;-0.36500
14916662;-0.39000
14919440;-0.37500
14922218;-0.36500
14924996;-0.36500
14927774;-0.37000
14930551;-0.37000
14933329;-0.38000
14936107;-0.37500
14938885;-0.38000
14941662;-0.37500
14944440;-0.36500
14947218;-0.38000
14949996;-0.39000
14952774;-0.38000
14955551;-0.37500
14958329;-0.38000
14961107;-0.38500
14963885;-0.39000
14966662;-0.39500
14969440;-0.38500
14972218;-0.38000
14974996;-0.37500
14977774;-0.38500
14980551;-0.39500
14983329;-0.39500
14986107;-0.38500
14988885;-0.38500
14991662;-0.40000
14994440;-0.40000
14997218;-0.40000
14999996;-0.40000
15002774;-0.39000
15005551;-0.39500
15008329;-0.38500
15011107;-0.40000
15013885;-0.38500
15016662;-0.39000
15019440;-0.38500
15022218;-0.37500
15024996;-0.36000
15027774;-0.35500
15030551;-0.35500
15033329;-0.35500
15036107;-0.34500
15038885;-0.32500
15041662;-0.30500
15044440;-0.30500
15047218;-0.31000
15049996;-0.30500
15052774;-0.29000
15055551;-0.27000
15058329;-0.27500
15061107;-0.26500
15063885;-0.27000
15066662;-0.26500
15069440;-0.25500
15072218;-0.24500
15074996;-0.24500
15077774;-0.25000
15080551;-0.25000
15083329;-0.26000
15086107;-0.26000
15088885;-0.25000
15091662;-0.24500
15094440;-0.26000
15097218;-0.25500
15099996;-0.25500
15102774;-0.26000
15105551;-0.24500
15108329;-0.26000
15111107;-0.25000
15113885;-0.26500
15116662;-0.27000
15119440;-0.26000
15122218;-0.26500
15124996;-0.25000
15127774;-0.26000
15130551;-0.27000
15133329;-0.26500
15136107;-0.26500
15138885;-0.26000
15141662;-0.26000
15144440;-0.27500
15147218;-0.27000
15149996;-0.28000
15152774;-0.28000
15155551;-0.26000
15158329;-0.25500
15161107;-0.26500
15163885;-0.27500
15166662;-0.28500
15169440;-0.28000
15172218;-0.27500
15174996;-0.27000
15177774;-0.28000
15180551;-0.28500
15183329;-0.28500
15186107;-0.29500
15188885;-0.29000
15191662;-0.26500
15194440;-0.28500
15197218;-0.29500
15199996;-0.29500
15202774;-0.29000
15205551;-0.28000
15208329;-0.28500
15211107;-0.28000
15213885;-0.29000
15216662;-0.30000
15219440;-0.29500
15222218;-0.28000
15224996;-0.28000
15227774;-0.29500
15230551;-0.30000
15233329;-0.30500
15236107;-0.29000
15238885;-0.30000
15241662;-0.28000
15244440;-0.28500
15247218;-0.30000
15249996;-0.31000
15252774;-0.30500
15255551;-0.29000
15258329;-0.30000
15261107;-0.30000
15263885;-0.30000
15266662;-0.30500
15269440;-0.29500
15272218;-0.30000
15274996;-0.29000
15277774;-0.30000
15280551;-0.30500
15283329;-0.31000
15286107;-0.30500
15288885;-0.29000
15291662;-0.28500
15294440;-0.28500
15297218;-0.29000
15299996;-0.30000
15302773;-0.29000
15305551;-0.30000
15308329;-0.27500
15311107;-0.28500
15313885;-0.27500
15316662;-0.29500
15319440;-0.29000
15322218;-0.27500
15324996;-0.26500
15327773;-0.27500
15330551;-0.27000
15333329;-0.26000
15336107;-0.25500
15338885;-0.22500
15341662;-0.22500
15344440;-0.22000
15347218;-0.22000
15349996;-0.22000
15352773;-0.21000
15355551;-0.20000
15358329;-0.18500
15361107;-0.18000
15363885;-0.18500
15366662;-0.17500
15369440;-0.18500
15372218;-0.17000
15374996;-0.17000
15377773;-0.18000
15380551;-0.18500
15383329;-0.20000
15386107;-0.20500
15388885;-0.19000
15391662;-0.18500
15394440;-0.19500
15397218;-0.22000
15399996;-0.23500
15402773;-0.21000
15405551;-0.19500
15408329;-0.16500
15411107;-0.16000
15413885;-0.16000
15416662;-0.17500
15419440;-0.19000
15422218;-0.21000
15424996;-0.22500
15427773;-0.23000
15430551;-0.25000
15433329;-0.26000
15436107;-0.27000
15438885;-0.27000
15441662;-0.27500
15444440;-0.28000
15447218;-0.29500
15449996;-0.29500
15452773;-0.29000
15455551;-0.28500
15458329;-0.29500
15461107;-0.29000
15463885;-0.30000
15466662;-0.30500
15469440;-0.30000
15472218;-0.29500
15474996;-0.29000
15477773;-0.28500
15480551;-0.30500
15483329;-0.31000
15486107;-0.30500
15488885;-0.30500
15491662;-0.29000
15494440;-0.30500
15497218;-0.30500
15499996;-0.31000
15502773;-0.31500
15505551;-0.31500
15508329;-0.31000
15511107;-0.32500
15513885;-0.37000
15516662;-0.41000
15519440;-0.42500
15522218;-0.44500
15524996;-0.46500
15527773;-0.50500
15530551;-0.51000
15533329;-0.46000
15536107;-0.34500
15538885;-0.19500
15541662;-0.04000
15544440;0.13500
15547218;0.37000
15549996;0.62000
15552773;0.81000
15555551;0.93500
15558329;0.99500
15561107;0.98500
15563885;0.88500
15566662;0.62000
15569440;0.28000
15572218;-0.04000
15574996;-0.27000
15577773;-0.40000
15580551;-0.44000
15583329;-0.40500
15586107;-0.34500
15588885;-0.33000
15591662;-0.32000
15594440;-0.33000
15597218;-0.33500
15599996;-0.34000
15602773;-0.34500
15605551;-0.32500
15608329;-0.33000
15611107;-0.33000
15613885;-0.35000
15616662;-0.35500
15619440;-0.35000
15622218;-0.34500
15624996;-0.34500
15627773;-0.36000
15630551;-0.36500
15633329;-0.37500
15636107;-0.36000
15638885;-0.35000
15641662;-0.35500
15644440;-0.35500
15647218;-0.37500
15649996;-0.36500
15652773;-0.35500
15655551;-0.36500
15658329;-0.35000
15661107;-0.34500
15663885;-0.36000
15666662;-0.35000
15669440;-0.35000
15672218;-0.34500
15674996;-0.34000
15677773;-0.35000
15680551;-0.35000
15683329;-0.35500
15686107;-0.34500
15688884;-0.35000
15691662;-0.33500
15694440;-0.34000
15697218;-0.34500
15699996;-0.36000
15702773;-0.35000
15705551;-0.34500
15708329;-0.35000
15711107;-0.34500
15713884;-0.35500
15716662;-0.35500
15719440;-0.35000
15722218;-0.34000
15724996;-0.33000
15727773;-0.35000
15730551;-0.35500
15733329;-0.36000
15736107;-0.35500
15738884;-0.33500
15741662;-0.33000
15744440;-0.33500
15747218;-0.34500
15749996;-0.34500
15752773;-0.34000
15755551;-0.33000
15758329;-0.33000
15761107;-0.33000
15763884;-0.35000
15766662;-0.35000
15769440;-0.33500
15772218;-0.32500
15774996;-0.33000
15777773;-0.34000
15780551;-0.35000
15783329;-0.35500
15786107;-0.35500
15788884;-0.35000
15791662;-0.34000
15794440;-0.35000
15797218;-0.35000
15799996;-0.36500
15802773;-0.35500
15805551;-0.35500
15808329;-0.35000
15811107;-0.34500
15813884;-0.34500
15816662;-0.36000
15819440;-0.35500
15822218;-0.35000
15824996;-0.35000
15827773;-0.35500
15830551;-0.37000
15833329;-0.37000
15836107;-0.35500
15838884;-0.35500
15841662;-0.34500
15844440;-0.34000
15847218;-0.35000
15849996;-0.35000
15852773;-0.35000
15855551;-0.33000
15858329;-0.32000
15861107;-0.32000
15863884;-0.32000
15866662;-0.32000
15869440;-0.29500
15872218;-0.28000
15874996;-0.27000
15877773;-0.27000
15880551;-0.28500
15883329;-0.26500
15886107;-0.27000
15888884;-0.25500
15891662;-0.24000
15894440;-0.25000
15897218;-0.25500
15899996;-0.26000
15902773;-0.24500
15905551;-0.25000
15908329;-0.24000
15911107;-0.25000
15913884;-0.25000
15916662;-0.25500
15919440;-0.25000
15922218;-0.23500
15924996;-0.23500
15927773;-0.23500
15930551;-0.23500
15933329;-0.24500
15936107;-0.24500
15938884;-0.23500
15941662;-0.24500
15944440;-0.25000
15947218;-0.26000
15949996;-0.26500
15952773;-0.25000
15955551;-0.24500
15958329;-0.23000
15961107;-0.24000
15963884;-0.26000
15966662;-0.26500
15969440;-0.26000
15972218;-0.25500
15974996;-0.25000
15977773;-0.26500
15980551;-0.26000
15983329;-0.26500
15986107;-0.26500
15988884;-0.26000
15991662;-0.26000
15994440;-0.26500
15997218;-0.28500
15999996;-0.29500
16002773;-0.28500
16005551;-0.27500
16008329;-0.28000
16011107;-0.28500
16013884;-0.29500
16016662;-0.29500
16019440;-0.29500
16022218;-0.29000
16024996;-0.28000
16027773;-0.27500
16030551;-0.29000
16033329;-0.31000
16036107;-0.29000
16038884;-0.28000
16041662;-0.28000
16044440;-0.28500
16047218;-0.30500
16049996;-0.30000
16052773;-0.30000
16055551;-0.30000
16058329;-0.28500
16061107;-0.29000
16063884;-0.30000
16066662;-0.31500
16069440;-0.30000
16072218;-0.32000
16074995;-0.32000
16077773;-0.30500
16080551;-0.31000
16083329;-0.32500
16086107;-0.31000
16088884;-0.31000
16091662;-0.29500
16094440;-0.30500
16097218;-0.30000
16099995;-0.31500
16102773;-0.31000
16105551;-0.30500
16108329;-0.30000
16111107;-0.29500
16113884;-0.30000
16116662;-0.30500
16119440;-0.29500
16122218;-0.29500
16124995;-0.28000
16127773;-0.29500
16130551;-0.30500
16133329;-0.30500
16136107;-0.29500
16138884;-0.29500
16141662;-0.29500
16144440;-0.31000
16147218;-0.30500
16149995;-0.31500
16152773;-0.30000
16155551;-0.28000
16158329;-0.26500
16161107;-0.26000
16163884;-0.26000
16166662;-0.26000
16169440;-0.24500
16172218;-0.23000
16174995;-0.22500
16177773;-0.23000
16180551;-0.23000
16183329;-0.23000
16186107;-0.20500
16188884;-0.19000
16191662;-0.17500
16194440;-0.19000
16197218;-0.20500
16199995;-0.21000
16202773;-0.20500
16205551;-0.19500
16208329;-0.20500
16211107;-0.21000
16213884;-0.23000
16216662;-0.22500
16219440;-0.20500
16222218;-0.21000
16224995;-0.20500
16227773;-0.21500
16230551;-0.21000
16233329;-0.20000
16236107;-0.18500
16238884;-0.19000
16241662;-0.22500
16244440;-0.25000
16247218;-0.26500
16249995;-0.28500
16252773;-0.29500
16255551;-0.30000
16258329;-0.30500
16261107;-0.32000
16263884;-0.34000
16266662;-0.34000
16269440;-0.33000
16272218;-0.32000
16274995;-0.32000
16277773;-0.32000
16280551;-0.32500
16283329;-0.33000
16286107;-0.33000
16288884;-0.33500
16291662;-0.32500
16294440;-0.33500
16297218;-0.33500
16299995;-0.34500
16302773;-0.33000
16305551;-0.32500
16308329;-0.32500
16311107;-0.33500
16313884;-0.33000
16316662;-0.34000
16319440;-0.31500
16322218;-0.32000
16324995;-0.31500
16327773;-0.31500
16330551;-0.33000
16333329;-0.34000
16336107;-0.33500
16338884;-0.34500
16341662;-0.36000
16344440;-0.41000
16347218;-0.44000
16349995;-0.46500
16352773;-0.47500
16355551;-0.50500
16358329;-0.54500
16361107;-0.55500
16363884;-0.50500
16366662;-0.41500
16369440;-0.28000
16372218;-0.15000
16374995;0.02500
16377773;0.27500
16380551;0.51500
16383329;0.68500
16386107;0.78500
