time_ms;ecg_value
0;-0.49500
2778;-0.48000
5556;-0.48000
8333;-0.49000
11111;-0.50000
13889;-0.50500
16667;-0.48500
19444;-0.47000
22222;-0.46500
25000;-0.47500
27778;-0.48000
30556;-0.46000
33333;-0.43500
36111;-0.42500
38889;-0.41000
41667;-0.41500
44444;-0.40500
47222;-0.39000
50000;-0.37000
52778;-0.35000
55556;-0.34500
58333;-0.34500
61111;-0.35500
63889;-0.34500
66667;-0.33000
69444;-0.31000
72222;-0.31500
75000;-0.32000
77778;-0.32000
80556;-0.31000
83333;-0.30500
86111;-0.30500
88889;-0.29500
91667;-0.31000
94444;-0.31500
97222;-0.30000
100000;-0.29000
102778;-0.28000
105556;-0.28000
108333;-0.29500
111111;-0.30000
113889;-0.30000
116667;-0.30000
119444;-0.30500
122222;-0.30000
125000;-0.29000
127778;-0.30500
130556;-0.30500
133333;-0.28500
136111;-0.28000
138889;-0.28500
141667;-0.30000
144444;-0.30500
147222;-0.31000
150000;-0.30000
152778;-0.29000
155556;-0.29500
158333;-0.31000
161111;-0.32000
163889;-0.31500
166667;-0.31500
169444;-0.30000
172222;-0.30000
175000;-0.31500
177778;-0.32500
180556;-0.32000
183333;-0.31000
186111;-0.30000
188889;-0.31500
191667;-0.32500
194444;-0.33000
197222;-0.33500
200000;-0.32000
202778;-0.31000
205555;-0.32000
208333;-0.33000
211111;-0.34000
213889;-0.34000
216667;-0.33000
219444;-0.33000
222222;-0.31500
225000;-0.32500
227778;-0.32000
230555;-0.32000
233333;-0.29000
236111;-0.29000
238889;-0.28500
241667;-0.29000
244444;-0.29500
247222;-0.28500
250000;-0.27000
252778;-0.25000
255555;-0.24500
258333;-0.24500
261111;-0.25000
263889;-0.25000
266667;-0.22500
269444;-0.22000
272222;-0.21000
275000;-0.24500
277778;-0.25000
280555;-0.25500
283333;-0.24500
286111;-0.23000
288889;-0.23000
291667;-0.24000
294444;-0.24000
297222;-0.22500
300000;-0.20000
302778;-0.18000
305555;-0.21500
308333;-0.25500
311111;-0.28500
313889;-0.30500
316667;-0.30000
319444;-0.30000
322222;-0.32500
325000;-0.33000
327778;-0.36000
330555;-0.36500
333333;-0.35000
336111;-0.33500
338889;-0.33000
341667;-0.34500
344444;-0.36000
347222;-0.35500
350000;-0.36000
352778;-0.35000
355555;-0.35500
358333;-0.36500
361111;-0.38000
363889;-0.37500
366667;-0.36000
369444;-0.36000
372222;-0.37500
375000;-0.37000
377778;-0.38000
380555;-0.37000
383333;-0.36000
386111;-0.35500
388889;-0.35500
391667;-0.36000
394444;-0.37000
397222;-0.37000
400000;-0.36500
402778;-0.38000
405555;-0.42000
408333;-0.45000
411111;-0.48500
413889;-0.47500
416667;-0.47500
419444;-0.51500
422222;-0.55500
425000;-0.53500
427778;-0.44000
430555;-0.28500
433333;-0.11000
436111;0.08000
438889;0.34500
441667;0.60500
444444;0.80500
447222;0.88500
450000;0.82500
452778;0.56500
455555;0.11500
458333;-0.30500
461111;-0.53500
463889;-0.58000
466667;-0.52000
469444;-0.43500
472222;-0.40500
475000;-0.41000
477778;-0.42000
480555;-0.42500
483333;-0.41500
486111;-0.41000
488889;-0.41000
491667;-0.43000
494444;-0.43500
497222;-0.44500
500000;-0.42000
502778;-0.42500
505555;-0.42500
508333;-0.44000
511111;-0.44500
513889;-0.44000
516667;-0.43500
519444;-0.42000
522222;-0.42000
525000;-0.43000
527778;-0.44500
530555;-0.44000
533333;-0.42500
536111;-0.41500
538889;-0.42500
541667;-0.41500
544444;-0.43000
547222;-0.41500
550000;-0.42500
552778;-0.41500
555555;-0.41500
558333;-0.43500
561111;-0.43500
563889;-0.42500
566667;-0.41500
569444;-0.41500
572222;-0.42000
575000;-0.42500
577778;-0.43000
580555;-0.43500
583333;-0.43500
586111;-0.43000
588889;-0.42500
591667;-0.42500
594444;-0.44000
597222;-0.43500
600000;-0.42500
602778;-0.41000
605555;-0.41500
608333;-0.43000
611111;-0.42500
613889;-0.42000
616666;-0.43000
619444;-0.41500
622222;-0.41500
625000;-0.42500
627778;-0.43500
630555;-0.43000
633333;-0.42000
636111;-0.41500
638889;-0.42000
641666;-0.41500
644444;-0.42500
647222;-0.43500
650000;-0.42000
652778;-0.41500
655555;-0.42000
658333;-0.43000
661111;-0.43500
663889;-0.43000
666666;-0.42000
669444;-0.41500
672222;-0.42000
675000;-0.42500
677778;-0.43000
680555;-0.43500
683333;-0.42000
686111;-0.42000
688889;-0.42500
691666;-0.43500
694444;-0.44000
697222;-0.43000
700000;-0.43500
702778;-0.42500
705555;-0.42000
708333;-0.42000
711111;-0.41500
713889;-0.42500
716666;-0.40500
719444;-0.39500
722222;-0.38500
725000;-0.39000
727778;-0.39500
730555;-0.38500
733333;-0.36500
736111;-0.34000
738889;-0.33500
741666;-0.33500
744444;-0.34500
747222;-0.33000
750000;-0.32500
752778;-0.31000
755555;-0.29500
758333;-0.30000
761111;-0.31500
763889;-0.30500
766666;-0.29000
769444;-0.28500
772222;-0.29500
775000;-0.29000
777778;-0.29500
780555;-0.29500
783333;-0.29500
786111;-0.28000
788889;-0.27500
791666;-0.29000
794444;-0.30000
797222;-0.30500
800000;-0.29000
802778;-0.30000
805555;-0.30000
808333;-0.29000
811111;-0.31500
813889;-0.31500
816666;-0.31000
819444;-0.29000
822222;-0.30000
825000;-0.30500
827778;-0.32000
830555;-0.31500
833333;-0.31000
836111;-0.30000
838889;-0.29500
841666;-0.30500
844444;-0.31000
847222;-0.31500
850000;-0.31000
852778;-0.30500
855555;-0.31500
858333;-0.33000
861111;-0.32000
863889;-0.32500
866666;-0.32500
869444;-0.32500
872222;-0.31500
875000;-0.32500
877778;-0.33000
880555;-0.33500
883333;-0.33500
886111;-0.32500
888889;-0.33000
891666;-0.33500
894444;-0.35000
897222;-0.35000
900000;-0.33500
902778;-0.32500
905555;-0.33000
908333;-0.32500
911111;-0.33000
913889;-0.31500
916666;-0.30000
919444;-0.29000
922222;-0.28500
925000;-0.29500
927778;-0.30000
930555;-0.28500
933333;-0.27000
936111;-0.26500
938889;-0.26000
941666;-0.25500
944444;-0.26500
947222;-0.26500
950000;-0.24500
952778;-0.23000
955555;-0.22000
958333;-0.22500
961111;-0.23000
963889;-0.22500
966666;-0.21500
969444;-0.21000
972222;-0.22000
975000;-0.23000
977778;-0.25000
980555;-0.26000
983333;-0.23500
986111;-0.21000
988889;-0.21000
991666;-0.22500
994444;-0.20500
997222;-0.18500
1000000;-0.16500
1002777;-0.19000
1005555;-0.23000
1008333;-0.27000
1011111;-0.28500
1013889;-0.28000
1016666;-0.30000
1019444;-0.30000
1022222;-0.33500
1025000;-0.35000
1027777;-0.36500
1030555;-0.36500
1033333;-0.34000
1036111;-0.33000
1038889;-0.32500
1041666;-0.34000
1044444;-0.34500
1047222;-0.35000
1050000;-0.34000
1052777;-0.34000
1055555;-0.34500
1058333;-0.35000
1061111;-0.36500
1063889;-0.37000
1066666;-0.36000
1069444;-0.34000
1072222;-0.34500
1075000;-0.35500
1077777;-0.35500
1080555;-0.36000
1083333;-0.35000
1086111;-0.34500
1088889;-0.34500
1091666;-0.37500
1094444;-0.40500
1097222;-0.44000
1100000;-0.45000
1102777;-0.46000
1105555;-0.50000
1108333;-0.54500
1111111;-0.54000
1113889;-0.44500
1116666;-0.31000
1119444;-0.15000
1122222;0.00000
1125000;0.23500
1127777;0.51000
1130555;0.73000
1133333;0.87000
1136111;0.94500
1138889;0.92000
1141666;0.78500
1144444;0.48500
1147222;0.08500
1150000;-0.25500
1152777;-0.47500
1155555;-0.57000
1158333;-0.60000
1161111;-0.57000
1163889;-0.52000
1166666;-0.46000
1169444;-0.41000
1172222;-0.39000
1175000;-0.41500
1177777;-0.41500
1180555;-0.43000
1183333;-0.41500
1186111;-0.40000
1188889;-0.41000
1191666;-0.41000
1194444;-0.43000
1197222;-0.43000
1200000;-0.41500
1202777;-0.42500
1205555;-0.42500
1208333;-0.43000
1211111;-0.43000
1213889;-0.43000
1216666;-0.40500
1219444;-0.41500
1222222;-0.41000
1225000;-0.42000
1227777;-0.42500
1230555;-0.42000
1233333;-0.41000
1236111;-0.39500
1238889;-0.40500
1241666;-0.41000
1244444;-0.44000
1247222;-0.43500
1250000;-0.43500
1252777;-0.42500
1255555;-0.43000
1258333;-0.43500
1261111;-0.44000
1263889;-0.44000
1266666;-0.43500
1269444;-0.41500
1272222;-0.44000
1275000;-0.44500
1277777;-0.45500
1280555;-0.45000
1283333;-0.44000
1286111;-0.42500
1288889;-0.44500
1291666;-0.43500
1294444;-0.45000
1297222;-0.44500
1300000;-0.43500
1302777;-0.42500
1305555;-0.43000
1308333;-0.44500
1311111;-0.45000
1313889;-0.45500
1316666;-0.43500
1319444;-0.43000
1322222;-0.43500
1325000;-0.45500
1327777;-0.45500
1330555;-0.44000
1333333;-0.43000
1336111;-0.41500
1338889;-0.42000
1341666;-0.41500
1344444;-0.42500
1347222;-0.43000
1350000;-0.43000
1352777;-0.42000
1355555;-0.42000
1358333;-0.43500
1361111;-0.45500
1363889;-0.46500
1366666;-0.45000
1369444;-0.43500
1372222;-0.44500
1375000;-0.44500
1377777;-0.44000
1380555;-0.43000
1383333;-0.41500
1386111;-0.42500
1388888;-0.42500
1391666;-0.45000
1394444;-0.46500
1397222;-0.47000
1400000;-0.46500
1402777;-0.44500
1405555;-0.44500
1408333;-0.45000
1411111;-0.45000
1413888;-0.44500
1416666;-0.43500
1419444;-0.41500
1422222;-0.41000
1425000;-0.41500
1427777;-0.40000
1430555;-0.40000
1433333;-0.38500
1436111;-0.36500
1438888;-0.36000
1441666;-0.35500
1444444;-0.34500
1447222;-0.35000
1450000;-0.32500
1452777;-0.31500
1455555;-0.31500
1458333;-0.33500
1461111;-0.34000
1463888;-0.33500
1466666;-0.33000
1469444;-0.31500
1472222;-0.33000
1475000;-0.34000
1477777;-0.34000
1480555;-0.35000
1483333;-0.34000
1486111;-0.32500
1488888;-0.31500
1491666;-0.32000
1494444;-0.33500
1497222;-0.33000
1500000;-0.34500
1502777;-0.33000
1505555;-0.33000
1508333;-0.33000
1511111;-0.35000
1513888;-0.34000
1516666;-0.34000
1519444;-0.34000
1522222;-0.34500
1525000;-0.36000
1527777;-0.36500
1530555;-0.37000
1533333;-0.37000
1536111;-0.36000
1538888;-0.36500
1541666;-0.35500
1544444;-0.37000
1547222;-0.37500
1550000;-0.36000
1552777;-0.34500
1555555;-0.34000
1558333;-0.35000
1561111;-0.36500
1563888;-0.38500
1566666;-0.37500
1569444;-0.37000
1572222;-0.38500
1575000;-0.39000
1577777;-0.39000
1580555;-0.39500
1583333;-0.38500
1586111;-0.37000
1588888;-0.37000
1591666;-0.38000
1594444;-0.39500
1597222;-0.41500
1600000;-0.40000
1602777;-0.39000
1605555;-0.38500
1608333;-0.38500
1611111;-0.40000
1613888;-0.41500
1616666;-0.40000
1619444;-0.37500
1622222;-0.37500
1625000;-0.37000
1627777;-0.37500
1630555;-0.36500
1633333;-0.35000
1636111;-0.32500
1638888;-0.31500
1641666;-0.32000
1644444;-0.32000
1647222;-0.32000
1650000;-0.29000
1652777;-0.28500
1655555;-0.29000
1658333;-0.30000
1661111;-0.29000
1663888;-0.29500
1666666;-0.29500
1669444;-0.31500
1672222;-0.31500
1675000;-0.31500
1677777;-0.30000
1680555;-0.30500
1683333;-0.31000
1686111;-0.28500
1688888;-0.27000
1691666;-0.26000
1694444;-0.25500
1697222;-0.29000
1700000;-0.32500
1702777;-0.33500
1705555;-0.36000
1708333;-0.37000
1711111;-0.38000
1713888;-0.38500
1716666;-0.38500
1719444;-0.39000
1722222;-0.41000
1725000;-0.43500
1727777;-0.44500
1730555;-0.44500
1733333;-0.43000
1736111;-0.41000
1738888;-0.43000
1741666;-0.44500
1744444;-0.44500
1747222;-0.44000
1750000;-0.43000
1752777;-0.41500
1755555;-0.42500
1758333;-0.43000
1761111;-0.42000
1763888;-0.42000
1766666;-0.41000
1769444;-0.40000
1772222;-0.39500
1775000;-0.40000
1777777;-0.41500
1780555;-0.43500
1783333;-0.45000
1786111;-0.47000
1788888;-0.50500
1791666;-0.53000
1794444;-0.55000
1797222;-0.55000
1799999;-0.55500
1802777;-0.59000
1805555;-0.62500
1808333;-0.59000
1811111;-0.47000
1813888;-0.32000
1816666;-0.14000
1819444;0.06000
1822222;0.31500
1824999;0.57000
1827777;0.74500
1830555;0.84500
1833333;0.80000
1836111;0.53500
1838888;0.06500
1841666;-0.38000
1844444;-0.60000
1847222;-0.64500
1849999;-0.59500
1852777;-0.53000
1855555;-0.48500
1858333;-0.48000
1861111;-0.48500
1863888;-0.50000
1866666;-0.49500
1869444;-0.49000
1872222;-0.49500
1874999;-0.50000
1877777;-0.50500
1880555;-0.50500
1883333;-0.49000
1886111;-0.49000
1888888;-0.48500
1891666;-0.50000
1894444;-0.50000
1897222;-0.50000
1899999;-0.49500
1902777;-0.48500
1905555;-0.48000
1908333;-0.48500
1911111;-0.50000
1913888;-0.50500
1916666;-0.50000
1919444;-0.48500
1922222;-0.49500
1924999;-0.51000
1927777;-0.52500
1930555;-0.53000
1933333;-0.53500
1936111;-0.51500
1938888;-0.52000
1941666;-0.53000
1944444;-0.53000
1947222;-0.53000
1949999;-0.51000
1952777;-0.49000
1955555;-0.50000
1958333;-0.51000
1961111;-0.51500
1963888;-0.53500
1966666;-0.52000
1969444;-0.51000
1972222;-0.50500
1974999;-0.50500
1977777;-0.50500
1980555;-0.51500
1983333;-0.51000
1986111;-0.50000
1988888;-0.50500
1991666;-0.50500
1994444;-0.51000
1997222;-0.54000
1999999;-0.51500
2002777;-0.49500
2005555;-0.50500
2008333;-0.51000
2011111;-0.52000
2013888;-0.52500
2016666;-0.53000
2019444;-0.52000
2022222;-0.50500
2024999;-0.52000
2027777;-0.52000
2030555;-0.52500
2033333;-0.52000
2036111;-0.51000
2038888;-0.53000
2041666;-0.53500
2044444;-0.53500
2047222;-0.54500
2049999;-0.53500
2052777;-0.53000
2055555;-0.54500
2058333;-0.55000
2061111;-0.56500
2063888;-0.57500
2066666;-0.57000
2069444;-0.55500
2072222;-0.55500
2074999;-0.57000
2077777;-0.57500
2080555;-0.57000
2083333;-0.57000
2086111;-0.56500
2088888;-0.55500
2091666;-0.56000
2094444;-0.55000
2097222;-0.54000
2099999;-0.52000
2102777;-0.50000
2105555;-0.48500
2108333;-0.48000
2111111;-0.47000
2113888;-0.44000
2116666;-0.42000
2119444;-0.39500
2122222;-0.38500
2124999;-0.38000
2127777;-0.38500
2130555;-0.37500
2133333;-0.36000
2136111;-0.33500
2138888;-0.33000
2141666;-0.33500
2144444;-0.32500
2147222;-0.34000
2149999;-0.34000
2152777;-0.31500
2155555;-0.33500
2158333;-0.33000
2161111;-0.33000
2163888;-0.34000
2166666;-0.34000
2169444;-0.31500
2172222;-0.31000
2174999;-0.31000
2177777;-0.31500
2180555;-0.32000
2183333;-0.31500
2186110;-0.30000
2188888;-0.30000
2191666;-0.31500
2194444;-0.32000
2197222;-0.32000
2199999;-0.32000
2202777;-0.31000
2205555;-0.30500
2208333;-0.32500
2211110;-0.33000
2213888;-0.33500
2216666;-0.32000
2219444;-0.32500
2222222;-0.32000
2224999;-0.33500
2227777;-0.34000
2230555;-0.33500
2233333;-0.32500
2236110;-0.31000
2238888;-0.31500
2241666;-0.32500
2244444;-0.32500
2247222;-0.33500
2249999;-0.33500
2252777;-0.33000
2255555;-0.33000
2258333;-0.33500
2261110;-0.34000
2263888;-0.35500
2266666;-0.33000
2269444;-0.33500
2272222;-0.33500
2274999;-0.34500
2277777;-0.35000
2280555;-0.35000
2283333;-0.34000
2286110;-0.34500
2288888;-0.34500
2291666;-0.36000
2294444;-0.35000
2297222;-0.35000
2299999;-0.35000
2302777;-0.33000
2305555;-0.31500
2308333;-0.32000
2311110;-0.31500
2313888;-0.32000
2316666;-0.31000
2319444;-0.29000
2322222;-0.28500
2324999;-0.28500
2327777;-0.28000
2330555;-0.28000
2333333;-0.27000
2336110;-0.25000
2338888;-0.24000
2341666;-0.23500
2344444;-0.24000
2347222;-0.23000
2349999;-0.22000
2352777;-0.20000
2355555;-0.20000
2358333;-0.22000
2361110;-0.23000
2363888;-0.23000
2366666;-0.23500
2369444;-0.23000
2372222;-0.21000
2374999;-0.21000
2377777;-0.22500
2380555;-0.22000
2383333;-0.21000
2386110;-0.17000
2388888;-0.16500
2391666;-0.20500
2394444;-0.26000
2397222;-0.28500
2399999;-0.27500
2402777;-0.27500
2405555;-0.28500
2408333;-0.30500
2411110;-0.34500
2413888;-0.35000
2416666;-0.34000
2419444;-0.34000
2422222;-0.32000
2424999;-0.34500
2427777;-0.36500
2430555;-0.36500
2433333;-0.35500
2436110;-0.35000
2438888;-0.35500
2441666;-0.36500
2444444;-0.36500
2447222;-0.37000
2449999;-0.36000
2452777;-0.34500
2455555;-0.35500
2458333;-0.36000
2461110;-0.36500
2463888;-0.36500
2466666;-0.37000
2469444;-0.36500
2472222;-0.38000
2474999;-0.42500
2477777;-0.47000
2480555;-0.48500
2483333;-0.49000
2486110;-0.50000
2488888;-0.55500
2491666;-0.59000
2494444;-0.60000
2497222;-0.58000
2499999;-0.49500
2502777;-0.38500
2505555;-0.24500
2508333;-0.10500
2511110;0.04000
2513888;0.27500
2516666;0.57500
2519444;0.84000
2522222;0.99500
2524999;1.00000
2527777;0.78000
2530555;0.31000
2533333;-0.17500
2536110;-0.48000
2538888;-0.55500
2541666;-0.49500
2544444;-0.43500
2547222;-0.39500
2549999;-0.40500
2552777;-0.39500
2555555;-0.40000
2558333;-0.40000
2561110;-0.40000
2563888;-0.41500
2566666;-0.42000
2569444;-0.41500
2572222;-0.40000
2574999;-0.41000
2577777;-0.42000
2580555;-0.43500
2583333;-0.42000
2586110;-0.42500
2588888;-0.41500
2591666;-0.41000
2594444;-0.42000
2597221;-0.42500
2599999;-0.42000
2602777;-0.41000
2605555;-0.41000
2608333;-0.42500
2611110;-0.41500
2613888;-0.42000
2616666;-0.42000
2619444;-0.40000
2622221;-0.40500
2624999;-0.40500
2627777;-0.41000
2630555;-0.41000
2633333;-0.40500
2636110;-0.41500
2638888;-0.40500
2641666;-0.41500
2644444;-0.42000
2647221;-0.42000
2649999;-0.40500
2652777;-0.41000
2655555;-0.41500
2658333;-0.42000
2661110;-0.42000
2663888;-0.43500
2666666;-0.41500
2669444;-0.40000
2672221;-0.41500
2674999;-0.43000
2677777;-0.42000
2680555;-0.41500
2683333;-0.41500
2686110;-0.40500
2688888;-0.40000
2691666;-0.41000
2694444;-0.41500
2697221;-0.41500
2699999;-0.41000
2702777;-0.39500
2705555;-0.39500
2708333;-0.40500
2711110;-0.42000
2713888;-0.42000
2716666;-0.41000
2719444;-0.41000
2722221;-0.40000
2724999;-0.42000
2727777;-0.42500
2730555;-0.43500
2733333;-0.42000
2736110;-0.41000
2738888;-0.42500
2741666;-0.42500
2744444;-0.43500
2747221;-0.43000
2749999;-0.41500
2752777;-0.41500
2755555;-0.42500
2758333;-0.43000
2761110;-0.41500
2763888;-0.42500
2766666;-0.41000
2769444;-0.39000
2772221;-0.39500
2774999;-0.38500
2777777;-0.40000
2780555;-0.37500
2783333;-0.35500
2786110;-0.35000
2788888;-0.32500
2791666;-0.33000
2794444;-0.31500
2797221;-0.31000
2799999;-0.29000
2802777;-0.28500
2805555;-0.28500
2808333;-0.26500
2811110;-0.27500
2813888;-0.27500
2816666;-0.25500
2819444;-0.24000
2822221;-0.24000
2824999;-0.26500
2827777;-0.27000
2830555;-0.26000
2833333;-0.25000
2836110;-0.24500
2838888;-0.25500
2841666;-0.27000
2844444;-0.26500
2847221;-0.26000
2849999;-0.25000
2852777;-0.24500
2855555;-0.24500
2858333;-0.24500
2861110;-0.25500
2863888;-0.26000
2866666;-0.25000
2869444;-0.24500
2872221;-0.24500
2874999;-0.24000
2877777;-0.25500
2880555;-0.26000
2883333;-0.24500
2886110;-0.24500
2888888;-0.26000
2891666;-0.26000
2894444;-0.26500
2897221;-0.26500
2899999;-0.26000
2902777;-0.25000
2905555;-0.25500
2908333;-0.27000
2911110;-0.28000
2913888;-0.28500
2916666;-0.27500
2919444;-0.27500
2922221;-0.27000
2924999;-0.26500
2927777;-0.28500
2930555;-0.28500
2933333;-0.28000
2936110;-0.27500
2938888;-0.28000
2941666;-0.28000
2944444;-0.29500
2947221;-0.30500
2949999;-0.29000
2952777;-0.28500
2955555;-0.29500
2958333;-0.29500
2961110;-0.29500
2963888;-0.29000
2966666;-0.28500
2969444;-0.28500
2972221;-0.29000
2974999;-0.28500
2977777;-0.29000
2980555;-0.29500
2983332;-0.28500
2986110;-0.26500
2988888;-0.26500
2991666;-0.27500
2994444;-0.27000
2997221;-0.26000
2999999;-0.24500
3002777;-0.23000
3005555;-0.22500
3008332;-0.22500
3011110;-0.22000
3013888;-0.21500
3016666;-0.19500
3019444;-0.19500
3022221;-0.19500
3024999;-0.18500
3027777;-0.18000
3030555;-0.19000
3033332;-0.18500
3036110;-0.18000
3038888;-0.18500
3041666;-0.19500
3044444;-0.21000
3047221;-0.21000
3049999;-0.19000
3052777;-0.18000
3055555;-0.18500
3058332;-0.18500
3061110;-0.18500
3063888;-0.17000
3066666;-0.15000
3069444;-0.16500
3072221;-0.21000
3074999;-0.24500
3077777;-0.26500
3080555;-0.26000
3083332;-0.27000
3086110;-0.28000
3088888;-0.29000
3091666;-0.31000
3094444;-0.32500
3097221;-0.32000
3099999;-0.31000
3102777;-0.31000
3105555;-0.29500
3108332;-0.31500
3111110;-0.32000
3113888;-0.32500
3116666;-0.33500
3119444;-0.31500
3122221;-0.33500
3124999;-0.33000
3127777;-0.33500
3130555;-0.34000
3133332;-0.33000
3136110;-0.32000
3138888;-0.32000
3141666;-0.33500
3144444;-0.34000
3147221;-0.34500
3149999;-0.33000
3152777;-0.33500
3155555;-0.36000
3158332;-0.40500
3161110;-0.44000
3163888;-0.46000
3166666;-0.50500
3169444;-0.53000
3172221;-0.52500
3174999;-0.45500
3177777;-0.34500
3180555;-0.25000
3183332;-0.17000
3186110;-0.10000
3188888;-0.02500
3191666;0.07000
3194444;0.21500
3197221;0.44500
3199999;0.68000
3202777;0.87000
3205555;0.97500
3208332;1.00000
3211110;0.88000
3213888;0.56000
3216666;0.08000
3219444;-0.32000
3222221;-0.51000
3224999;-0.51000
3227777;-0.47000
3230555;-0.39500
3233332;-0.36000
3236110;-0.35500
3238888;-0.37000
3241666;-0.38000
3244444;-0.39000
3247221;-0.38000
3249999;-0.37000
3252777;-0.36500
3255555;-0.37500
3258332;-0.37500
3261110;-0.39000
3263888;-0.39000
3266666;-0.37500
3269444;-0.36000
3272221;-0.36000
3274999;-0.36500
3277777;-0.37500
3280555;-0.37500
3283332;-0.38500
3286110;-0.36000
3288888;-0.36500
3291666;-0.37000
3294444;-0.38500
3297221;-0.40000
3299999;-0.38000
3302777;-0.37000
3305555;-0.38000
3308332;-0.38000
3311110;-0.38000
3313888;-0.39500
3316666;-0.38500
3319444;-0.36500
3322221;-0.38000
3324999;-0.37500
3327777;-0.37500
3330555;-0.37500
3333332;-0.38000
3336110;-0.35500
3338888;-0.35500
3341666;-0.36500
3344444;-0.37500
3347221;-0.38000
3349999;-0.37000
3352777;-0.36500
3355555;-0.36500
3358332;-0.38000
3361110;-0.39000
3363888;-0.40000
3366666;-0.39000
3369444;-0.38000
3372221;-0.38500
3374999;-0.39500
3377777;-0.40000
3380555;-0.40000
3383332;-0.39000
3386110;-0.38000
3388888;-0.38000
3391666;-0.37500
3394443;-0.38500
3397221;-0.38500
3399999;-0.37500
3402777;-0.37000
3405555;-0.37500
3408332;-0.37000
3411110;-0.37000
3413888;-0.38500
3416666;-0.37000
3419443;-0.36000
3422221;-0.36000
3424999;-0.37500
3427777;-0.39500
3430555;-0.38500
3433332;-0.38000
3436110;-0.38000
3438888;-0.37000
3441666;-0.38500
3444443;-0.39000
3447221;-0.39000
3449999;-0.38000
3452777;-0.37000
3455555;-0.36500
3458332;-0.37000
3461110;-0.37500
3463888;-0.36500
3466666;-0.35500
3469443;-0.34000
3472221;-0.33500
3474999;-0.32500
3477777;-0.33000
3480555;-0.32500
3483332;-0.31500
3486110;-0.29000
3488888;-0.27500
3491666;-0.27500
3494443;-0.28500
3497221;-0.28000
3499999;-0.27000
3502777;-0.26000
3505555;-0.24000
3508332;-0.24500
3511110;-0.25500
3513888;-0.26500
3516666;-0.25000
3519443;-0.24000
3522221;-0.25000
3524999;-0.23500
3527777;-0.24500
3530555;-0.24500
3533332;-0.23000
3536110;-0.22000
3538888;-0.23000
3541666;-0.23500
3544443;-0.23000
3547221;-0.25000
3549999;-0.23500
3552777;-0.22000
3555555;-0.21000
3558332;-0.22500
3561110;-0.22500
3563888;-0.24000
3566666;-0.22000
3569443;-0.22000
3572221;-0.22000
3574999;-0.23000
3577777;-0.24000
3580555;-0.25500
3583332;-0.22500
3586110;-0.22500
3588888;-0.24000
3591666;-0.24500
3594443;-0.25500
3597221;-0.26000
3599999;-0.24500
3602777;-0.24500
3605555;-0.25500
3608332;-0.25500
3611110;-0.26500
3613888;-0.26500
3616666;-0.26000
3619443;-0.26000
3622221;-0.26000
3624999;-0.26000
3627777;-0.27500
3630555;-0.27000
3633332;-0.27500
3636110;-0.27000
3638888;-0.27500
3641666;-0.28500
3644443;-0.28500
3647221;-0.29500
3649999;-0.28500
3652777;-0.27500
3655555;-0.30000
3658332;-0.30000
3661110;-0.30500
3663888;-0.30500
3666666;-0.30000
3669443;-0.29500
3672221;-0.29000
3674999;-0.30500
3677777;-0.31500
3680555;-0.32000
3683332;-0.30500
3686110;-0.29500
3688888;-0.29500
3691666;-0.29500
3694443;-0.30000
3697221;-0.30000
3699999;-0.30000
3702777;-0.28000
3705555;-0.27500
3708332;-0.27000
3711110;-0.27000
3713888;-0.26500
3716666;-0.26500
3719443;-0.24500
3722221;-0.23500
3724999;-0.23000
3727777;-0.24000
3730555;-0.24000
3733332;-0.22000
3736110;-0.20500
3738888;-0.21000
3741666;-0.21000
3744443;-0.20000
3747221;-0.19500
3749999;-0.18500
3752777;-0.17500
3755555;-0.17000
3758332;-0.18000
3761110;-0.19000
3763888;-0.19500
3766666;-0.20000
3769443;-0.19000
3772221;-0.18000
3774999;-0.18000
3777777;-0.19500
3780554;-0.18500
3783332;-0.16500
3786110;-0.13500
3788888;-0.13500
3791666;-0.16000
3794443;-0.20500
3797221;-0.22500
3799999;-0.23000
3802777;-0.24500
3805554;-0.26500
3808332;-0.28000
3811110;-0.29500
3813888;-0.31000
3816666;-0.30500
3819443;-0.31500
3822221;-0.30000
3824999;-0.31000
3827777;-0.31500
3830554;-0.32000
3833332;-0.31500
3836110;-0.31000
3838888;-0.31000
3841666;-0.31500
3844443;-0.33500
3847221;-0.34000
3849999;-0.32500
3852777;-0.31500
3855554;-0.32000
3858332;-0.32500
3861110;-0.33000
3863888;-0.33000
3866666;-0.32500
3869443;-0.31500
3872221;-0.32500
3874999;-0.32500
3877777;-0.33500
3880554;-0.33000
3883332;-0.32000
3886110;-0.31500
3888888;-0.33000
3891666;-0.32500
3894443;-0.34500
3897221;-0.36500
3899999;-0.39500
3902777;-0.42000
3905554;-0.43000
3908332;-0.45500
3911110;-0.49000
3913888;-0.54500
3916666;-0.53000
3919443;-0.44000
3922221;-0.31500
3924999;-0.20500
3927777;-0.06500
3930554;0.13000
3933332;0.41500
3936110;0.67000
3938888;0.82500
3941666;0.88500
3944443;0.80000
3947221;0.52500
3949999;0.12000
3952777;-0.26000
3955554;-0.48000
3958332;-0.54500
3961110;-0.50000
3963888;-0.44000
3966666;-0.40500
3969443;-0.36500
3972221;-0.37500
3974999;-0.38000
3977777;-0.39500
3980554;-0.39000
3983332;-0.38500
3986110;-0.37000
3988888;-0.38500
3991666;-0.39000
3994443;-0.40000
3997221;-0.40000
3999999;-0.40500
4002777;-0.39000
4005554;-0.39000
4008332;-0.39000
4011110;-0.40000
4013888;-0.40000
4016666;-0.39000
4019443;-0.38000
4022221;-0.38500
4024999;-0.39000
4027777;-0.39500
4030554;-0.39000
4033332;-0.39000
4036110;-0.38500
4038888;-0.40000
4041666;-0.40000
4044443;-0.41500
4047221;-0.42000
4049999;-0.41000
4052777;-0.39500
4055554;-0.39500
4058332;-0.38500
4061110;-0.40000
4063888;-0.40000
4066666;-0.40000
4069443;-0.38500
4072221;-0.39000
4074999;-0.39000
4077777;-0.39500
4080554;-0.40000
4083332;-0.40500
4086110;-0.38500
4088888;-0.40000
4091666;-0.40000
4094443;-0.39500
4097221;-0.40500
4099999;-0.40500
4102777;-0.40000
4105554;-0.39500
4108332;-0.39500
4111110;-0.39000
4113888;-0.40000
4116666;-0.39000
4119443;-0.38500
4122221;-0.38500
4124999;-0.39000
4127777;-0.40000
4130554;-0.40000
4133332;-0.39500
4136110;-0.39000
4138888;-0.39500
4141666;-0.39000
4144443;-0.41000
4147221;-0.42500
4149999;-0.40000
4152777;-0.40000
4155554;-0.38000
4158332;-0.39500
4161110;-0.41500
4163888;-0.41000
4166666;-0.41000
4169443;-0.40000
4172221;-0.40500
4174999;-0.40000
4177777;-0.41000
4180554;-0.42500
4183332;-0.40500
4186110;-0.40000
4188888;-0.40000
4191665;-0.41500
4194443;-0.42500
4197221;-0.42500
4199999;-0.41000
4202777;-0.40500
4205554;-0.40000
4208332;-0.41500
4211110;-0.41500
4213888;-0.41000
4216665;-0.41000
4219443;-0.39500
4222221;-0.39000
4224999;-0.36000
4227777;-0.36500
4230554;-0.35500
4233332;-0.34000
4236110;-0.31500
4238888;-0.30500
4241665;-0.31000
4244443;-0.31000
4247221;-0.31000
4249999;-0.30500
4252777;-0.30000
4255554;-0.29500
4258332;-0.31000
4261110;-0.32000
4263888;-0.30500
4266665;-0.29500
4269443;-0.28000
4272221;-0.28000
4274999;-0.28500
4277777;-0.30000
4280554;-0.29000
4283332;-0.29500
4286110;-0.27500
4288888;-0.28000
4291665;-0.29500
4294443;-0.30000
4297221;-0.29500
4299999;-0.29500
4302777;-0.28500
4305554;-0.28500
4308332;-0.29000
4311110;-0.30000
4313888;-0.30000
4316665;-0.29500
4319443;-0.30000
4322221;-0.29000
4324999;-0.30500
4327777;-0.30500
4330554;-0.30500
4333332;-0.29500
4336110;-0.30000
4338888;-0.30500
4341665;-0.32000
4344443;-0.33500
4347221;-0.33500
4349999;-0.32000
4352777;-0.32000
4355554;-0.32500
4358332;-0.32000
4361110;-0.33000
4363888;-0.32500
4366665;-0.32000
4369443;-0.31000
4372221;-0.31000
4374999;-0.33000
4377777;-0.33000
4380554;-0.33000
4383332;-0.34000
4386110;-0.32500
4388888;-0.32500
4391665;-0.33000
4394443;-0.35500
4397221;-0.36000
4399999;-0.35000
4402777;-0.34000
4405554;-0.34500
4408332;-0.36000
4411110;-0.36500
4413888;-0.37000
4416665;-0.37500
4419443;-0.36500
4422221;-0.35000
4424999;-0.36000
4427777;-0.37000
4430554;-0.37500
4433332;-0.37500
4436110;-0.36000
4438888;-0.36500
4441665;-0.37000
4444443;-0.38500
4447221;-0.39000
4449999;-0.37000
4452777;-0.35000
4455554;-0.35500
4458332;-0.34000
4461110;-0.32500
4463888;-0.32500
4466665;-0.31500
4469443;-0.30000
4472221;-0.29500
4474999;-0.29500
4477777;-0.30500
4480554;-0.30000
4483332;-0.29500
4486110;-0.29000
4488888;-0.27000
4491665;-0.28000
4494443;-0.26000
4497221;-0.25500
4499999;-0.24000
4502777;-0.23500
4505554;-0.24000
4508332;-0.24500
4511110;-0.27000
4513888;-0.29000
4516665;-0.27500
4519443;-0.24500
4522221;-0.24000
4524999;-0.23000
4527777;-0.24500
4530554;-0.25500
4533332;-0.23500
4536110;-0.21000
4538888;-0.21000
4541665;-0.25000
4544443;-0.29000
4547221;-0.32000
4549999;-0.31500
4552777;-0.32000
4555554;-0.31500
4558332;-0.34000
4561110;-0.37000
4563888;-0.37500
4566665;-0.38000
4569443;-0.38000
4572221;-0.37000
4574999;-0.36500
4577776;-0.37500
4580554;-0.39000
4583332;-0.38500
4586110;-0.38500
4588888;-0.37500
4591665;-0.37500
4594443;-0.38500
4597221;-0.38500
4599999;-0.39000
4602776;-0.39000
4605554;-0.38500
4608332;-0.39000
4611110;-0.39000
4613888;-0.40000
4616665;-0.40500
4619443;-0.40500
4622221;-0.41000
4624999;-0.42500
4627776;-0.41000
4630554;-0.40500
4633332;-0.38000
4636110;-0.38000
4638888;-0.37000
4641665;-0.39000
4644443;-0.39500
4647221;-0.41500
4649999;-0.44500
4652776;-0.47500
4655554;-0.48000
4658332;-0.51000
4661110;-0.54000
4663888;-0.58000
4666665;-0.58500
4669443;-0.53000
4672221;-0.41500
4674999;-0.28500
4677776;-0.15000
4680554;0.03500
4683332;0.28000
4686110;0.54000
4688888;0.73000
4691665;0.82500
4694443;0.83500
4697221;0.68500
4699999;0.34500
4702776;-0.06000
4705554;-0.37000
4708332;-0.52000
4711110;-0.56000
4713888;-0.54500
4716665;-0.50000
4719443;-0.46000
4722221;-0.44000
4724999;-0.46000
4727776;-0.46500
4730554;-0.47000
4733332;-0.45000
4736110;-0.44500
4738888;-0.44500
4741665;-0.46500
4744443;-0.47000
4747221;-0.46500
4749999;-0.47000
4752776;-0.46000
4755554;-0.45000
4758332;-0.45000
4761110;-0.46000
4763888;-0.46000
4766665;-0.47000
4769443;-0.46000
4772221;-0.46000
4774999;-0.47000
4777776;-0.46000
4780554;-0.46000
4783332;-0.46000
4786110;-0.47500
4788888;-0.48000
4791665;-0.47000
4794443;-0.47500
4797221;-0.48000
4799999;-0.47000
4802776;-0.45500
4805554;-0.45500
4808332;-0.47000
4811110;-0.47500
4813888;-0.48000
4816665;-0.47000
4819443;-0.47500
4822221;-0.48000
4824999;-0.50500
4827776;-0.51500
4830554;-0.51000
4833332;-0.50000
4836110;-0.48500
4838888;-0.47000
4841665;-0.47000
4844443;-0.49500
4847221;-0.48500
4849999;-0.48000
4852776;-0.47000
4855554;-0.47500
4858332;-0.47000
4861110;-0.47500
4863888;-0.49000
4866665;-0.50000
4869443;-0.47000
4872221;-0.47500
4874999;-0.47500
4877776;-0.48000
4880554;-0.49500
4883332;-0.47500
4886110;-0.48500
4888888;-0.48500
4891665;-0.49000
4894443;-0.49500
4897221;-0.50000
4899999;-0.49000
4902776;-0.47500
4905554;-0.48500
4908332;-0.48500
4911110;-0.49000
4913888;-0.48500
4916665;-0.47000
4919443;-0.46500
4922221;-0.45500
4924999;-0.49000
4927776;-0.49500
4930554;-0.51500
4933332;-0.51000
4936110;-0.50500
4938888;-0.50500
4941665;-0.51500
4944443;-0.52500
4947221;-0.52500
4949999;-0.52000
4952776;-0.52000
4955554;-0.51500
4958332;-0.53000
4961110;-0.53000
4963887;-0.54000
4966665;-0.52500
4969443;-0.51000
4972221;-0.52000
4974999;-0.51500
4977776;-0.50500
4980554;-0.49000
4983332;-0.47500
4986110;-0.46500
4988887;-0.44500
4991665;-0.45000
4994443;-0.42500
4997221;-0.43000
4999999;-0.39000
5002776;-0.37500
5005554;-0.34000
5008332;-0.35000
5011110;-0.33500
5013887;-0.34000
5016665;-0.32000
5019443;-0.31000
5022221;-0.30500
5024999;-0.32500
5027776;-0.31500
5030554;-0.31000
5033332;-0.30500
5036110;-0.29000
5038887;-0.28500
5041665;-0.29000
5044443;-0.30500
5047221;-0.29500
5049999;-0.29000
5052776;-0.29000
5055554;-0.29000
5058332;-0.29500
5061110;-0.31500
5063887;-0.31500
5066665;-0.30000
5069443;-0.30500
5072221;-0.30000
5074999;-0.30000
5077776;-0.31000
5080554;-0.31000
5083332;-0.29500
5086110;-0.30000
5088887;-0.30000
5091665;-0.31000
5094443;-0.31500
5097221;-0.32000
5099999;-0.31500
5102776;-0.29500
5105554;-0.30500
5108332;-0.31000
5111110;-0.32000
5113887;-0.33000
5116665;-0.31500
5119443;-0.30000
5122221;-0.31500
5124999;-0.31500
5127776;-0.33500
5130554;-0.33000
5133332;-0.32500
5136110;-0.32000
5138887;-0.32000
5141665;-0.33000
5144443;-0.34500
5147221;-0.34500
5149999;-0.33500
5152776;-0.33000
5155554;-0.33000
5158332;-0.34000
5161110;-0.35000
5163887;-0.35500
5166665;-0.35500
5169443;-0.34000
5172221;-0.34000
5174999;-0.34500
5177776;-0.34000
5180554;-0.34500
5183332;-0.33000
5186110;-0.32500
5188887;-0.33500
5191665;-0.32500
5194443;-0.33000
5197221;-0.34500
5199999;-0.34000
5202776;-0.33500
5205554;-0.34000
5208332;-0.34500
5211110;-0.34500
5213887;-0.35500
5216665;-0.33500
5219443;-0.34000
5222221;-0.33500
5224999;-0.33000
5227776;-0.32500
5230554;-0.32000
5233332;-0.31000
5236110;-0.29000
5238887;-0.27500
5241665;-0.27000
5244443;-0.28500
5247221;-0.27000
5249999;-0.26000
5252776;-0.25500
5255554;-0.24000
5258332;-0.23500
5261110;-0.23000
5263887;-0.23000
5266665;-0.22500
5269443;-0.21500
5272221;-0.20000
5274999;-0.20500
5277776;-0.21500
5280554;-0.22000
5283332;-0.21500
5286110;-0.21000
5288887;-0.22500
5291665;-0.22000
5294443;-0.22500
5297221;-0.23000
5299999;-0.21000
5302776;-0.19500
5305554;-0.17500
5308332;-0.15500
5311110;-0.19500
5313887;-0.24000
5316665;-0.26000
5319443;-0.25500
5322221;-0.26500
5324999;-0.28500
5327776;-0.30000
5330554;-0.32500
5333332;-0.32000
5336110;-0.33500
5338887;-0.34500
5341665;-0.34500
5344443;-0.34500
5347221;-0.35500
5349999;-0.35000
5352776;-0.33500
5355554;-0.33500
5358332;-0.34500
5361110;-0.35000
5363887;-0.35000
5366665;-0.33500
5369443;-0.33500
5372221;-0.34500
5374998;-0.34500
5377776;-0.36500
5380554;-0.36000
5383332;-0.35000
5386110;-0.36000
5388887;-0.35500
5391665;-0.34500
5394443;-0.36000
5397221;-0.37500
5399998;-0.36500
5402776;-0.35500
5405554;-0.37000
5408332;-0.38000
5411110;-0.41500
5413887;-0.45000
5416665;-0.46500
5419443;-0.48000
5422221;-0.51500
5424998;-0.54500
5427776;-0.54000
5430554;-0.45500
5433332;-0.30500
5436110;-0.13500
5438887;0.03000
5441665;0.24500
5444443;0.51000
5447221;0.75500
5449998;0.94000
5452776;1.01000
5455554;0.95500
5458332;0.69500
5461110;0.28000
5463887;-0.15000
5466665;-0.44000
5469443;-0.55000
5472221;-0.55000
5474998;-0.51500
5477776;-0.47000
5480554;-0.43000
5483332;-0.41000
5486110;-0.39500
5488887;-0.41000
5491665;-0.42000
5494443;-0.41500
5497221;-0.42500
5499998;-0.41000
5502776;-0.41500
5505554;-0.41000
5508332;-0.42000
5511110;-0.43500
5513887;-0.44500
5516665;-0.43000
5519443;-0.43500
5522221;-0.43000
5524998;-0.43000
5527776;-0.43500
5530554;-0.44500
5533332;-0.43000
5536110;-0.42000
5538887;-0.41500
5541665;-0.43000
5544443;-0.44000
5547221;-0.44000
5549998;-0.43500
5552776;-0.43000
5555554;-0.42500
5558332;-0.43500
5561110;-0.44000
5563887;-0.45000
5566665;-0.44500
5569443;-0.44500
5572221;-0.44000
5574998;-0.43500
5577776;-0.43500
5580554;-0.44500
5583332;-0.43500
5586110;-0.43000
5588887;-0.42500
5591665;-0.43000
5594443;-0.44000
5597221;-0.44500
5599998;-0.44000
5602776;-0.43000
5605554;-0.43000
5608332;-0.42000
5611110;-0.44000
5613887;-0.44000
5616665;-0.43000
5619443;-0.42000
5622221;-0.42000
5624998;-0.43500
5627776;-0.44000
5630554;-0.44500
5633332;-0.44000
5636110;-0.43000
5638887;-0.42500
5641665;-0.43500
5644443;-0.44000
5647221;-0.44000
5649998;-0.43000
5652776;-0.42000
5655554;-0.42500
5658332;-0.42500
5661110;-0.43000
5663887;-0.43500
5666665;-0.43000
5669443;-0.41500
5672221;-0.42000
5674998;-0.42500
5677776;-0.44000
5680554;-0.44000
5683332;-0.43000
5686110;-0.41500
5688887;-0.43000
5691665;-0.41500
5694443;-0.42500
5697221;-0.44000
5699998;-0.42500
5702776;-0.43000
5705554;-0.41500
5708332;-0.44500
5711110;-0.44500
5713887;-0.45500
5716665;-0.44000
5719443;-0.43500
5722221;-0.42000
5724998;-0.44000
5727776;-0.43500
5730554;-0.43500
5733332;-0.43000
5736110;-0.42000
5738887;-0.41500
5741665;-0.41000
5744443;-0.42500
5747221;-0.40000
5749998;-0.39000
5752776;-0.36500
5755554;-0.34500
5758332;-0.35000
5761109;-0.34500
5763887;-0.33500
5766665;-0.32500
5769443;-0.30500
5772221;-0.29500
5774998;-0.29000
5777776;-0.29500
5780554;-0.29500
5783332;-0.27500
5786109;-0.27500
5788887;-0.25500
5791665;-0.26000
5794443;-0.26500
5797221;-0.26000
5799998;-0.27000
5802776;-0.24000
5805554;-0.24000
5808332;-0.23500
5811109;-0.24500
5813887;-0.25500
5816665;-0.24500
5819443;-0.24000
5822221;-0.24000
5824998;-0.23500
5827776;-0.24500
5830554;-0.24000
5833332;-0.25000
5836109;-0.24000
5838887;-0.23500
5841665;-0.24500
5844443;-0.24500
5847221;-0.25500
5849998;-0.25000
5852776;-0.23500
5855554;-0.24500
5858332;-0.25500
5861109;-0.25500
5863887;-0.26000
5866665;-0.26000
5869443;-0.25500
5872221;-0.26000
5874998;-0.25500
5877776;-0.27000
5880554;-0.27000
5883332;-0.26000
5886109;-0.25500
5888887;-0.26000
5891665;-0.25500
5894443;-0.26500
5897221;-0.28500
5899998;-0.28000
5902776;-0.28000
5905554;-0.27500
5908332;-0.26500
5911109;-0.28000
5913887;-0.29500
5916665;-0.27500
5919443;-0.27500
5922221;-0.28000
5924998;-0.29500
5927776;-0.31000
5930554;-0.31500
5933332;-0.30500
5936109;-0.29000
5938887;-0.29500
5941665;-0.30500
5944443;-0.31000
5947221;-0.32000
5949998;-0.31500
5952776;-0.30000
5955554;-0.31500
5958332;-0.30500
5961109;-0.31500
5963887;-0.31500
5966665;-0.29000
5969443;-0.27500
5972221;-0.25000
5974998;-0.25500
5977776;-0.25500
5980554;-0.24000
5983332;-0.23500
5986109;-0.22000
5988887;-0.20500
5991665;-0.21000
5994443;-0.21500
5997221;-0.21000
5999998;-0.20500
6002776;-0.19000
6005554;-0.17500
6008332;-0.17500
6011109;-0.18500
6013887;-0.19500
6016665;-0.20000
6019443;-0.19000
6022221;-0.20000
6024998;-0.20500
6027776;-0.20000
6030554;-0.20500
6033332;-0.19000
6036109;-0.18500
6038887;-0.18000
6041665;-0.16000
6044443;-0.15000
6047221;-0.15000
6049998;-0.17000
6052776;-0.20000
6055554;-0.23000
6058332;-0.23500
6061109;-0.25500
6063887;-0.28500
6066665;-0.30000
6069443;-0.29500
6072221;-0.31000
6074998;-0.31500
6077776;-0.33000
6080554;-0.34500
6083332;-0.32500
6086109;-0.33000
6088887;-0.31500
6091665;-0.32500
6094443;-0.33000
6097221;-0.34000
6099998;-0.33000
6102776;-0.32500
6105554;-0.32000
6108332;-0.32000
6111109;-0.33500
6113887;-0.33500
6116665;-0.33000
6119443;-0.33000
6122221;-0.33000
6124998;-0.33000
6127776;-0.35000
6130554;-0.35000
6133332;-0.34000
6136109;-0.33000
6138887;-0.34000
6141665;-0.34000
6144443;-0.39500
6147221;-0.42500
6149998;-0.44500
6152776;-0.44000
6155554;-0.46000
6158332;-0.51500
6161109;-0.54000
6163887;-0.54500
6166665;-0.45500
6169443;-0.33500
6172220;-0.18000
6174998;-0.01500
6177776;0.19500
6180554;0.47000
6183332;0.75000
6186109;0.91500
6188887;0.95000
6191665;0.78000
6194443;0.39500
6197220;-0.08000
6199998;-0.42000
6202776;-0.54000
6205554;-0.51000
6208332;-0.44000
6211109;-0.41000
6213887;-0.40000
6216665;-0.39000
6219443;-0.39000
6222220;-0.38000
6224998;-0.39000
6227776;-0.38000
6230554;-0.40000
6233332;-0.40000
6236109;-0.39000
6238887;-0.38000
6241665;-0.38500
6244443;-0.39000
6247220;-0.39000
6249998;-0.39000
6252776;-0.38000
6255554;-0.38000
6258332;-0.36500
6261109;-0.39500
6263887;-0.39500
6266665;-0.39000
6269443;-0.38500
6272220;-0.39000
6274998;-0.40000
6277776;-0.40000
6280554;-0.41500
6283332;-0.41000
6286109;-0.39000
6288887;-0.38500
6291665;-0.39000
6294443;-0.40000
6297220;-0.40500
6299998;-0.40500
6302776;-0.39000
6305554;-0.38500
6308332;-0.39000
6311109;-0.39500
6313887;-0.40000
6316665;-0.39000
6319443;-0.38500
6322220;-0.38000
6324998;-0.39000
6327776;-0.39000
6330554;-0.39500
6333332;-0.38500
6336109;-0.38500
6338887;-0.38000
6341665;-0.39000
6344443;-0.39000
6347220;-0.39500
6349998;-0.39000
6352776;-0.39000
6355554;-0.39000
6358332;-0.39500
6361109;-0.38500
6363887;-0.40000
6366665;-0.39500
6369443;-0.39000
6372220;-0.38000
6374998;-0.38500
6377776;-0.39000
6380554;-0.38500
6383332;-0.37500
6386109;-0.37500
6388887;-0.36500
6391665;-0.36500
6394443;-0.38500
6397220;-0.39500
6399998;-0.38500
6402776;-0.37500
6405554;-0.37500
6408332;-0.38000
6411109;-0.38500
6413887;-0.39500
6416665;-0.39000
6419443;-0.37500
6422220;-0.38000
6424998;-0.37500
6427776;-0.39500
6430554;-0.39500
6433332;-0.38500
6436109;-0.38500
6438887;-0.37500
6441665;-0.37500
6444443;-0.38500
6447220;-0.38500
6449998;-0.38500
6452776;-0.36500
6455554;-0.35500
6458332;-0.34500
6461109;-0.35000
6463887;-0.35000
6466665;-0.31500
6469443;-0.31000
6472220;-0.29500
6474998;-0.29000
6477776;-0.29000
6480554;-0.29500
6483332;-0.27000
6486109;-0.26000
6488887;-0.26500
6491665;-0.26500
6494443;-0.26500
6497220;-0.27000
6499998;-0.25500
6502776;-0.23500
6505554;-0.25000
6508332;-0.25500
6511109;-0.26000
6513887;-0.26500
6516665;-0.25500
6519443;-0.25000
6522220;-0.25000
6524998;-0.25500
6527776;-0.26000
6530554;-0.27500
6533332;-0.26000
6536109;-0.24500
6538887;-0.24500
6541665;-0.26000
6544443;-0.25500
6547220;-0.26000
6549998;-0.24500
6552776;-0.25500
6555554;-0.25000
6558331;-0.25500
6561109;-0.27000
6563887;-0.27500
6566665;-0.27000
6569443;-0.26000
6572220;-0.25000
6574998;-0.26500
6577776;-0.27000
6580554;-0.27500
6583331;-0.27000
6586109;-0.27500
6588887;-0.27000
6591665;-0.27000
6594443;-0.29000
6597220;-0.29500
6599998;-0.29000
6602776;-0.29000
6605554;-0.28500
6608331;-0.29500
6611109;-0.31000
6613887;-0.31500
6616665;-0.31000
6619443;-0.30000
6622220;-0.30000
6624998;-0.30500
6627776;-0.30500
6630554;-0.31500
6633331;-0.31000
6636109;-0.31000
6638887;-0.30500
6641665;-0.31000
6644443;-0.32000
6647220;-0.32500
6649998;-0.32500
6652776;-0.32000
6655554;-0.31500
6658331;-0.32000
6661109;-0.33000
6663887;-0.32500
6666665;-0.32000
6669443;-0.32000
6672220;-0.32000
6674998;-0.32000
6677776;-0.33000
6680554;-0.34000
6683331;-0.33000
6686109;-0.31500
6688887;-0.31500
6691665;-0.32500
6694443;-0.31500
6697220;-0.32000
6699998;-0.31000
6702776;-0.30500
6705554;-0.29000
6708331;-0.28000
6711109;-0.29000
6713887;-0.28000
6716665;-0.27500
6719443;-0.26000
6722220;-0.24500
6724998;-0.24500
6727776;-0.25000
6730554;-0.26500
6733331;-0.24500
6736109;-0.22000
6738887;-0.20000
6741665;-0.20000
6744443;-0.20000
6747220;-0.20500
6749998;-0.19500
6752776;-0.19500
6755554;-0.20000
6758331;-0.21000
6761109;-0.23000
6763887;-0.22000
6766665;-0.21500
6769443;-0.20500
6772220;-0.19000
6774998;-0.19500
6777776;-0.17500
6780554;-0.18000
6783331;-0.18000
6786109;-0.20500
6788887;-0.24000
6791665;-0.25000
6794443;-0.27500
6797220;-0.29500
6799998;-0.30000
6802776;-0.30500
6805554;-0.32000
6808331;-0.32500
6811109;-0.33000
6813887;-0.33500
6816665;-0.33500
6819443;-0.32000
6822220;-0.32500
6824998;-0.34500
6827776;-0.34500
6830554;-0.35500
6833331;-0.36000
6836109;-0.35000
6838887;-0.34500
6841665;-0.35000
6844443;-0.34500
6847220;-0.35500
6849998;-0.34500
6852776;-0.34500
6855554;-0.34500
6858331;-0.34500
6861109;-0.35500
6863887;-0.36500
6866665;-0.35000
6869443;-0.34000
6872220;-0.35000
6874998;-0.36000
6877776;-0.39000
6880554;-0.44500
6883331;-0.46000
6886109;-0.48500
6888887;-0.50500
6891665;-0.54500
6894443;-0.53500
6897220;-0.45000
6899998;-0.30000
6902776;-0.13500
6905554;0.07500
6908331;0.36500
6911109;0.64500
6913887;0.79500
6916665;0.84000
6919443;0.70000
6922220;0.32000
6924998;-0.16000
6927776;-0.49000
6930554;-0.60000
6933331;-0.54500
6936109;-0.46500
6938887;-0.41500
6941665;-0.41500
6944442;-0.42500
6947220;-0.44000
6949998;-0.41000
6952776;-0.40000
6955554;-0.40500
6958331;-0.41500
6961109;-0.41500
6963887;-0.44000
6966665;-0.42500
6969442;-0.41000
6972220;-0.41500
6974998;-0.42000
6977776;-0.43000
6980554;-0.44500
6983331;-0.43000
6986109;-0.42500
6988887;-0.42500
6991665;-0.41500
6994442;-0.42500
6997220;-0.44500
6999998;-0.42500
7002776;-0.41500
7005554;-0.42500
7008331;-0.42500
7011109;-0.43000
7013887;-0.43500
7016665;-0.43000
7019442;-0.42500
7022220;-0.41500
7024998;-0.42000
7027776;-0.43000
7030554;-0.43500
7033331;-0.43000
7036109;-0.41000
7038887;-0.40500
7041665;-0.41500
7044442;-0.42500
7047220;-0.44000
7049998;-0.43500
7052776;-0.42500
7055554;-0.42000
7058331;-0.41500
7061109;-0.42500
7063887;-0.44000
7066665;-0.44000
7069442;-0.42500
7072220;-0.41500
7074998;-0.42000
7077776;-0.43500
7080554;-0.43500
7083331;-0.43500
7086109;-0.42500
7088887;-0.42000
7091665;-0.41500
7094442;-0.42000
7097220;-0.42000
7099998;-0.42000
7102776;-0.40000
7105554;-0.41000
7108331;-0.41000
7111109;-0.41000
7113887;-0.42000
7116665;-0.41500
7119442;-0.41500
7122220;-0.41500
7124998;-0.42000
7127776;-0.43500
7130554;-0.44000
7133331;-0.42500
7136109;-0.44000
7138887;-0.42500
7141665;-0.41500
7144442;-0.42000
7147220;-0.42000
7149998;-0.40500
7152776;-0.40000
7155554;-0.40000
7158331;-0.41000
7161109;-0.41500
7163887;-0.41500
7166665;-0.40500
7169442;-0.39500
7172220;-0.38000
7174998;-0.38000
7177776;-0.37500
7180554;-0.36000
7183331;-0.34000
7186109;-0.32000
7188887;-0.32000
7191665;-0.31000
7194442;-0.31500
7197220;-0.32000
7199998;-0.30500
7202776;-0.29500
7205554;-0.29000
7208331;-0.29000
7211109;-0.29000
7213887;-0.28500
7216665;-0.28500
7219442;-0.27500
7222220;-0.28000
7224998;-0.27500
7227776;-0.28000
7230554;-0.29500
7233331;-0.27500
7236109;-0.26000
7238887;-0.26000
7241665;-0.27000
7244442;-0.29500
7247220;-0.30000
7249998;-0.29000
7252776;-0.28000
7255554;-0.27500
7258331;-0.28500
7261109;-0.29500
7263887;-0.30500
7266665;-0.29000
7269442;-0.29000
7272220;-0.27500
7274998;-0.29000
7277776;-0.29000
7280554;-0.30000
7283331;-0.29000
7286109;-0.28000
7288887;-0.28500
7291665;-0.29500
7294442;-0.31500
7297220;-0.31000
7299998;-0.30000
7302776;-0.31500
7305554;-0.30500
7308331;-0.30500
7311109;-0.31500
7313887;-0.34000
7316665;-0.33500
7319442;-0.34000
7322220;-0.32500
7324998;-0.32000
7327776;-0.33500
7330554;-0.33500
7333331;-0.33000
7336109;-0.34000
7338887;-0.33000
7341665;-0.34500
7344442;-0.36000
7347220;-0.37000
7349998;-0.36000
7352776;-0.35500
7355553;-0.34500
7358331;-0.35500
7361109;-0.36500
7363887;-0.38000
7366665;-0.36000
7369442;-0.35000
7372220;-0.34500
7374998;-0.34500
7377776;-0.35500
7380553;-0.37000
7383331;-0.36500
7386109;-0.36000
7388887;-0.34500
7391665;-0.35500
7394442;-0.36500
7397220;-0.36500
7399998;-0.35500
7402776;-0.35000
7405553;-0.34000
7408331;-0.34500
7411109;-0.34500
7413887;-0.35500
7416665;-0.33500
7419442;-0.32000
7422220;-0.31500
7424998;-0.31000
7427776;-0.31500
7430553;-0.31000
7433331;-0.30500
7436109;-0.27500
7438887;-0.27000
7441665;-0.28000
7444442;-0.28000
7447220;-0.27000
7449998;-0.26000
7452776;-0.25500
7455553;-0.24000
7458331;-0.23500
7461109;-0.24000
7463887;-0.25000
7466665;-0.25000
7469442;-0.24500
7472220;-0.24000
7474998;-0.25000
7477776;-0.24000
7480553;-0.24500
7483331;-0.23000
7486109;-0.22500
7488887;-0.21500
7491665;-0.19500
7494442;-0.21000
7497220;-0.24000
7499998;-0.28000
7502776;-0.31500
7505553;-0.30500
7508331;-0.32500
7511109;-0.32500
7513887;-0.34500
7516665;-0.34500
7519442;-0.35000
7522220;-0.35500
7524998;-0.36500
7527776;-0.37500
7530553;-0.38000
7533331;-0.37500
7536109;-0.37000
7538887;-0.37500
7541665;-0.38500
7544442;-0.39000
7547220;-0.39500
7549998;-0.39500
7552776;-0.37500
7555553;-0.37000
7558331;-0.38500
7561109;-0.40000
7563887;-0.40500
7566665;-0.41000
7569442;-0.40000
7572220;-0.38000
7574998;-0.39500
7577776;-0.39000
7580553;-0.39000
7583331;-0.39000
7586109;-0.41000
7588887;-0.43500
7591665;-0.46500
7594442;-0.50500
7597220;-0.50500
7599998;-0.53000
7602776;-0.58000
7605553;-0.59500
7608331;-0.55500
7611109;-0.46000
7613887;-0.33500
7616665;-0.18000
7619442;0.05000
7622220;0.33500
7624998;0.61000
7627776;0.78500
7630553;0.83000
7633331;0.75000
7636109;0.47000
7638887;0.07000
7641665;-0.28000
7644442;-0.49000
7647220;-0.59000
7649998;-0.60500
7652776;-0.57000
7655553;-0.50000
7658331;-0.46500
7661109;-0.46000
7663887;-0.47500
7666665;-0.47000
7669442;-0.45500
7672220;-0.44500
7674998;-0.44500
7677776;-0.46000
7680553;-0.46500
7683331;-0.46500
7686109;-0.45500
7688887;-0.44000
7691665;-0.44500
7694442;-0.46500
7697220;-0.47000
7699998;-0.47000
7702776;-0.46500
7705553;-0.46000
7708331;-0.46000
7711109;-0.46000
7713887;-0.47500
7716665;-0.47000
7719442;-0.46500
7722220;-0.46500
7724998;-0.48000
7727776;-0.48000
7730553;-0.49500
7733331;-0.48500
7736109;-0.47000
7738887;-0.47000
7741664;-0.45500
7744442;-0.47000
7747220;-0.49500
7749998;-0.50000
7752776;-0.48500
7755553;-0.48500
7758331;-0.46000
7761109;-0.47000
7763887;-0.47000
7766664;-0.47500
7769442;-0.47500
7772220;-0.49000
7774998;-0.49000
7777776;-0.49000
7780553;-0.49000
7783331;-0.47500
7786109;-0.45000
7788887;-0.44500
7791664;-0.45000
7794442;-0.46000
7797220;-0.48000
7799998;-0.47000
7802776;-0.46500
7805553;-0.47000
7808331;-0.47500
7811109;-0.47000
7813887;-0.48500
7816664;-0.47500
7819442;-0.47000
7822220;-0.47000
7824998;-0.47500
7827776;-0.49000
7830553;-0.49500
7833331;-0.48500
7836109;-0.47000
7838887;-0.47000
7841664;-0.47000
7844442;-0.49000
7847220;-0.50500
7849998;-0.50500
7852776;-0.49000
7855553;-0.49500
7858331;-0.50000
7861109;-0.50000
7863887;-0.50000
7866664;-0.51000
7869442;-0.50000
7872220;-0.50500
7874998;-0.50500
7877776;-0.52000
7880553;-0.52500
7883331;-0.52500
7886109;-0.52000
7888887;-0.48500
7891664;-0.48000
7894442;-0.46500
7897220;-0.46000
7899998;-0.45000
7902776;-0.44000
7905553;-0.42500
7908331;-0.41500
7911109;-0.41500
7913887;-0.41500
7916664;-0.38000
7919442;-0.38000
7922220;-0.37000
7924998;-0.36000
7927776;-0.37000
7930553;-0.36000
7933331;-0.35000
7936109;-0.32500
7938887;-0.31500
7941664;-0.31000
7944442;-0.33000
7947220;-0.32000
7949998;-0.30500
7952776;-0.30500
7955553;-0.30500
7958331;-0.31500
7961109;-0.32000
7963887;-0.33000
7966664;-0.32000
7969442;-0.32000
7972220;-0.32000
7974998;-0.32000
7977776;-0.31500
7980553;-0.32500
7983331;-0.33000
7986109;-0.31000
7988887;-0.30000
7991664;-0.30000
7994442;-0.31500
7997220;-0.33500
7999998;-0.33000
8002776;-0.33500
8005553;-0.33000
8008331;-0.32500
8011109;-0.34500
8013887;-0.36000
8016664;-0.34000
8019442;-0.34500
8022220;-0.33000
8024998;-0.34500
8027776;-0.35500
8030553;-0.37000
8033331;-0.37000
8036109;-0.35000
8038887;-0.35000
8041664;-0.35500
8044442;-0.35000
8047220;-0.36000
8049998;-0.36000
8052776;-0.34500
8055553;-0.35500
8058331;-0.35000
8061109;-0.35500
8063887;-0.37000
8066664;-0.37500
8069442;-0.37500
8072220;-0.38500
8074998;-0.38000
8077776;-0.38500
8080553;-0.40500
8083331;-0.39500
8086109;-0.40000
8088887;-0.39000
8091664;-0.38500
8094442;-0.39000
8097220;-0.40000
8099998;-0.39000
8102776;-0.38000
8105553;-0.39000
8108331;-0.37500
8111109;-0.39500
8113887;-0.40500
8116664;-0.39500
8119442;-0.38000
8122220;-0.37500
8124998;-0.37500
8127776;-0.39000
8130553;-0.39500
8133331;-0.39500
8136109;-0.39000
8138887;-0.36500
8141664;-0.36500
8144442;-0.37000
8147220;-0.39000
8149998;-0.37000
8152775;-0.36000
8155553;-0.34500
8158331;-0.34500
8161109;-0.35000
8163887;-0.35500
8166664;-0.34500
8169442;-0.33000
8172220;-0.31000
8174998;-0.29500
8177775;-0.30500
8180553;-0.32000
8183331;-0.29500
8186109;-0.27500
8188887;-0.27500
8191664;-0.28500
8194442;-0.28500
8197220;-0.29500
8199998;-0.27500
8202775;-0.26500
8205553;-0.25000
8208331;-0.25500
8211109;-0.25500
8213887;-0.26500
8216664;-0.26000
8219442;-0.25000
8222220;-0.25500
8224998;-0.26500
8227775;-0.27500
8230553;-0.28000
8233331;-0.27000
8236109;-0.26000
8238887;-0.25000
8241664;-0.23000
8244442;-0.23500
8247220;-0.23000
8249998;-0.26000
8252775;-0.28500
8255553;-0.30500
8258331;-0.31500
8261109;-0.33500
8263887;-0.36000
8266664;-0.36000
8269442;-0.37000
8272220;-0.37000
8274998;-0.38000
8277775;-0.39000
8280553;-0.39000
8283331;-0.38500
8286109;-0.38500
8288887;-0.38000
8291664;-0.39000
8294442;-0.40000
8297220;-0.41500
8299998;-0.41500
8302775;-0.40000
8305553;-0.39500
8308331;-0.40000
8311109;-0.39500
8313887;-0.42000
8316664;-0.41000
8319442;-0.39500
8322220;-0.39000
8324998;-0.38500
8327775;-0.40500
8330553;-0.41500
8333331;-0.41500
8336109;-0.42000
8338887;-0.44500
8341664;-0.48000
8344442;-0.51000
8347220;-0.55500
8349998;-0.58500
8352775;-0.59500
8355553;-0.53500
8358331;-0.41500
8361109;-0.28000
8363887;-0.11500
8366664;0.08500
8369442;0.35000
8372220;0.62500
8374998;0.83000
8377775;0.94000
8380553;0.95000
8383331;0.83500
8386109;0.57000
8388887;0.22000
8391664;-0.12000
8394442;-0.37500
8397220;-0.53000
8399998;-0.61500
8402775;-0.62500
8405553;-0.61500
8408331;-0.58000
8411109;-0.53500
8413887;-0.50000
8416664;-0.48000
8419442;-0.47000
8422220;-0.46500
8424998;-0.46500
8427775;-0.47000
8430553;-0.48500
8433331;-0.48000
8436109;-0.46500
8438887;-0.47000
8441664;-0.47500
8444442;-0.47500
8447220;-0.48500
8449998;-0.48000
8452775;-0.47500
8455553;-0.45500
8458331;-0.47000
8461109;-0.47500
8463887;-0.48000
8466664;-0.47500
8469442;-0.47000
8472220;-0.46000
8474998;-0.46000
8477775;-0.47500
8480553;-0.48500
8483331;-0.47000
8486109;-0.47500
8488887;-0.46000
8491664;-0.45500
8494442;-0.46500
8497220;-0.47500
8499998;-0.47500
8502775;-0.48000
8505553;-0.46500
8508331;-0.47000
8511109;-0.48000
8513887;-0.48000
8516664;-0.48000
8519442;-0.47000
8522220;-0.47500
8524998;-0.49000
8527775;-0.48500
8530553;-0.49000
8533331;-0.47500
8536109;-0.46000
8538886;-0.47000
8541664;-0.48000
8544442;-0.47500
8547220;-0.48500
8549998;-0.47500
8552775;-0.45500
8555553;-0.44500
8558331;-0.46000
8561109;-0.47000
8563886;-0.49000
8566664;-0.48000
8569442;-0.47000
8572220;-0.46500
8574998;-0.46500
8577775;-0.48000
8580553;-0.48500
8583331;-0.47000
8586109;-0.48000
8588886;-0.47500
8591664;-0.46500
8594442;-0.47500
8597220;-0.49000
8599998;-0.49000
8602775;-0.47500
8605553;-0.47000
8608331;-0.46500
8611109;-0.48500
8613886;-0.49000
8616664;-0.48000
8619442;-0.48500
8622220;-0.48000
8624998;-0.48000
8627775;-0.50000
8630553;-0.50500
8633331;-0.50000
8636109;-0.51000
8638886;-0.49500
8641664;-0.49000
8644442;-0.49000
8647220;-0.50500
8649998;-0.50000
8652775;-0.47000
8655553;-0.46000
8658331;-0.44500
8661109;-0.45000
8663886;-0.44500
8666664;-0.42500
8669442;-0.40000
8672220;-0.38000
8674998;-0.36500
8677775;-0.35000
8680553;-0.36000
8683331;-0.33500
8686109;-0.32500
8688886;-0.31500
8691664;-0.30500
8694442;-0.31000
8697220;-0.32000
8699998;-0.31000
8702775;-0.30000
8705553;-0.29500
8708331;-0.29000
8711109;-0.30500
8713886;-0.31000
8716664;-0.31500
8719442;-0.30000
8722220;-0.29500
8724998;-0.29500
8727775;-0.30000
8730553;-0.30500
8733331;-0.30000
8736109;-0.29000
8738886;-0.28000
8741664;-0.28500
8744442;-0.29500
8747220;-0.29500
8749998;-0.28500
8752775;-0.28500
8755553;-0.28500
8758331;-0.28500
8761109;-0.28500
8763886;-0.30000
8766664;-0.29500
8769442;-0.28500
8772220;-0.29000
8774998;-0.29500
8777775;-0.30500
8780553;-0.32000
8783331;-0.31500
8786109;-0.31000
8788886;-0.29500
8791664;-0.31000
8794442;-0.30000
8797220;-0.31500
8799998;-0.31500
8802775;-0.31000
8805553;-0.29500
8808331;-0.30500
8811109;-0.31000
8813886;-0.33000
8816664;-0.31500
8819442;-0.29500
8822220;-0.30000
8824998;-0.32000
8827775;-0.32500
8830553;-0.34000
8833331;-0.33500
8836109;-0.33500
8838886;-0.30500
8841664;-0.33000
8844442;-0.33000
8847220;-0.34000
8849998;-0.33500
8852775;-0.34000
8855553;-0.32000
8858331;-0.33000
8861109;-0.33500
8863886;-0.35500
8866664;-0.33500
8869442;-0.33500
8872220;-0.33000
8874998;-0.31500
8877775;-0.32500
8880553;-0.34500
8883331;-0.33000
8886109;-0.32000
8888886;-0.32000
8891664;-0.32000
8894442;-0.31500
8897220;-0.33000
8899998;-0.32000
8902775;-0.30000
8905553;-0.29000
8908331;-0.28000
8911109;-0.28500
8913886;-0.28500
8916664;-0.27500
8919442;-0.26500
8922220;-0.25000
8924998;-0.24500
8927775;-0.23500
8930553;-0.24500
8933331;-0.21500
8936109;-0.21500
8938886;-0.19500
8941664;-0.19500
8944442;-0.20500
8947220;-0.21000
8949997;-0.20000
8952775;-0.20000
8955553;-0.20000
8958331;-0.20500
8961109;-0.21500
8963886;-0.22500
8966664;-0.22500
8969442;-0.22000
8972220;-0.19500
8974997;-0.19000
8977775;-0.18000
8980553;-0.19000
8983331;-0.22500
8986109;-0.25000
8988886;-0.25500
8991664;-0.26000
8994442;-0.27000
8997220;-0.29500
8999997;-0.31500
9002775;-0.32000
9005553;-0.31500
9008331;-0.32500
9011109;-0.33000
9013886;-0.33000
9016664;-0.33000
9019442;-0.32500
9022220;-0.32000
9024997;-0.33000
9027775;-0.34500
9030553;-0.35000
9033331;-0.35000
9036109;-0.33000
9038886;-0.33000
9041664;-0.34000
9044442;-0.34500
9047220;-0.35500
9049997;-0.36000
9052775;-0.35000
9055553;-0.34500
9058331;-0.35500
9061109;-0.35500
9063886;-0.37000
9066664;-0.37500
9069442;-0.35500
9072220;-0.35000
9074997;-0.35000
9077775;-0.38000
9080553;-0.42000
9083331;-0.45500
9086109;-0.46500
9088886;-0.48000
9091664;-0.51000
9094442;-0.56000
9097220;-0.55000
9099997;-0.44500
9102775;-0.30500
9105553;-0.15500
9108331;0.02500
9111109;0.25000
9113886;0.52000
9116664;0.78000
9119442;0.92000
9122220;0.93000
9124997;0.75500
9127775;0.37500
9130553;-0.06500
9133331;-0.41000
9136109;-0.54500
9138886;-0.54000
9141664;-0.46500
9144442;-0.43000
9147220;-0.42000
9149997;-0.42000
9152775;-0.42000
9155553;-0.40000
9158331;-0.40500
9161109;-0.41500
9163886;-0.43000
9166664;-0.43000
9169442;-0.41500
9172220;-0.40500
9174997;-0.41500
9177775;-0.43000
9180553;-0.44000
9183331;-0.42500
9186109;-0.42000
9188886;-0.41500
9191664;-0.41500
9194442;-0.41500
9197220;-0.44000
9199997;-0.43500
9202775;-0.42500
9205553;-0.42000
9208331;-0.42000
9211109;-0.43000
9213886;-0.44000
9216664;-0.44500
9219442;-0.43000
9222220;-0.41500
9224997;-0.42000
9227775;-0.42000
9230553;-0.42500
9233331;-0.42000
9236109;-0.41500
9238886;-0.41000
9241664;-0.41500
9244442;-0.42500
9247220;-0.43000
9249997;-0.43000
9252775;-0.42500
9255553;-0.41500
9258331;-0.42000
9261109;-0.42500
9263886;-0.43500
9266664;-0.44000
9269442;-0.43000
9272220;-0.42000
9274997;-0.42000
9277775;-0.43000
9280553;-0.43500
9283331;-0.43000
9286109;-0.43500
9288886;-0.43000
9291664;-0.42000
9294442;-0.43000
9297220;-0.44000
9299997;-0.43000
9302775;-0.42500
9305553;-0.42000
9308331;-0.41000
9311109;-0.43500
9313886;-0.42500
9316664;-0.42000
9319442;-0.41500
9322220;-0.42000
9324997;-0.41000
9327775;-0.42500
9330553;-0.43500
9333331;-0.43000
9336108;-0.42000
9338886;-0.41500
9341664;-0.43000
9344442;-0.43000
9347220;-0.43500
9349997;-0.43000
9352775;-0.43500
9355553;-0.42000
9358331;-0.42000
9361108;-0.43000
9363886;-0.44500
9366664;-0.43500
9369442;-0.42500
9372220;-0.42500
9374997;-0.41500
9377775;-0.42500
9380553;-0.43000
9383331;-0.42000
9386108;-0.41500
9388886;-0.40000
9391664;-0.39000
9394442;-0.38000
9397220;-0.38500
9399997;-0.39000
9402775;-0.36000
9405553;-0.34500
9408331;-0.34000
9411108;-0.34500
9413886;-0.33500
9416664;-0.33500
9419442;-0.33000
9422220;-0.31000
9424997;-0.30000
9427775;-0.30500
9430553;-0.30500
9433331;-0.31000
9436108;-0.29000
9438886;-0.28000
9441664;-0.28000
9444442;-0.28000
9447220;-0.28500
9449997;-0.28000
9452775;-0.27000
9455553;-0.27000
9458331;-0.27000
9461108;-0.28500
9463886;-0.29000
9466664;-0.28500
9469442;-0.29000
9472220;-0.27500
9474997;-0.29000
9477775;-0.29000
9480553;-0.29500
9483331;-0.28500
9486108;-0.28500
9488886;-0.26500
9491664;-0.28000
9494442;-0.29000
9497220;-0.30500
9499997;-0.31000
9502775;-0.29500
9505553;-0.29500
9508331;-0.28500
9511108;-0.28500
9513886;-0.30000
9516664;-0.29500
9519442;-0.29000
9522220;-0.27500
9524997;-0.28000
9527775;-0.30000
9530553;-0.30500
9533331;-0.29000
9536108;-0.28500
9538886;-0.29000
9541664;-0.29500
9544442;-0.30500
9547220;-0.32000
9549997;-0.32500
9552775;-0.31500
9555553;-0.31500
9558331;-0.31500
9561108;-0.33000
9563886;-0.35000
9566664;-0.34000
9569442;-0.32000
9572220;-0.31500
9574997;-0.32500
9577775;-0.34500
9580553;-0.35000
9583331;-0.34000
9586108;-0.32500
9588886;-0.32500
9591664;-0.34000
9594442;-0.34500
9597220;-0.36000
9599997;-0.35000
9602775;-0.34500
9605553;-0.34500
9608331;-0.33500
9611108;-0.35000
9613886;-0.35500
9616664;-0.37000
9619442;-0.37000
9622220;-0.36000
9624997;-0.35000
9627775;-0.36500
9630553;-0.36500
9633331;-0.35000
9636108;-0.34500
9638886;-0.33500
9641664;-0.34500
9644442;-0.34000
9647220;-0.34000
9649997;-0.32500
9652775;-0.32000
9655553;-0.31000
9658331;-0.31000
9661108;-0.32000
9663886;-0.31000
9666664;-0.30500
9669442;-0.28500
9672220;-0.27000
9674997;-0.26000
9677775;-0.24500
9680553;-0.26500
9683331;-0.26000
9686108;-0.25500
9688886;-0.25000
9691664;-0.25000
9694442;-0.25000
9697220;-0.24500
9699997;-0.23000
9702775;-0.22000
9705553;-0.21500
9708331;-0.22500
9711108;-0.23500
9713886;-0.24500
9716664;-0.23500
9719442;-0.23000
9722220;-0.22500
9724997;-0.21000
9727775;-0.20500
9730553;-0.21500
9733331;-0.23000
9736108;-0.26000
9738886;-0.26500
9741664;-0.28500
9744442;-0.30500
9747219;-0.33500
9749997;-0.34000
9752775;-0.33500
9755553;-0.34000
9758331;-0.35500
9761108;-0.38000
9763886;-0.39000
9766664;-0.39000
9769442;-0.38500
9772219;-0.37500
9774997;-0.39500
9777775;-0.38500
9780553;-0.39500
9783331;-0.40000
9786108;-0.40500
9788886;-0.41000
9791664;-0.40000
9794442;-0.39500
9797219;-0.40000
9799997;-0.39000
9802775;-0.38500
9805553;-0.37500
9808331;-0.38000
9811108;-0.39500
9813886;-0.41000
9816664;-0.40000
9819442;-0.38500
9822219;-0.37500
9824997;-0.38000
9827775;-0.40000
9830553;-0.45000
9833331;-0.50000
9836108;-0.50500
9838886;-0.51500
9841664;-0.56500
9844442;-0.61500
9847219;-0.59000
9849997;-0.49000
9852775;-0.36500
9855553;-0.20500
9858331;-0.02000
9861108;0.24500
9863886;0.51500
9866664;0.72000
9869442;0.84500
9872219;0.81500
9874997;0.58500
9877775;0.18500
9880553;-0.22000
9883331;-0.49500
9886108;-0.59500
9888886;-0.59000
9891664;-0.54000
9894442;-0.49500
9897219;-0.49500
9899997;-0.48000
9902775;-0.49000
9905553;-0.47000
9908331;-0.47000
9911108;-0.48500
9913886;-0.49000
9916664;-0.49500
9919442;-0.48500
9922219;-0.48500
9924997;-0.47000
9927775;-0.46000
9930553;-0.48000
9933331;-0.48500
9936108;-0.48000
9938886;-0.46500
9941664;-0.48000
9944442;-0.49500
9947219;-0.51500
9949997;-0.50500
9952775;-0.48500
9955553;-0.49000
9958331;-0.49500
9961108;-0.50500
9963886;-0.51000
9966664;-0.50500
9969442;-0.51000
9972219;-0.50500
9974997;-0.50000
9977775;-0.50000
9980553;-0.51500
9983331;-0.52500
9986108;-0.51000
9988886;-0.50500
9991664;-0.50000
9994442;-0.52000
9997219;-0.52500
9999997;-0.53000
10002775;-0.51000
10005553;-0.53000
10008331;-0.53500
10011108;-0.53000
10013886;-0.53500
10016664;-0.53000
10019442;-0.52000
10022219;-0.52000
