time_ms;ecg_value
0;-0.12000
2778;-0.11500
5556;-0.11000
8333;-0.13500
11111;-0.14500
13889;-0.15500
16667;-0.15500
19444;-0.15000
22222;-0.15000
25000;-0.14500
27778;-0.15500
30556;-0.14000
33333;-0.12000
36111;-0.09000
38889;-0.07500
41667;-0.09500
44444;-0.13000
47222;-0.15000
50000;-0.17500
52778;-0.17000
55556;-0.17500
58333;-0.19500
61111;-0.21500
63889;-0.23500
66667;-0.23500
69444;-0.24500
72222;-0.26000
75000;-0.28500
77778;-0.29500
80556;-0.29000
83333;-0.28000
86111;-0.28000
88889;-0.27000
91667;-0.29000
94444;-0.28500
97222;-0.30500
100000;-0.29500
102778;-0.28500
105556;-0.29500
108333;-0.29500
111111;-0.30500
113889;-0.30500
116667;-0.30000
119444;-0.29000
122222;-0.28500
125000;-0.30000
127778;-0.30500
130556;-0.31500
133333;-0.32500
136111;-0.33500
138889;-0.38500
141667;-0.40500
144444;-0.43000
147222;-0.44500
150000;-0.48500
152778;-0.53500
155556;-0.55000
158333;-0.53000
161111;-0.46000
163889;-0.34500
166667;-0.21000
169444;-0.05000
172222;0.14000
175000;0.36500
177778;0.62000
180556;0.83000
183333;0.94500
186111;0.88500
188889;0.65500
191667;0.26500
194444;-0.15000
197222;-0.39500
200000;-0.45500
202778;-0.42000
205555;-0.36500
208333;-0.33500
211111;-0.35500
213889;-0.36000
216667;-0.35000
219444;-0.34000
222222;-0.34000
225000;-0.35500
227778;-0.36500
230555;-0.36000
233333;-0.34500
236111;-0.35500
238889;-0.34500
241667;-0.35500
244444;-0.35500
247222;-0.36000
250000;-0.35500
252778;-0.34500
255555;-0.35000
258333;-0.35000
261111;-0.37000
263889;-0.35500
266667;-0.34000
269444;-0.33500
272222;-0.34500
275000;-0.36500
277778;-0.37000
280555;-0.38000
283333;-0.36500
286111;-0.36500
288889;-0.36000
291667;-0.35500
294444;-0.37000
297222;-0.35000
300000;-0.35000
302778;-0.34000
305555;-0.34000
308333;-0.34000
311111;-0.34500
313889;-0.36000
316667;-0.34500
319444;-0.34500
322222;-0.34500
325000;-0.34500
327778;-0.36500
330555;-0.36000
333333;-0.37000
336111;-0.36000
338889;-0.35500
341667;-0.37000
344444;-0.38500
347222;-0.38000
350000;-0.37000
352778;-0.36500
355555;-0.37500
358333;-0.37500
361111;-0.38500
363889;-0.39000
366667;-0.38000
369444;-0.37000
372222;-0.36000
375000;-0.36000
377778;-0.37000
380555;-0.37000
383333;-0.36000
386111;-0.35000
388889;-0.36000
391667;-0.37500
394444;-0.38000
397222;-0.37500
400000;-0.39000
402778;-0.38500
405555;-0.38500
408333;-0.39500
411111;-0.41500
413889;-0.40500
416667;-0.40000
419444;-0.39000
422222;-0.38500
425000;-0.39000
427778;-0.40500
430555;-0.39500
433333;-0.38000
436111;-0.37500
438889;-0.36000
441667;-0.35000
444444;-0.35000
447222;-0.34500
450000;-0.33500
452778;-0.32000
455555;-0.31000
458333;-0.31500
461111;-0.31500
463889;-0.31500
466667;-0.30000
469444;-0.29000
472222;-0.29000
475000;-0.30000
477778;-0.29500
480555;-0.28000
483333;-0.27500
486111;-0.26000
488889;-0.25500
491667;-0.26500
494444;-0.27000
497222;-0.27500
500000;-0.25500
502778;-0.24500
505555;-0.24500
508333;-0.25000
511111;-0.26500
513889;-0.25500
516667;-0.23500
519444;-0.24000
522222;-0.23500
525000;-0.26500
527778;-0.27000
530555;-0.27500
533333;-0.25500
536111;-0.24500
538889;-0.25500
541667;-0.27000
544444;-0.28000
547222;-0.28000
550000;-0.27500
552778;-0.27500
555555;-0.27500
558333;-0.30000
561111;-0.29500
563889;-0.28500
566667;-0.26500
569444;-0.26500
572222;-0.26000
575000;-0.28000
577778;-0.29500
580555;-0.30000
583333;-0.29000
586111;-0.28000
588889;-0.28500
591667;-0.30000
594444;-0.31000
597222;-0.32500
600000;-0.31000
602778;-0.30000
605555;-0.30500
608333;-0.31000
611111;-0.32500
613889;-0.32000
616666;-0.31000
619444;-0.31000
622222;-0.30500
625000;-0.32000
627778;-0.32500
630555;-0.32500
633333;-0.30500
636111;-0.31000
638889;-0.31000
641666;-0.31500
644444;-0.32500
647222;-0.32000
650000;-0.32000
652778;-0.32000
655555;-0.31000
658333;-0.30500
661111;-0.31500
663889;-0.32000
666666;-0.32000
669444;-0.31000
672222;-0.31000
675000;-0.32500
677778;-0.33500
680555;-0.32500
683333;-0.32500
686111;-0.30500
688889;-0.31000
691666;-0.32000
694444;-0.33500
697222;-0.32000
700000;-0.31500
702778;-0.29500
705555;-0.30000
708333;-0.31000
711111;-0.32000
713889;-0.33000
716666;-0.31000
719444;-0.29500
722222;-0.28500
725000;-0.28500
727778;-0.30000
730555;-0.29000
733333;-0.27500
736111;-0.26500
738889;-0.26000
741666;-0.25000
744444;-0.24500
747222;-0.24500
750000;-0.24000
752778;-0.22000
755555;-0.21000
758333;-0.22000
761111;-0.22500
763889;-0.22000
766666;-0.20000
769444;-0.19500
772222;-0.19500
775000;-0.21500
777778;-0.23500
780555;-0.23500
783333;-0.21000
786111;-0.19500
788889;-0.20000
791666;-0.21000
794444;-0.20000
797222;-0.17500
800000;-0.16500
802778;-0.18500
805555;-0.22000
808333;-0.25000
811111;-0.29000
813889;-0.30500
816666;-0.32000
819444;-0.32500
822222;-0.33000
825000;-0.34000
827778;-0.36500
830555;-0.35000
833333;-0.33000
836111;-0.32000
838889;-0.33000
841666;-0.33500
844444;-0.35500
847222;-0.36000
850000;-0.35500
852778;-0.34000
855555;-0.33500
858333;-0.35000
861111;-0.36000
863889;-0.35500
866666;-0.35500
869444;-0.35000
872222;-0.34500
875000;-0.34000
877778;-0.36000
880555;-0.36000
883333;-0.36000
886111;-0.34500
888889;-0.35000
891666;-0.35000
894444;-0.38000
897222;-0.39500
900000;-0.43000
902778;-0.44000
905555;-0.45500
908333;-0.48000
911111;-0.53000
913889;-0.58000
916666;-0.59000
919444;-0.52000
922222;-0.40500
925000;-0.27500
927778;-0.13500
930555;0.09000
933333;0.35500
936111;0.61500
938889;0.80000
941666;0.87500
944444;0.75500
947222;0.43000
950000;0.03500
952778;-0.27000
955555;-0.45500
958333;-0.52000
961111;-0.51000
963889;-0.46000
966666;-0.42500
969444;-0.40500
972222;-0.41500
975000;-0.41500
977778;-0.42500
980555;-0.42500
983333;-0.42500
986111;-0.41500
988889;-0.41500
991666;-0.43500
994444;-0.44000
997222;-0.42500
1000000;-0.40500
1002777;-0.40000
1005555;-0.39500
1008333;-0.40500
1011111;-0.42500
1013889;-0.42000
1016666;-0.41500
1019444;-0.41000
1022222;-0.42000
1025000;-0.43500
1027777;-0.43500
1030555;-0.43500
1033333;-0.42000
1036111;-0.41500
1038889;-0.41500
1041666;-0.42000
1044444;-0.43000
1047222;-0.44000
1050000;-0.42000
1052777;-0.42000
1055555;-0.42500
1058333;-0.43500
1061111;-0.44000
1063889;-0.44500
1066666;-0.43500
1069444;-0.42500
1072222;-0.42500
1075000;-0.43500
1077777;-0.44500
1080555;-0.44000
1083333;-0.43500
1086111;-0.41500
1088889;-0.41000
1091666;-0.42500
1094444;-0.43000
1097222;-0.42500
1100000;-0.41000
1102777;-0.40500
1105555;-0.40000
1108333;-0.41500
1111111;-0.43500
1113889;-0.43000
1116666;-0.43000
1119444;-0.42500
1122222;-0.42000
1125000;-0.43000
1127777;-0.44500
1130555;-0.44000
1133333;-0.42000
1136111;-0.43000
1138889;-0.43000
1141666;-0.43000
1144444;-0.43500
1147222;-0.44500
1150000;-0.43000
1152777;-0.42500
1155555;-0.42000
1158333;-0.44000
1161111;-0.44500
1163889;-0.45000
1166666;-0.45000
1169444;-0.45000
1172222;-0.46000
1175000;-0.47000
1177777;-0.48500
1180555;-0.48000
1183333;-0.48500
1186111;-0.46000
1188889;-0.47000
1191666;-0.47500
1194444;-0.48000
1197222;-0.47500
1200000;-0.46500
1202777;-0.45500
1205555;-0.45000
1208333;-0.44500
1211111;-0.44500
1213889;-0.43000
1216666;-0.41000
1219444;-0.39500
1222222;-0.38000
1225000;-0.38000
1227777;-0.36500
1230555;-0.35500
1233333;-0.33000
1236111;-0.32000
1238889;-0.31000
1241666;-0.30500
1244444;-0.32000
1247222;-0.31500
1250000;-0.29500
1252777;-0.28500
1255555;-0.28500
1258333;-0.29500
1261111;-0.29500
1263889;-0.28000
1266666;-0.27500
1269444;-0.26500
1272222;-0.26500
1275000;-0.26500
1277777;-0.27500
1280555;-0.27000
1283333;-0.26500
1286111;-0.25000
1288889;-0.26000
1291666;-0.26000
1294444;-0.29000
1297222;-0.28000
1300000;-0.27500
1302777;-0.26000
1305555;-0.26000
1308333;-0.27500
1311111;-0.28500
1313889;-0.28500
1316666;-0.28500
1319444;-0.27000
1322222;-0.28000
1325000;-0.28500
1327777;-0.28500
1330555;-0.27500
1333333;-0.26500
1336111;-0.26000
1338889;-0.26500
1341666;-0.27000
1344444;-0.28500
1347222;-0.28000
1350000;-0.27500
1352777;-0.28000
1355555;-0.28000
1358333;-0.29000
1361111;-0.29000
1363889;-0.29500
1366666;-0.29000
1369444;-0.28000
1372222;-0.28500
1375000;-0.29500
1377777;-0.30000
1380555;-0.30500
1383333;-0.29500
1386111;-0.29500
1388888;-0.30000
1391666;-0.29500
1394444;-0.30500
1397222;-0.30500
1400000;-0.30000
1402777;-0.29000
1405555;-0.27500
1408333;-0.28000
1411111;-0.29000
1413888;-0.29000
1416666;-0.28000
1419444;-0.28000
1422222;-0.26500
1425000;-0.27000
1427777;-0.28500
1430555;-0.29000
1433333;-0.26500
1436111;-0.27500
1438888;-0.28500
1441666;-0.29500
1444444;-0.29500
1447222;-0.30000
1450000;-0.29000
1452777;-0.29500
1455555;-0.28500
1458333;-0.30000
1461111;-0.30500
1463888;-0.30500
1466666;-0.30000
1469444;-0.29500
1472222;-0.28500
1475000;-0.28500
1477777;-0.29000
1480555;-0.30500
1483333;-0.27500
1486111;-0.27000
1488888;-0.26000
1491666;-0.26000
1494444;-0.26500
1497222;-0.26000
1500000;-0.24500
1502777;-0.23000
1505555;-0.22500
1508333;-0.22500
1511111;-0.22500
1513888;-0.22500
1516666;-0.21500
1519444;-0.19500
1522222;-0.19000
1525000;-0.19000
1527777;-0.19000
1530555;-0.19500
1533333;-0.17500
1536111;-0.17000
1538888;-0.16500
1541666;-0.18000
1544444;-0.19500
1547222;-0.17500
1550000;-0.17000
1552777;-0.16000
1555555;-0.16000
1558333;-0.16500
1561111;-0.15000
1563888;-0.14000
1566666;-0.14500
1569444;-0.17500
1572222;-0.21500
1575000;-0.23500
1577777;-0.24500
1580555;-0.26000
1583333;-0.26500
1586111;-0.26500
1588888;-0.28000
1591666;-0.31000
1594444;-0.31000
1597222;-0.32000
1600000;-0.30500
1602777;-0.30000
1605555;-0.30500
1608333;-0.31500
1611111;-0.32500
1613888;-0.32000
1616666;-0.30500
1619444;-0.32000
1622222;-0.30500
1625000;-0.31500
1627777;-0.32000
1630555;-0.33000
1633333;-0.31500
1636111;-0.31000
1638888;-0.30500
1641666;-0.32500
1644444;-0.33000
1647222;-0.32500
1650000;-0.32500
1652777;-0.32000
1655555;-0.33000
1658333;-0.34500
1661111;-0.37000
1663888;-0.37500
1666666;-0.41500
1669444;-0.43500
1672222;-0.45500
1675000;-0.49000
1677777;-0.55000
1680555;-0.56500
1683333;-0.53000
1686111;-0.43000
1688888;-0.30500
1691666;-0.14500
1694444;-0.01000
1697222;0.22000
1700000;0.48000
1702777;0.73000
1705555;0.91000
1708333;0.97500
1711111;0.88000
1713888;0.62000
1716666;0.23000
1719444;-0.13000
1722222;-0.39500
1725000;-0.49000
1727777;-0.48000
1730555;-0.43000
1733333;-0.38000
1736111;-0.37500
1738888;-0.38000
1741666;-0.37500
1744444;-0.39500
1747222;-0.38500
1750000;-0.37500
1752777;-0.37500
1755555;-0.38500
1758333;-0.39000
1761111;-0.40500
1763888;-0.39500
1766666;-0.39000
1769444;-0.37500
1772222;-0.38000
1775000;-0.40000
1777777;-0.39500
1780555;-0.40500
1783333;-0.39000
1786111;-0.37500
1788888;-0.37500
1791666;-0.38500
1794444;-0.38500
1797222;-0.39500
1799999;-0.38000
1802777;-0.37500
1805555;-0.38000
1808333;-0.37500
1811111;-0.39000
1813888;-0.39500
1816666;-0.37500
1819444;-0.38500
1822222;-0.39000
1824999;-0.39000
1827777;-0.39000
1830555;-0.39000
1833333;-0.38000
1836111;-0.36000
1838888;-0.37500
1841666;-0.37500
1844444;-0.39000
1847222;-0.39000
1849999;-0.38000
1852777;-0.37500
1855555;-0.37500
1858333;-0.38000
1861111;-0.38500
1863888;-0.40000
1866666;-0.39500
1869444;-0.37500
1872222;-0.37500
1874999;-0.39500
1877777;-0.40000
1880555;-0.39500
1883333;-0.38500
1886111;-0.38500
1888888;-0.38500
1891666;-0.38500
1894444;-0.40500
1897222;-0.40000
1899999;-0.39000
1902777;-0.38000
1905555;-0.38000
1908333;-0.38000
1911111;-0.39000
1913888;-0.38000
1916666;-0.37500
1919444;-0.36500
1922222;-0.35500
1924999;-0.37000
1927777;-0.39000
1930555;-0.38500
1933333;-0.38000
1936111;-0.37500
1938888;-0.38000
1941666;-0.40000
1944444;-0.41000
1947222;-0.40500
1949999;-0.38500
1952777;-0.38000
1955555;-0.39000
1958333;-0.40000
1961111;-0.41500
1963888;-0.41500
1966666;-0.41000
1969444;-0.39500
1972222;-0.41000
1974999;-0.40000
1977777;-0.41500
1980555;-0.40500
1983333;-0.39500
1986111;-0.39000
1988888;-0.38500
1991666;-0.37500
1994444;-0.38500
1997222;-0.37500
1999999;-0.36500
2002777;-0.35000
2005555;-0.34000
2008333;-0.34000
2011111;-0.34500
2013888;-0.33500
2016666;-0.30000
2019444;-0.28500
2022222;-0.28500
2024999;-0.29000
2027777;-0.27500
2030555;-0.27500
2033333;-0.26000
2036111;-0.25500
2038888;-0.25000
2041666;-0.25000
2044444;-0.25000
2047222;-0.25000
2049999;-0.24500
2052777;-0.24000
2055555;-0.23000
2058333;-0.24000
2061111;-0.25500
2063888;-0.24500
2066666;-0.24500
2069444;-0.24500
2072222;-0.24000
2074999;-0.24500
2077777;-0.25000
2080555;-0.25500
2083333;-0.25000
2086111;-0.24000
2088888;-0.24500
2091666;-0.25000
2094444;-0.26500
2097222;-0.26500
2099999;-0.25500
2102777;-0.25000
2105555;-0.26500
2108333;-0.27000
2111111;-0.27500
2113888;-0.27500
2116666;-0.26000
2119444;-0.25500
2122222;-0.26500
2124999;-0.26000
2127777;-0.27500
2130555;-0.27000
2133333;-0.26000
2136111;-0.25000
2138888;-0.25500
2141666;-0.26000
2144444;-0.28500
2147222;-0.28000
2149999;-0.28000
2152777;-0.26500
2155555;-0.29000
2158333;-0.28000
2161111;-0.30000
2163888;-0.29500
2166666;-0.27500
2169444;-0.29000
2172222;-0.28500
2174999;-0.29000
2177777;-0.30500
2180555;-0.31000
2183333;-0.30000
2186110;-0.30000
2188888;-0.30000
2191666;-0.30500
2194444;-0.33500
2197222;-0.32000
2199999;-0.30500
2202777;-0.30500
2205555;-0.29000
2208333;-0.30000
2211110;-0.31000
2213888;-0.30500
2216666;-0.31000
2219444;-0.29500
2222222;-0.30000
2224999;-0.31500
2227777;-0.31500
2230555;-0.31500
2233333;-0.30500
2236110;-0.31000
2238888;-0.31000
2241666;-0.31500
2244444;-0.33000
2247222;-0.31000
2249999;-0.30500
2252777;-0.29000
2255555;-0.30000
2258333;-0.30000
2261110;-0.29000
2263888;-0.26500
2266666;-0.25500
2269444;-0.25000
2272222;-0.25500
2274999;-0.24500
2277777;-0.25500
2280555;-0.23500
2283333;-0.23500
2286110;-0.22000
2288888;-0.22000
2291666;-0.22500
2294444;-0.22500
2297222;-0.21500
2299999;-0.20500
2302777;-0.18000
2305555;-0.19000
2308333;-0.20000
2311110;-0.20000
2313888;-0.19500
2316666;-0.19500
2319444;-0.19000
2322222;-0.20500
2324999;-0.21000
2327777;-0.21000
2330555;-0.20000
2333333;-0.19000
2336110;-0.18500
2338888;-0.16500
2341666;-0.15000
2344444;-0.16500
2347222;-0.18000
2349999;-0.19500
2352777;-0.22500
2355555;-0.23000
2358333;-0.24000
2361110;-0.28000
2363888;-0.29000
2366666;-0.29500
2369444;-0.29000
2372222;-0.30000
2374999;-0.32000
2377777;-0.33500
2380555;-0.32000
2383333;-0.32000
2386110;-0.31500
2388888;-0.31500
2391666;-0.32500
2394444;-0.34000
2397222;-0.33500
2399999;-0.33500
2402777;-0.32000
2405555;-0.32500
2408333;-0.34000
2411110;-0.35500
2413888;-0.34500
2416666;-0.33500
2419444;-0.31500
2422222;-0.33000
2424999;-0.33500
2427777;-0.35500
2430555;-0.34500
2433333;-0.32500
2436110;-0.31500
2438888;-0.32000
2441666;-0.33500
2444444;-0.35500
2447222;-0.37500
2449999;-0.39500
2452777;-0.44500
2455555;-0.46500
2458333;-0.50000
2461110;-0.55000
2463888;-0.57500
2466666;-0.54000
2469444;-0.45000
2472222;-0.30500
2474999;-0.17000
2477777;0.00500
2480555;0.23000
2483333;0.51000
2486110;0.74000
2488888;0.91500
2491666;0.98500
2494444;0.94000
2497222;0.73000
2499999;0.37500
2502777;-0.01500
2505555;-0.32000
2508333;-0.47500
2511110;-0.48500
2513888;-0.45000
2516666;-0.40000
2519444;-0.36500
2522222;-0.36000
2524999;-0.38500
2527777;-0.38500
2530555;-0.39000
2533333;-0.37500
2536110;-0.37000
2538888;-0.38500
2541666;-0.38500
2544444;-0.40500
2547222;-0.40500
2549999;-0.39000
2552777;-0.40000
2555555;-0.39000
2558333;-0.40000
2561110;-0.40000
2563888;-0.41000
2566666;-0.40000
2569444;-0.39500
2572222;-0.40000
2574999;-0.41500
2577777;-0.41000
2580555;-0.40000
2583333;-0.40000
2586110;-0.39500
2588888;-0.39000
2591666;-0.39000
2594444;-0.39500
2597221;-0.39500
2599999;-0.38500
2602777;-0.38500
2605555;-0.38500
2608333;-0.40000
2611110;-0.41500
2613888;-0.41000
2616666;-0.40000
2619444;-0.39500
2622221;-0.39000
2624999;-0.39000
2627777;-0.42000
2630555;-0.40500
2633333;-0.41000
2636110;-0.39500
2638888;-0.40500
2641666;-0.40500
2644444;-0.41500
2647221;-0.41500
2649999;-0.41500
2652777;-0.40500
2655555;-0.39500
2658333;-0.42000
2661110;-0.42000
2663888;-0.41000
2666666;-0.41000
2669444;-0.40000
2672221;-0.40000
2674999;-0.40000
2677777;-0.40000
2680555;-0.39500
2683333;-0.38500
2686110;-0.37500
2688888;-0.38500
2691666;-0.41000
2694444;-0.41000
2697221;-0.40000
2699999;-0.39000
2702777;-0.40000
2705555;-0.39500
2708333;-0.41000
2711110;-0.42000
2713888;-0.43000
2716666;-0.40500
2719444;-0.40000
2722221;-0.40500
2724999;-0.42500
2727777;-0.42500
2730555;-0.41500
2733333;-0.41000
2736110;-0.40000
2738888;-0.41000
2741666;-0.41000
2744444;-0.43000
2747221;-0.43000
2749999;-0.41500
2752777;-0.40000
2755555;-0.40500
2758333;-0.40500
2761110;-0.42000
2763888;-0.40500
2766666;-0.40000
2769444;-0.39500
2772221;-0.38000
2774999;-0.39500
2777777;-0.40500
2780555;-0.40000
2783333;-0.39000
2786110;-0.37500
2788888;-0.38000
2791666;-0.38500
2794444;-0.39000
2797221;-0.37000
2799999;-0.35500
2802777;-0.34500
2805555;-0.34000
2808333;-0.33000
2811110;-0.33000
2813888;-0.32500
2816666;-0.31000
2819444;-0.31000
2822221;-0.31000
2824999;-0.29500
2827777;-0.30000
2830555;-0.29500
2833333;-0.28500
2836110;-0.27000
2838888;-0.27500
2841666;-0.27500
2844444;-0.29000
2847221;-0.28000
2849999;-0.27500
2852777;-0.25500
2855555;-0.26500
2858333;-0.26500
2861110;-0.28000
2863888;-0.27500
2866666;-0.28000
2869444;-0.27500
2872221;-0.27500
2874999;-0.29000
2877777;-0.31000
2880555;-0.30000
2883333;-0.29000
2886110;-0.28000
2888888;-0.28500
2891666;-0.29500
2894444;-0.30500
2897221;-0.30500
2899999;-0.31000
2902777;-0.30000
2905555;-0.30500
2908333;-0.30500
2911110;-0.31000
2913888;-0.31500
2916666;-0.30000
2919444;-0.29500
2922221;-0.29500
2924999;-0.30000
2927777;-0.31000
2930555;-0.31500
2933333;-0.30500
2936110;-0.30500
2938888;-0.31000
2941666;-0.30500
2944444;-0.32000
2947221;-0.31000
2949999;-0.31000
2952777;-0.31000
2955555;-0.31000
2958333;-0.31000
2961110;-0.32000
2963888;-0.33500
2966666;-0.32500
2969444;-0.31500
2972221;-0.32000
2974999;-0.33500
2977777;-0.35000
2980555;-0.34500
2983332;-0.33500
2986110;-0.33500
2988888;-0.33500
2991666;-0.34500
2994444;-0.36000
2997221;-0.35000
2999999;-0.35000
3002777;-0.34000
3005555;-0.34500
3008332;-0.34500
3011110;-0.36500
3013888;-0.35500
3016666;-0.35000
3019444;-0.34000
3022221;-0.34000
3024999;-0.34500
3027777;-0.36000
3030555;-0.34500
3033332;-0.34500
3036110;-0.34500
3038888;-0.34000
3041666;-0.35000
3044444;-0.35500
3047221;-0.36000
3049999;-0.35500
3052777;-0.33500
3055555;-0.34000
3058332;-0.34000
3061110;-0.35000
3063888;-0.34500
3066666;-0.33000
3069444;-0.30000
3072221;-0.30000
3074999;-0.29000
3077777;-0.29500
3080555;-0.29000
3083332;-0.28500
3086110;-0.26000
3088888;-0.26500
3091666;-0.26500
3094444;-0.28500
3097221;-0.29000
3099999;-0.27000
3102777;-0.25000
3105555;-0.23000
3108332;-0.23500
3111110;-0.23500
3113888;-0.24000
3116666;-0.23500
3119444;-0.22500
3122221;-0.22500
3124999;-0.23500
3127777;-0.24000
3130555;-0.25000
3133332;-0.23500
3136110;-0.21500
3138888;-0.22000
3141666;-0.22000
3144444;-0.21500
3147221;-0.19500
3149999;-0.18500
3152777;-0.20500
3155555;-0.24500
3158332;-0.28000
3161110;-0.30000
3163888;-0.30500
3166666;-0.31000
3169444;-0.32500
3172221;-0.33500
3174999;-0.35000
3177777;-0.37500
3180555;-0.37000
3183332;-0.36500
3186110;-0.36000
3188888;-0.35500
3191666;-0.36500
3194444;-0.37500
3197221;-0.36500
3199999;-0.35500
3202777;-0.34500
3205555;-0.34500
3208332;-0.35500
3211110;-0.36500
3213888;-0.37000
3216666;-0.36500
3219444;-0.36000
3222221;-0.36000
3224999;-0.36500
3227777;-0.38000
3230555;-0.38500
3233332;-0.37000
3236110;-0.36000
3238888;-0.36500
3241666;-0.38000
3244444;-0.39500
3247221;-0.42500
3249999;-0.44000
3252777;-0.48500
3255555;-0.51000
3258332;-0.55500
3261110;-0.61000
3263888;-0.60500
3266666;-0.52500
3269444;-0.40000
3272221;-0.25000
3274999;-0.08000
3277777;0.13000
3280555;0.40000
3283332;0.65500
3286110;0.81000
3288888;0.85000
3291666;0.71500
3294444;0.40500
3297221;0.00000
3299999;-0.31500
3302777;-0.47500
3305555;-0.50500
3308332;-0.48500
3311110;-0.47000
3313888;-0.46000
3316666;-0.45500
3319444;-0.44000
3322221;-0.43000
3324999;-0.44000
3327777;-0.45000
3330555;-0.45500
3333332;-0.45500
3336110;-0.44000
3338888;-0.45500
3341666;-0.45500
3344444;-0.47000
3347221;-0.46000
3349999;-0.44500
3352777;-0.43500
3355555;-0.43000
3358332;-0.44000
3361110;-0.43500
3363888;-0.44500
3366666;-0.43500
3369444;-0.42500
3372221;-0.43000
3374999;-0.43500
3377777;-0.45000
3380555;-0.45000
3383332;-0.44000
3386110;-0.43500
3388888;-0.43000
3391666;-0.46000
3394443;-0.46000
3397221;-0.46000
3399999;-0.45500
3402777;-0.45500
3405555;-0.44500
3408332;-0.45500
3411110;-0.47000
3413888;-0.46500
3416666;-0.45500
3419443;-0.45500
3422221;-0.45500
3424999;-0.46500
3427777;-0.46500
3430555;-0.47500
3433332;-0.45000
3436110;-0.45000
3438888;-0.45000
3441666;-0.45500
3444443;-0.46500
3447221;-0.46000
3449999;-0.45500
3452777;-0.44500
3455555;-0.43000
3458332;-0.44000
3461110;-0.45000
3463888;-0.46500
3466666;-0.44500
3469443;-0.43500
3472221;-0.45000
3474999;-0.46500
3477777;-0.46500
3480555;-0.46000
3483332;-0.45500
3486110;-0.44500
3488888;-0.44500
3491666;-0.46500
3494443;-0.46500
3497221;-0.47500
3499999;-0.46000
3502777;-0.47000
3505555;-0.47500
3508332;-0.47000
3511110;-0.47500
3513888;-0.47000
3516666;-0.47000
3519443;-0.45500
3522221;-0.46000
3524999;-0.47000
3527777;-0.48500
3530555;-0.48500
3533332;-0.48000
3536110;-0.46500
3538888;-0.48000
3541666;-0.50000
3544443;-0.50000
3547221;-0.49500
3549999;-0.49500
3552777;-0.48500
3555555;-0.48500
3558332;-0.48500
3561110;-0.48000
3563888;-0.47500
3566666;-0.46500
3569443;-0.45500
3572221;-0.45500
3574999;-0.45500
3577777;-0.45000
3580555;-0.44500
3583332;-0.42500
3586110;-0.41000
3588888;-0.41500
3591666;-0.40000
3594443;-0.39500
3597221;-0.39000
3599999;-0.37000
3602777;-0.36000
3605555;-0.37500
3608332;-0.38000
3611110;-0.38500
3613888;-0.37500
3616666;-0.36000
3619443;-0.33000
3622221;-0.34000
3624999;-0.35000
3627777;-0.35500
3630555;-0.35000
3633332;-0.34000
3636110;-0.33500
3638888;-0.33000
3641666;-0.34500
3644443;-0.36500
3647221;-0.35000
3649999;-0.34000
3652777;-0.32500
3655555;-0.33500
3658332;-0.34000
3661110;-0.35000
3663888;-0.35000
3666666;-0.33500
3669443;-0.33000
3672221;-0.34500
3674999;-0.35000
3677777;-0.35500
3680555;-0.35500
3683332;-0.34500
3686110;-0.32500
3688888;-0.34000
3691666;-0.34500
3694443;-0.36000
3697221;-0.36000
3699999;-0.35000
3702777;-0.34500
3705555;-0.34000
3708332;-0.36000
3711110;-0.37000
3713888;-0.37000
3716666;-0.38500
3719443;-0.36000
3722221;-0.36500
3724999;-0.37500
3727777;-0.38000
3730555;-0.37500
3733332;-0.36000
3736110;-0.34000
3738888;-0.36000
3741666;-0.36500
3744443;-0.37500
3747221;-0.38500
3749999;-0.37500
3752777;-0.36500
3755555;-0.36500
3758332;-0.38000
3761110;-0.38500
3763888;-0.40500
3766666;-0.38000
3769443;-0.37500
3772221;-0.38000
3774999;-0.39000
3777777;-0.40500
3780554;-0.39500
3783332;-0.39000
3786110;-0.38500
3788888;-0.38500
3791666;-0.38000
3794443;-0.39000
3797221;-0.39000
3799999;-0.38500
3802777;-0.39000
3805554;-0.38500
3808332;-0.40000
3811110;-0.41000
3813888;-0.39000
3816666;-0.38500
3819443;-0.36000
3822221;-0.35500
3824999;-0.36500
3827777;-0.37500
3830554;-0.38000
3833332;-0.36000
3836110;-0.35000
3838888;-0.36500
3841666;-0.37500
3844443;-0.38500
3847221;-0.39000
3849999;-0.37500
3852777;-0.36000
3855554;-0.35500
3858332;-0.36000
3861110;-0.37000
3863888;-0.37500
3866666;-0.37500
3869443;-0.36500
3872221;-0.37500
3874999;-0.38000
3877777;-0.39000
3880554;-0.37500
3883332;-0.35000
3886110;-0.33500
3888888;-0.31500
3891666;-0.32000
3894443;-0.32500
3897221;-0.32000
3899999;-0.30000
3902777;-0.29000
3905554;-0.28500
3908332;-0.28500
3911110;-0.28500
3913888;-0.28500
3916666;-0.27000
3919443;-0.25000
3922221;-0.23500
3924999;-0.24500
3927777;-0.26500
3930554;-0.28000
3933332;-0.28500
3936110;-0.27500
3938888;-0.27500
3941666;-0.28000
3944443;-0.27500
3947221;-0.27000
3949999;-0.24500
3952777;-0.23000
3955554;-0.23500
3958332;-0.26500
3961110;-0.29500
3963888;-0.33500
3966666;-0.34000
3969443;-0.34000
3972221;-0.35500
3974999;-0.37500
3977777;-0.39000
3980554;-0.37000
3983332;-0.38000
3986110;-0.36500
3988888;-0.37000
3991666;-0.37500
3994443;-0.37500
3997221;-0.39500
3999999;-0.38000
4002777;-0.37000
4005554;-0.37000
4008332;-0.38500
4011110;-0.41500
4013888;-0.42000
4016666;-0.40500
4019443;-0.39500
4022221;-0.41500
4024999;-0.42000
4027777;-0.43000
4030554;-0.43000
4033332;-0.43000
4036110;-0.42000
4038888;-0.42500
4041666;-0.42500
4044443;-0.42500
4047221;-0.42500
4049999;-0.42500
4052777;-0.42000
4055554;-0.43500
4058332;-0.48000
4061110;-0.51000
4063888;-0.53500
4066666;-0.56000
4069443;-0.59000
4072221;-0.60000
4074999;-0.57000
4077777;-0.46000
4080554;-0.33000
4083332;-0.15500
4086110;0.04000
4088888;0.29000
4091666;0.54000
4094443;0.73000
4097221;0.83500
4099999;0.78500
4102777;0.55500
4105554;0.14500
4108332;-0.22500
4111110;-0.46500
4113888;-0.54500
4116666;-0.56000
4119443;-0.52500
4122221;-0.48500
4124999;-0.47500
4127777;-0.47500
4130554;-0.48000
4133332;-0.46000
4136110;-0.45500
4138888;-0.45500
4141666;-0.48000
4144443;-0.47500
4147221;-0.48000
4149999;-0.47000
4152777;-0.46000
4155554;-0.48500
4158332;-0.48000
4161110;-0.49000
4163888;-0.48500
4166666;-0.48000
4169443;-0.47500
4172221;-0.47500
4174999;-0.47000
4177777;-0.48000
4180554;-0.48500
4183332;-0.46500
4186110;-0.45500
4188888;-0.46500
4191665;-0.46000
4194443;-0.48000
4197221;-0.49000
4199999;-0.48500
4202777;-0.46500
4205554;-0.47500
4208332;-0.48500
4211110;-0.48500
4213888;-0.49000
4216665;-0.47000
4219443;-0.46500
4222221;-0.47000
4224999;-0.48500
4227777;-0.49500
4230554;-0.49000
4233332;-0.48000
4236110;-0.46500
4238888;-0.48000
4241665;-0.48000
4244443;-0.49000
4247221;-0.50000
4249999;-0.47000
4252777;-0.46500
4255554;-0.45500
4258332;-0.45500
4261110;-0.47000
4263888;-0.46000
4266665;-0.45000
4269443;-0.45500
4272221;-0.45500
4274999;-0.47000
4277777;-0.46000
4280554;-0.47500
4283332;-0.47000
4286110;-0.46000
4288888;-0.47000
4291665;-0.48000
4294443;-0.49000
4297221;-0.49500
4299999;-0.49500
4302777;-0.48500
4305554;-0.48000
4308332;-0.48500
4311110;-0.48500
4313888;-0.48500
4316665;-0.48000
4319443;-0.46500
4322221;-0.47000
4324999;-0.48000
4327777;-0.48500
4330554;-0.50000
4333332;-0.49000
4336110;-0.48500
4338888;-0.49000
4341665;-0.50500
4344443;-0.52000
4347221;-0.52500
4349999;-0.51500
4352777;-0.50500
4355554;-0.51000
4358332;-0.52000
4361110;-0.52000
4363888;-0.52500
4366665;-0.51500
4369443;-0.49500
4372221;-0.50500
4374999;-0.50000
4377777;-0.49500
4380554;-0.48500
4383332;-0.45000
4386110;-0.43000
4388888;-0.41500
4391665;-0.39500
4394443;-0.39000
4397221;-0.37000
4399999;-0.35000
4402777;-0.34500
4405554;-0.34000
4408332;-0.32000
4411110;-0.32000
4413888;-0.31500
4416665;-0.31500
4419443;-0.31000
4422221;-0.29500
4424999;-0.30500
4427777;-0.31500
4430554;-0.32000
4433332;-0.30000
4436110;-0.29000
4438888;-0.30000
4441665;-0.31500
4444443;-0.31500
4447221;-0.31500
4449999;-0.31000
4452777;-0.30000
4455554;-0.30000
4458332;-0.30500
4461110;-0.30500
4463888;-0.31000
4466665;-0.29500
4469443;-0.28500
4472221;-0.28000
4474999;-0.30000
4477777;-0.31000
4480554;-0.30500
4483332;-0.30500
4486110;-0.30000
4488888;-0.29500
4491665;-0.30500
4494443;-0.31000
4497221;-0.31500
4499999;-0.31000
4502777;-0.29500
4505554;-0.32000
4508332;-0.32500
4511110;-0.32500
4513888;-0.33000
4516665;-0.31500
4519443;-0.31000
4522221;-0.31000
4524999;-0.32500
4527777;-0.33500
4530554;-0.33500
4533332;-0.33000
4536110;-0.32000
4538888;-0.33500
4541665;-0.33500
4544443;-0.35000
4547221;-0.34000
4549999;-0.33500
4552777;-0.32000
4555554;-0.33000
4558332;-0.32500
4561110;-0.33000
4563888;-0.33000
4566665;-0.32500
4569443;-0.31500
4572221;-0.32000
4574999;-0.32500
4577776;-0.34000
4580554;-0.34000
4583332;-0.33000
4586110;-0.32500
4588888;-0.34000
4591665;-0.34000
4594443;-0.35000
4597221;-0.34500
4599999;-0.34500
4602776;-0.33000
4605554;-0.33000
4608332;-0.33000
4611110;-0.35000
4613888;-0.34500
4616665;-0.33000
4619443;-0.33000
4622221;-0.32000
4624999;-0.32000
4627776;-0.33000
4630554;-0.33000
4633332;-0.32000
4636110;-0.30500
4638888;-0.31000
4641665;-0.33500
4644443;-0.32000
4647221;-0.32000
4649999;-0.31000
4652776;-0.30000
4655554;-0.29500
4658332;-0.28500
4661110;-0.29000
4663888;-0.28500
4666665;-0.27000
4669443;-0.25500
4672221;-0.25500
4674999;-0.25500
4677776;-0.25000
4680554;-0.26000
4683332;-0.24000
4686110;-0.22500
4688888;-0.22500
4691665;-0.21500
4694443;-0.23500
4697221;-0.23000
4699999;-0.21500
4702776;-0.19500
4705554;-0.18000
4708332;-0.20000
4711110;-0.20500
4713888;-0.20000
4716665;-0.21000
4719443;-0.20000
4722221;-0.19500
4724999;-0.20500
4727776;-0.21000
4730554;-0.20500
4733332;-0.19000
4736110;-0.16500
4738888;-0.16500
4741665;-0.17500
4744443;-0.21000
4747221;-0.25000
4749999;-0.25500
4752776;-0.27000
4755554;-0.27500
4758332;-0.30000
4761110;-0.32000
4763888;-0.32000
4766665;-0.32500
4769443;-0.32000
4772221;-0.32000
4774999;-0.33500
4777776;-0.33000
4780554;-0.34000
4783332;-0.34000
4786110;-0.32000
4788888;-0.33500
4791665;-0.33500
4794443;-0.34500
4797221;-0.35000
4799999;-0.34500
4802776;-0.33500
4805554;-0.34000
4808332;-0.35000
4811110;-0.36000
4813888;-0.35000
4816665;-0.34500
4819443;-0.33500
4822221;-0.34500
4824999;-0.35500
4827776;-0.39000
4830554;-0.41500
4833332;-0.43500
4836110;-0.45500
4838888;-0.49000
4841665;-0.53500
4844443;-0.56500
4847221;-0.53500
4849999;-0.41000
4852776;-0.25500
4855554;-0.09500
4858332;0.08500
4861110;0.32000
4863888;0.60500
4866665;0.85000
4869443;0.99500
4872221;1.08500
4874999;1.14000
4877776;1.10000
4880554;0.94500
4883332;0.70000
4886110;0.42500
4888888;0.09500
4891665;-0.20500
4894443;-0.42000
4897221;-0.53000
4899999;-0.54500
4902776;-0.51000
4905554;-0.44500
4908332;-0.42000
4911110;-0.40500
4913888;-0.40000
4916665;-0.40000
4919443;-0.37500
4922221;-0.38500
4924999;-0.39000
4927776;-0.38500
4930554;-0.39000
4933332;-0.38500
4936110;-0.37000
4938888;-0.38000
4941665;-0.37500
4944443;-0.40000
4947221;-0.39500
4949999;-0.40000
4952776;-0.39500
4955554;-0.39500
4958332;-0.40500
4961110;-0.41500
4963887;-0.40500
4966665;-0.40000
4969443;-0.40500
4972221;-0.39000
4974999;-0.41000
4977776;-0.40500
4980554;-0.40000
4983332;-0.38500
4986110;-0.38500
4988887;-0.39000
4991665;-0.38500
4994443;-0.39500
4997221;-0.40000
4999999;-0.38500
5002776;-0.38000
5005554;-0.40000
5008332;-0.39000
5011110;-0.41000
5013887;-0.42000
5016665;-0.40000
5019443;-0.39000
5022221;-0.39500
5024999;-0.40000
5027776;-0.41000
5030554;-0.40500
5033332;-0.41500
5036110;-0.39000
5038887;-0.40500
5041665;-0.41000
5044443;-0.41500
5047221;-0.41000
5049999;-0.40000
5052776;-0.40500
5055554;-0.39000
5058332;-0.41000
5061110;-0.40500
5063887;-0.39000
5066665;-0.40000
5069443;-0.38000
5072221;-0.38500
5074999;-0.39500
5077776;-0.39000
5080554;-0.39500
5083332;-0.40000
5086110;-0.37500
5088887;-0.39000
5091665;-0.40500
5094443;-0.42000
5097221;-0.41500
5099999;-0.42000
5102776;-0.40000
5105554;-0.40500
5108332;-0.42000
5111110;-0.42000
5113887;-0.43000
5116665;-0.41500
5119443;-0.40000
5122221;-0.42500
5124999;-0.41500
5127776;-0.43000
5130554;-0.42500
5133332;-0.40000
5136110;-0.40500
5138887;-0.39500
5141665;-0.40500
5144443;-0.41000
5147221;-0.40500
5149999;-0.38500
5152776;-0.38500
5155554;-0.38000
5158332;-0.37500
5161110;-0.38500
5163887;-0.36500
5166665;-0.34000
5169443;-0.32500
5172221;-0.32500
5174999;-0.31500
5177776;-0.31500
5180554;-0.30500
5183332;-0.29500
5186110;-0.28000
5188887;-0.27500
5191665;-0.26500
5194443;-0.28000
5197221;-0.28000
5199999;-0.26000
5202776;-0.25500
5205554;-0.25500
5208332;-0.27000
5211110;-0.27000
5213887;-0.27500
5216665;-0.26000
5219443;-0.25500
5222221;-0.26000
5224999;-0.26500
5227776;-0.27500
5230554;-0.27000
5233332;-0.27500
5236110;-0.26500
5238887;-0.26500
5241665;-0.27000
5244443;-0.28000
5247221;-0.28500
5249999;-0.28000
5252776;-0.27000
5255554;-0.27500
5258332;-0.26000
5261110;-0.27000
5263887;-0.28000
5266665;-0.27000
5269443;-0.27500
5272221;-0.27500
5274999;-0.28500
5277776;-0.29000
5280554;-0.30000
5283332;-0.28500
5286110;-0.28000
5288887;-0.28500
5291665;-0.29500
5294443;-0.30500
5297221;-0.30000
5299999;-0.30000
5302776;-0.28500
5305554;-0.29500
5308332;-0.30500
5311110;-0.32000
5313887;-0.32000
5316665;-0.30500
5319443;-0.29500
5322221;-0.31000
5324999;-0.32000
5327776;-0.32500
5330554;-0.33000
5333332;-0.30500
5336110;-0.29000
5338887;-0.30000
5341665;-0.31500
5344443;-0.32000
5347221;-0.33000
5349999;-0.32500
5352776;-0.31500
5355554;-0.32500
5358332;-0.32500
5361110;-0.34000
5363887;-0.33500
5366665;-0.33000
5369443;-0.32500
5372221;-0.32500
5374998;-0.32500
5377776;-0.33000
5380554;-0.33500
5383332;-0.32000
5386110;-0.31500
5388887;-0.31000
5391665;-0.32500
5394443;-0.32500
5397221;-0.31500
5399998;-0.30500
5402776;-0.29500
5405554;-0.29500
5408332;-0.30000
5411110;-0.31000
5413887;-0.31500
5416665;-0.28500
5419443;-0.27000
5422221;-0.26500
5424998;-0.26500
5427776;-0.26500
5430554;-0.27000
5433332;-0.25500
5436110;-0.22500
5438887;-0.23000
5441665;-0.24000
5444443;-0.24000
5447221;-0.24000
5449998;-0.23500
5452776;-0.21000
5455554;-0.22000
5458332;-0.22000
5461110;-0.21500
5463887;-0.22000
5466665;-0.20000
5469443;-0.20000
5472221;-0.19500
5474998;-0.20000
5477776;-0.21000
5480554;-0.21500
5483332;-0.21500
5486110;-0.20000
5488887;-0.23500
5491665;-0.22000
5494443;-0.21500
5497221;-0.21500
5499998;-0.20000
5502776;-0.18000
5505554;-0.16000
5508332;-0.16500
5511110;-0.18500
5513887;-0.22000
5516665;-0.24500
5519443;-0.25000
5522221;-0.25500
5524998;-0.29000
5527776;-0.30000
5530554;-0.32000
5533332;-0.33000
5536110;-0.33000
5538887;-0.34500
5541665;-0.35500
5544443;-0.36000
5547221;-0.36000
5549998;-0.34500
5552776;-0.34000
5555554;-0.35500
5558332;-0.35500
5561110;-0.36500
5563887;-0.36000
5566665;-0.35500
5569443;-0.34000
5572221;-0.34000
5574998;-0.34500
5577776;-0.36000
5580554;-0.36500
5583332;-0.36000
5586110;-0.34500
5588887;-0.34500
5591665;-0.36500
5594443;-0.37000
5597221;-0.38000
5599998;-0.39500
5602776;-0.43000
5605554;-0.47000
5608332;-0.49500
5611110;-0.54000
5613887;-0.57000
5616665;-0.57500
5619443;-0.49000
5622221;-0.35500
5624998;-0.21500
5627776;-0.04500
5630554;0.18000
5633332;0.46000
5636110;0.72500
5638887;0.89000
5641665;0.92000
5644443;0.80000
5647221;0.45500
5649998;0.03500
5652776;-0.31000
5655554;-0.49500
5658332;-0.53500
5661110;-0.50000
5663887;-0.46000
5666665;-0.41000
5669443;-0.39500
5672221;-0.40500
5674998;-0.41500
5677776;-0.43000
5680554;-0.43500
5683332;-0.41000
5686110;-0.40500
5688887;-0.41500
5691665;-0.42500
5694443;-0.43500
5697221;-0.43000
5699998;-0.43000
5702776;-0.41500
5705554;-0.42000
5708332;-0.43500
5711110;-0.42500
5713887;-0.42500
5716665;-0.41000
5719443;-0.41000
5722221;-0.40500
5724998;-0.41000
5727776;-0.42000
5730554;-0.41500
5733332;-0.42000
5736110;-0.41500
5738887;-0.41500
5741665;-0.43000
5744443;-0.42000
5747221;-0.42500
5749998;-0.42500
5752776;-0.41000
5755554;-0.41500
5758332;-0.41500
5761109;-0.43000
5763887;-0.42000
5766665;-0.41500
5769443;-0.40000
5772221;-0.40500
5774998;-0.41500
5777776;-0.41500
5780554;-0.42500
5783332;-0.42000
5786109;-0.40000
5788887;-0.41000
5791665;-0.41500
5794443;-0.41500
5797221;-0.43500
5799998;-0.43500
5802776;-0.42000
5805554;-0.43000
5808332;-0.42000
5811109;-0.42000
5813887;-0.43500
5816665;-0.43000
5819443;-0.41500
5822221;-0.43000
5824998;-0.44000
5827776;-0.43500
5830554;-0.44000
5833332;-0.44000
5836109;-0.42500
5838887;-0.42000
5841665;-0.43000
5844443;-0.42500
5847221;-0.43000
5849998;-0.42000
5852776;-0.41500
5855554;-0.40500
5858332;-0.42000
5861109;-0.43000
5863887;-0.43500
5866665;-0.41500
5869443;-0.41500
5872221;-0.42500
5874998;-0.42500
5877776;-0.43500
5880554;-0.45000
5883332;-0.43500
5886109;-0.43000
5888887;-0.43000
5891665;-0.44000
5894443;-0.44500
5897221;-0.46000
5899998;-0.44500
5902776;-0.43000
5905554;-0.42500
5908332;-0.42500
5911109;-0.43000
5913887;-0.42500
5916665;-0.40000
5919443;-0.39000
5922221;-0.38000
5924998;-0.36500
5927776;-0.36500
5930554;-0.35500
5933332;-0.33000
5936109;-0.32000
5938887;-0.32500
5941665;-0.33000
5944443;-0.32500
5947221;-0.31500
5949998;-0.31000
5952776;-0.29500
5955554;-0.30000
5958332;-0.31000
5961109;-0.30500
5963887;-0.31000
5966665;-0.29500
5969443;-0.30000
5972221;-0.29000
5974998;-0.30000
5977776;-0.31000
5980554;-0.31500
5983332;-0.30500
5986109;-0.29000
5988887;-0.29000
5991665;-0.29000
5994443;-0.29500
5997221;-0.30000
5999998;-0.28500
6002776;-0.29000
6005554;-0.29500
6008332;-0.30500
6011109;-0.32000
6013887;-0.32500
6016665;-0.31500
6019443;-0.30500
6022221;-0.30500
6024998;-0.32000
6027776;-0.32500
6030554;-0.33000
6033332;-0.32500
6036109;-0.31000
6038887;-0.32500
6041665;-0.34000
6044443;-0.34000
6047221;-0.35000
6049998;-0.33500
6052776;-0.32500
6055554;-0.31500
6058332;-0.32500
6061109;-0.33500
6063887;-0.35000
6066665;-0.34000
6069443;-0.32500
6072221;-0.33500
6074998;-0.34000
6077776;-0.34500
6080554;-0.35000
6083332;-0.35000
6086109;-0.33000
6088887;-0.34500
6091665;-0.35500
6094443;-0.36000
6097221;-0.36500
6099998;-0.37000
6102776;-0.35500
6105554;-0.36000
6108332;-0.36000
6111109;-0.37500
6113887;-0.38000
6116665;-0.36500
6119443;-0.35000
6122221;-0.35000
6124998;-0.35000
6127776;-0.35000
6130554;-0.35000
6133332;-0.34500
6136109;-0.33500
6138887;-0.34500
6141665;-0.35500
6144443;-0.35000
6147221;-0.35000
6149998;-0.34000
6152776;-0.33000
6155554;-0.34000
6158332;-0.34000
6161109;-0.34500
6163887;-0.35500
6166665;-0.35000
6169443;-0.34500
6172220;-0.34500
6174998;-0.35000
6177776;-0.35000
6180554;-0.34000
6183332;-0.32000
6186109;-0.30000
6188887;-0.31000
6191665;-0.30000
6194443;-0.29500
6197220;-0.30000
6199998;-0.28500
6202776;-0.26000
6205554;-0.27000
6208332;-0.27000
6211109;-0.26500
6213887;-0.26000
6216665;-0.24000
6219443;-0.23500
6222220;-0.23500
6224998;-0.23000
6227776;-0.24500
6230554;-0.25500
6233332;-0.25000
6236109;-0.25000
6238887;-0.26500
6241665;-0.26500
6244443;-0.26500
6247220;-0.25500
6249998;-0.24500
6252776;-0.22500
6255554;-0.23000
6258332;-0.23500
6261109;-0.21000
6263887;-0.20500
6266665;-0.21500
6269443;-0.24500
6272220;-0.27000
6274998;-0.27500
6277776;-0.29500
6280554;-0.32500
6283332;-0.33500
6286109;-0.35000
6288887;-0.36500
6291665;-0.37500
6294443;-0.37500
6297220;-0.36500
6299998;-0.37000
6302776;-0.36000
6305554;-0.37500
6308332;-0.36500
6311109;-0.38500
6313887;-0.38500
6316665;-0.38500
6319443;-0.36500
6322220;-0.37000
6324998;-0.38000
6327776;-0.38500
6330554;-0.39500
6333332;-0.38500
6336109;-0.37000
6338887;-0.36500
6341665;-0.37000
6344443;-0.38000
6347220;-0.38500
6349998;-0.38500
6352776;-0.37500
6355554;-0.39500
6358332;-0.41000
6361109;-0.47500
6363887;-0.50500
6366665;-0.52000
6369443;-0.54500
6372220;-0.60000
6374998;-0.58000
6377776;-0.49500
6380554;-0.35500
6383332;-0.20500
6386109;-0.00500
6388887;0.23500
6391665;0.50000
6394443;0.68000
6397220;0.77000
6399998;0.75500
6402776;0.55500
6405554;0.21000
6408332;-0.15000
6411109;-0.43000
6413887;-0.54000
6416665;-0.54500
6419443;-0.48500
6422220;-0.44000
6424998;-0.42500
6427776;-0.43500
6430554;-0.44500
6433332;-0.43000
6436109;-0.40500
6438887;-0.42000
6441665;-0.43000
6444443;-0.44000
6447220;-0.45000
6449998;-0.45000
6452776;-0.44000
6455554;-0.45000
6458332;-0.46000
6461109;-0.47000
6463887;-0.47500
6466665;-0.46500
6469443;-0.45500
6472220;-0.46500
6474998;-0.47000
6477776;-0.46500
6480554;-0.47000
6483332;-0.44500
6486109;-0.44000
6488887;-0.43500
6491665;-0.45000
6494443;-0.45000
6497220;-0.46000
6499998;-0.45000
6502776;-0.45500
6505554;-0.46500
6508332;-0.47000
6511109;-0.47000
6513887;-0.47000
6516665;-0.46500
6519443;-0.45500
6522220;-0.46500
6524998;-0.46000
6527776;-0.47000
6530554;-0.46500
6533332;-0.46500
6536109;-0.45000
6538887;-0.46000
6541665;-0.48500
6544443;-0.47000
6547220;-0.47500
6549998;-0.47500
6552776;-0.46500
6555554;-0.46500
6558331;-0.46000
6561109;-0.45000
6563887;-0.46000
6566665;-0.44000
6569443;-0.44000
6572220;-0.44000
6574998;-0.45000
6577776;-0.45500
6580554;-0.46000
6583331;-0.46000
6586109;-0.45500
6588887;-0.46000
6591665;-0.46500
6594443;-0.46500
6597220;-0.46500
6599998;-0.46500
6602776;-0.44500
6605554;-0.45000
6608331;-0.46500
6611109;-0.48000
6613887;-0.48500
6616665;-0.46500
6619443;-0.48000
6622220;-0.48000
6624998;-0.48500
6627776;-0.50000
6630554;-0.49000
6633331;-0.49000
6636109;-0.48000
6638887;-0.47500
6641665;-0.49000
6644443;-0.49500
6647220;-0.49500
6649998;-0.47500
6652776;-0.47500
6655554;-0.48000
6658331;-0.50000
6661109;-0.50500
6663887;-0.49500
6666665;-0.47500
6669443;-0.46500
6672220;-0.48000
6674998;-0.47500
6677776;-0.46500
6680554;-0.46000
6683331;-0.43500
6686109;-0.42500
6688887;-0.42000
6691665;-0.41500
6694443;-0.42500
6697220;-0.42500
6699998;-0.40000
6702776;-0.38000
6705554;-0.38000
6708331;-0.38500
6711109;-0.38500
6713887;-0.38500
6716665;-0.36500
6719443;-0.34500
6722220;-0.35000
6724998;-0.35500
6727776;-0.36000
6730554;-0.35500
6733331;-0.35000
6736109;-0.34500
6738887;-0.36000
6741665;-0.35500
6744443;-0.36000
6747220;-0.37000
6749998;-0.35000
6752776;-0.35000
6755554;-0.35500
6758331;-0.37500
6761109;-0.36500
6763887;-0.37000
6766665;-0.37000
6769443;-0.35000
6772220;-0.36000
6774998;-0.37500
6777776;-0.38000
6780554;-0.38500
6783331;-0.37500
6786109;-0.37000
6788887;-0.36500
6791665;-0.38500
6794443;-0.39500
6797220;-0.40000
6799998;-0.39500
6802776;-0.37500
6805554;-0.38000
6808331;-0.37500
6811109;-0.38500
6813887;-0.38000
6816665;-0.38000
6819443;-0.38500
6822220;-0.39500
6824998;-0.40000
6827776;-0.39500
6830554;-0.40500
6833331;-0.39000
6836109;-0.39000
6838887;-0.41000
6841665;-0.42000
6844443;-0.41000
6847220;-0.42500
6849998;-0.41000
6852776;-0.40500
6855554;-0.40500
6858331;-0.41000
6861109;-0.41500
6863887;-0.42000
6866665;-0.40500
6869443;-0.39500
6872220;-0.40500
6874998;-0.41500
6877776;-0.42000
6880554;-0.42500
6883331;-0.41000
6886109;-0.39500
6888887;-0.39500
6891665;-0.39500
6894443;-0.40500
6897220;-0.41000
6899998;-0.41500
6902776;-0.42500
6905554;-0.42000
6908331;-0.43000
6911109;-0.43000
6913887;-0.43500
6916665;-0.42500
6919443;-0.42500
6922220;-0.42000
6924998;-0.41500
6927776;-0.41500
6930554;-0.42000
6933331;-0.41500
6936109;-0.40500
6938887;-0.41000
6941665;-0.40500
6944442;-0.41500
6947220;-0.41000
6949998;-0.39500
6952776;-0.39500
6955554;-0.40000
6958331;-0.40500
6961109;-0.41000
6963887;-0.41500
6966665;-0.40000
6969442;-0.39500
6972220;-0.38500
6974998;-0.38000
6977776;-0.38500
6980554;-0.39500
6983331;-0.37000
6986109;-0.36500
6988887;-0.37000
6991665;-0.36000
6994442;-0.36000
6997220;-0.36000
6999998;-0.33500
7002776;-0.31000
7005554;-0.30500
7008331;-0.31000
7011109;-0.30000
7013887;-0.31500
7016665;-0.29500
7019442;-0.31000
7022220;-0.31000
7024998;-0.32500
7027776;-0.33000
7030554;-0.31500
7033331;-0.30500
7036109;-0.30500
7038887;-0.31000
7041665;-0.30500
7044442;-0.31500
7047220;-0.33000
7049998;-0.34000
7052776;-0.33000
7055554;-0.34500
7058331;-0.35500
7061109;-0.36500
7063887;-0.38000
7066665;-0.38000
7069442;-0.39000
7072220;-0.41000
7074998;-0.43000
7077776;-0.44000
7080554;-0.45000
7083331;-0.45500
7086109;-0.44000
7088887;-0.44500
7091665;-0.44000
7094442;-0.45500
7097220;-0.45000
7099998;-0.44000
7102776;-0.43500
7105554;-0.43000
7108331;-0.44000
7111109;-0.46000
7113887;-0.44500
7116665;-0.44500
7119442;-0.44000
7122220;-0.45500
7124998;-0.46000
7127776;-0.48000
7130554;-0.47000
7133331;-0.47000
7136109;-0.46000
7138887;-0.46500
7141665;-0.49500
7144442;-0.55000
7147220;-0.56500
7149998;-0.59000
7152776;-0.62500
7155554;-0.66000
7158331;-0.66000
7161109;-0.58000
7163887;-0.43000
7166665;-0.28500
7169442;-0.11000
7172220;0.11500
7174998;0.37500
7177776;0.58500
7180554;0.74000
7183331;0.78000
7186109;0.64500
7188887;0.32500
7191665;-0.07000
7194442;-0.39500
7197220;-0.56500
7199998;-0.59500
7202776;-0.57000
7205554;-0.54500
7208331;-0.53000
7211109;-0.52000
7213887;-0.52000
7216665;-0.52000
7219442;-0.50500
7222220;-0.49500
7224998;-0.50000
7227776;-0.50000
7230554;-0.50000
7233331;-0.49000
7236109;-0.48000
7238887;-0.50000
7241665;-0.49500
7244442;-0.50500
7247220;-0.52000
7249998;-0.50000
7252776;-0.50000
7255554;-0.49500
7258331;-0.50000
7261109;-0.50500
7263887;-0.52000
7266665;-0.51000
7269442;-0.50500
7272220;-0.49500
7274998;-0.51000
7277776;-0.51500
7280554;-0.52000
7283331;-0.51500
7286109;-0.51500
7288887;-0.51000
7291665;-0.52000
7294442;-0.52000
7297220;-0.51500
7299998;-0.50500
7302776;-0.48500
7305554;-0.49500
7308331;-0.50000
7311109;-0.50000
7313887;-0.52000
7316665;-0.50000
7319442;-0.50000
7322220;-0.50500
7324998;-0.51000
7327776;-0.51000
7330554;-0.51000
7333331;-0.50500
7336109;-0.50000
7338887;-0.50000
7341665;-0.51500
7344442;-0.52000
7347220;-0.51500
7349998;-0.50500
7352776;-0.49500
7355553;-0.49000
7358331;-0.49000
7361109;-0.50000
7363887;-0.50500
7366665;-0.49000
7369442;-0.48500
7372220;-0.48000
7374998;-0.48000
7377776;-0.49500
7380553;-0.51000
7383331;-0.50500
7386109;-0.49000
7388887;-0.50000
7391665;-0.51000
7394442;-0.51500
7397220;-0.51500
7399998;-0.51500
7402776;-0.50500
7405553;-0.50500
7408331;-0.51500
7411109;-0.52500
7413887;-0.53500
7416665;-0.53000
7419442;-0.52000
7422220;-0.53500
7424998;-0.54000
7427776;-0.55000
7430553;-0.54000
7433331;-0.54000
7436109;-0.53500
7438887;-0.51500
7441665;-0.53500
7444442;-0.54500
7447220;-0.54500
7449998;-0.53000
7452776;-0.52000
7455553;-0.51500
7458331;-0.51500
7461109;-0.53500
7463887;-0.52000
7466665;-0.51000
7469442;-0.48000
7472220;-0.48500
7474998;-0.47000
7477776;-0.46500
7480553;-0.45000
7483331;-0.42500
7486109;-0.41500
7488887;-0.39000
7491665;-0.39000
7494442;-0.39000
7497220;-0.38000
7499998;-0.36500
7502776;-0.34500
7505553;-0.34500
7508331;-0.35000
7511109;-0.35000
7513887;-0.35000
7516665;-0.34000
7519442;-0.33500
7522220;-0.33000
7524998;-0.34000
7527776;-0.35500
7530553;-0.34500
7533331;-0.33500
7536109;-0.33500
7538887;-0.34000
7541665;-0.33000
7544442;-0.34000
7547220;-0.35000
7549998;-0.34500
7552776;-0.33000
7555553;-0.33000
7558331;-0.34000
7561109;-0.34500
7563887;-0.35000
7566665;-0.33000
7569442;-0.33000
7572220;-0.32500
7574998;-0.34000
7577776;-0.35000
7580553;-0.35500
7583331;-0.32500
7586109;-0.33500
7588887;-0.32000
7591665;-0.33000
7594442;-0.34500
7597220;-0.34500
7599998;-0.34000
7602776;-0.33000
7605553;-0.33500
7608331;-0.36500
7611109;-0.37000
7613887;-0.36500
7616665;-0.36000
7619442;-0.35000
7622220;-0.35500
7624998;-0.36000
7627776;-0.37500
7630553;-0.37000
7633331;-0.37000
7636109;-0.35500
7638887;-0.36500
7641665;-0.37000
7644442;-0.39500
7647220;-0.39000
7649998;-0.37500
7652776;-0.36000
7655553;-0.36000
7658331;-0.36000
7661109;-0.36500
7663887;-0.37500
7666665;-0.36000
7669442;-0.35500
7672220;-0.35000
7674998;-0.36000
7677776;-0.36500
7680553;-0.37000
7683331;-0.36000
7686109;-0.34500
7688887;-0.35500
7691665;-0.36500
7694442;-0.36500
7697220;-0.38000
7699998;-0.37000
7702776;-0.36500
7705553;-0.36000
7708331;-0.37000
7711109;-0.37000
7713887;-0.37000
7716665;-0.36000
7719442;-0.36000
7722220;-0.36000
7724998;-0.36500
7727776;-0.37500
7730553;-0.38000
7733331;-0.36000
7736109;-0.36000
7738887;-0.35500
7741664;-0.36000
7744442;-0.36000
7747220;-0.36000
7749998;-0.35500
7752776;-0.33500
7755553;-0.34000
7758331;-0.33000
7761109;-0.32500
7763887;-0.32500
7766664;-0.30000
7769442;-0.29500
7772220;-0.29500
7774998;-0.29500
7777776;-0.28500
7780553;-0.29500
7783331;-0.27000
7786109;-0.27000
7788887;-0.27000
7791664;-0.25000
7794442;-0.25500
7797220;-0.26000
7799998;-0.27000
7802776;-0.24500
7805553;-0.25500
7808331;-0.27000
7811109;-0.26500
7813887;-0.26000
7816664;-0.24000
7819442;-0.24500
7822220;-0.23000
7824998;-0.23500
7827776;-0.22000
7830553;-0.21500
7833331;-0.23500
7836109;-0.26500
7838887;-0.28000
7841664;-0.30500
7844442;-0.31000
7847220;-0.31000
7849998;-0.30000
7852776;-0.30500
7855553;-0.33000
7858331;-0.35500
7861109;-0.36500
7863887;-0.37500
7866664;-0.37500
7869442;-0.37500
7872220;-0.37000
7874998;-0.36000
7877776;-0.38500
7880553;-0.39000
7883331;-0.39500
7886109;-0.39000
7888887;-0.38000
7891664;-0.38500
7894442;-0.39500
7897220;-0.40000
7899998;-0.38500
7902776;-0.38000
7905553;-0.38000
7908331;-0.39000
7911109;-0.39500
7913887;-0.40000
7916664;-0.39000
7919442;-0.39000
7922220;-0.38500
7924998;-0.40000
7927776;-0.42000
7930553;-0.45500
7933331;-0.48000
7936109;-0.50500
7938887;-0.51500
7941664;-0.55000
7944442;-0.60500
7947220;-0.60500
7949998;-0.52500
7952776;-0.41000
7955553;-0.27000
7958331;-0.11500
7961109;0.07000
7963887;0.33000
7966664;0.59500
7969442;0.78500
7972220;0.89500
7974998;0.89500
7977776;0.71500
7980553;0.36500
7983331;-0.04500
7986109;-0.35000
7988887;-0.51500
7991664;-0.54000
7994442;-0.50500
7997220;-0.45500
7999998;-0.43000
8002776;-0.42000
8005553;-0.42500
8008331;-0.44500
8011109;-0.44500
8013887;-0.44000
8016664;-0.43500
8019442;-0.43000
8022220;-0.43500
8024998;-0.45000
8027776;-0.45000
8030553;-0.46500
8033331;-0.46000
8036109;-0.45000
8038887;-0.46000
8041664;-0.46500
8044442;-0.45500
8047220;-0.46000
8049998;-0.46000
8052776;-0.44000
8055553;-0.43500
8058331;-0.46000
8061109;-0.45500
8063887;-0.44500
8066664;-0.44500
8069442;-0.43500
8072220;-0.44500
8074998;-0.45000
8077776;-0.45000
8080553;-0.45500
8083331;-0.44500
8086109;-0.43500
8088887;-0.43500
8091664;-0.43500
8094442;-0.44500
8097220;-0.46500
8099998;-0.45500
8102776;-0.44000
8105553;-0.44000
8108331;-0.45500
8111109;-0.45500
8113887;-0.47000
8116664;-0.45000
8119442;-0.45500
8122220;-0.46000
8124998;-0.46000
8127776;-0.47000
8130553;-0.46500
8133331;-0.45000
8136109;-0.44000
8138887;-0.44500
8141664;-0.45000
8144442;-0.46000
8147220;-0.46500
8149998;-0.45000
8152775;-0.45500
8155553;-0.45000
8158331;-0.45000
8161109;-0.46500
8163887;-0.46500
8166664;-0.45500
8169442;-0.45000
8172220;-0.45000
8174998;-0.47000
8177775;-0.47000
8180553;-0.46500
8183331;-0.46000
8186109;-0.45000
8188887;-0.46000
8191664;-0.45500
8194442;-0.46000
8197220;-0.46500
8199998;-0.47000
8202775;-0.46000
8205553;-0.45500
8208331;-0.47000
8211109;-0.47500
8213887;-0.48000
8216664;-0.45500
8219442;-0.45500
8222220;-0.45500
8224998;-0.46000
8227775;-0.46500
8230553;-0.47500
8233331;-0.46500
8236109;-0.46000
8238887;-0.46000
8241664;-0.47500
8244442;-0.48000
8247220;-0.48500
8249998;-0.47000
8252775;-0.46000
8255553;-0.45500
8258331;-0.46000
8261109;-0.47500
8263887;-0.45500
8266664;-0.43500
8269442;-0.42000
8272220;-0.41000
8274998;-0.40500
8277775;-0.40000
8280553;-0.39500
8283331;-0.37500
8286109;-0.35000
8288887;-0.35000
8291664;-0.35000
8294442;-0.35000
8297220;-0.35000
8299998;-0.34000
8302775;-0.32000
8305553;-0.32000
8308331;-0.32500
8311109;-0.32500
8313887;-0.34000
8316664;-0.33000
8319442;-0.31500
8322220;-0.32500
8324998;-0.32500
8327775;-0.33500
8330553;-0.33000
8333331;-0.32500
8336109;-0.31000
8338887;-0.31500
8341664;-0.34000
8344442;-0.34000
8347220;-0.33000
8349998;-0.32500
8352775;-0.32000
8355553;-0.31500
8358331;-0.32500
8361109;-0.33000
8363887;-0.33000
8366664;-0.33000
8369442;-0.31000
8372220;-0.31500
8374998;-0.31500
8377775;-0.33000
8380553;-0.34000
8383331;-0.33500
8386109;-0.32000
8388887;-0.32500
8391664;-0.34000
8394442;-0.34500
8397220;-0.35000
8399998;-0.33500
8402775;-0.33000
8405553;-0.33500
8408331;-0.35000
8411109;-0.36500
8413887;-0.36000
8416664;-0.35000
8419442;-0.35500
8422220;-0.35500
8424998;-0.36000
8427775;-0.36500
8430553;-0.37500
8433331;-0.37000
8436109;-0.36000
8438887;-0.36000
8441664;-0.37000
8444442;-0.37000
8447220;-0.36000
8449998;-0.36000
8452775;-0.35500
8455553;-0.35500
8458331;-0.36000
8461109;-0.37500
8463887;-0.37500
8466664;-0.37500
8469442;-0.36000
8472220;-0.36500
8474998;-0.37500
8477775;-0.37500
8480553;-0.39000
8483331;-0.37500
8486109;-0.36500
8488887;-0.38000
8491664;-0.38000
8494442;-0.38000
8497220;-0.39000
8499998;-0.36000
8502775;-0.35500
8505553;-0.35000
8508331;-0.36500
8511109;-0.36000
8513887;-0.37500
8516664;-0.37000
8519442;-0.36500
8522220;-0.35500
8524998;-0.37000
8527775;-0.37500
8530553;-0.37000
8533331;-0.36500
8536109;-0.35500
8538886;-0.35500
8541664;-0.35000
8544442;-0.35500
8547220;-0.36500
8549998;-0.36000
8552775;-0.34000
8555553;-0.32500
8558331;-0.32500
8561109;-0.33000
8563886;-0.31500
8566664;-0.31500
8569442;-0.31000
8572220;-0.30000
8574998;-0.30000
8577775;-0.31000
8580553;-0.29000
8583331;-0.27500
8586109;-0.25500
8588886;-0.25000
8591664;-0.24500
8594442;-0.25500
8597220;-0.24500
8599998;-0.24000
8602775;-0.23000
8605553;-0.25000
8608331;-0.25500
8611109;-0.27500
8613886;-0.27000
8616664;-0.26000
8619442;-0.25500
8622220;-0.24500
8624998;-0.23000
8627775;-0.22500
8630553;-0.26500
8633331;-0.28500
8636109;-0.30000
8638886;-0.31000
8641664;-0.32000
8644442;-0.35500
8647220;-0.35500
8649998;-0.35500
8652775;-0.35500
8655553;-0.37000
8658331;-0.37500
8661109;-0.37500
8663886;-0.37500
8666664;-0.37000
8669442;-0.36500
8672220;-0.37500
8674998;-0.38500
8677775;-0.40500
8680553;-0.41500
8683331;-0.39500
8686109;-0.39000
8688886;-0.39000
8691664;-0.40500
8694442;-0.40500
8697220;-0.41500
8699998;-0.40000
8702775;-0.39000
8705553;-0.39500
8708331;-0.40500
8711109;-0.41500
8713886;-0.41000
8716664;-0.42000
8719442;-0.43500
8722220;-0.47000
8724998;-0.50000
8727775;-0.53000
8730553;-0.55500
8733331;-0.58500
8736109;-0.58500
8738886;-0.51500
8741664;-0.40000
8744442;-0.26000
8747220;-0.09500
8749998;0.10500
8752775;0.36000
8755553;0.61500
8758331;0.80500
8761109;0.92000
8763886;0.95500
8766664;0.88500
8769442;0.68500
8772220;0.39500
8774998;0.09000
8777775;-0.16000
8780553;-0.35500
8783331;-0.50000
8786109;-0.58500
8788886;-0.62500
8791664;-0.62500
8794442;-0.61000
8797220;-0.57500
8799998;-0.52000
8802775;-0.48000
8805553;-0.46500
8808331;-0.46500
8811109;-0.48000
8813886;-0.48500
8816664;-0.46500
8819442;-0.46500
8822220;-0.45500
8824998;-0.47000
8827775;-0.47000
8830553;-0.48000
8833331;-0.47000
8836109;-0.46000
8838886;-0.46500
8841664;-0.46500
8844442;-0.47500
8847220;-0.48000
8849998;-0.48000
8852775;-0.46500
8855553;-0.46500
8858331;-0.47000
8861109;-0.48000
8863886;-0.48500
8866664;-0.48000
8869442;-0.47000
8872220;-0.47000
8874998;-0.48500
8877775;-0.49000
8880553;-0.48500
8883331;-0.47500
8886109;-0.47000
8888886;-0.47500
8891664;-0.47500
8894442;-0.48000
8897220;-0.48500
8899998;-0.46000
8902775;-0.45500
8905553;-0.45500
8908331;-0.47000
8911109;-0.47000
8913886;-0.46500
8916664;-0.46000
8919442;-0.46000
8922220;-0.46500
8924998;-0.47500
8927775;-0.48000
8930553;-0.47000
8933331;-0.47500
8936109;-0.45500
8938886;-0.46000
8941664;-0.47500
8944442;-0.47500
8947220;-0.48500
8949997;-0.47000
8952775;-0.45500
8955553;-0.45000
8958331;-0.45500
8961109;-0.47000
8963886;-0.47000
8966664;-0.46500
8969442;-0.46500
8972220;-0.46000
8974997;-0.46000
8977775;-0.48500
8980553;-0.47500
8983331;-0.47500
8986109;-0.47500
8988886;-0.47000
8991664;-0.47500
8994442;-0.48500
8997220;-0.48500
8999997;-0.47000
9002775;-0.45500
9005553;-0.47000
9008331;-0.48000
9011109;-0.49000
9013886;-0.48000
9016664;-0.47000
9019442;-0.46500
9022220;-0.45500
9024997;-0.46500
9027775;-0.48000
9030553;-0.49000
9033331;-0.47500
9036109;-0.47500
9038886;-0.46500
9041664;-0.47500
9044442;-0.49500
9047220;-0.49000
9049997;-0.47500
9052775;-0.47000
9055553;-0.47500
9058331;-0.48000
9061109;-0.47500
9063886;-0.48000
9066664;-0.47000
9069442;-0.45500
9072220;-0.44500
9074997;-0.45500
9077775;-0.45000
9080553;-0.45000
9083331;-0.42500
9086109;-0.42500
9088886;-0.41000
9091664;-0.39000
9094442;-0.40000
9097220;-0.38500
9099997;-0.37000
9102775;-0.35500
9105553;-0.34500
9108331;-0.35000
9111109;-0.35000
9113886;-0.35000
9116664;-0.33000
9119442;-0.34000
9122220;-0.33500
9124997;-0.34500
9127775;-0.35500
9130553;-0.35000
9133331;-0.34500
9136109;-0.33500
9138886;-0.33500
9141664;-0.32500
9144442;-0.35500
9147220;-0.35500
9149997;-0.34500
9152775;-0.33500
9155553;-0.34000
9158331;-0.34500
9161109;-0.34500
9163886;-0.36000
9166664;-0.35000
9169442;-0.34000
9172220;-0.34000
9174997;-0.33500
9177775;-0.35500
9180553;-0.35500
9183331;-0.34500
9186109;-0.34000
9188886;-0.33500
9191664;-0.35000
9194442;-0.36000
9197220;-0.36000
9199997;-0.36000
9202775;-0.35500
9205553;-0.35500
9208331;-0.36500
9211109;-0.38000
9213886;-0.37500
9216664;-0.36500
9219442;-0.36500
9222220;-0.36000
9224997;-0.37500
9227775;-0.38500
9230553;-0.38500
9233331;-0.38500
9236109;-0.38000
9238886;-0.38000
9241664;-0.39000
9244442;-0.40000
9247220;-0.41000
9249997;-0.39500
9252775;-0.38500
9255553;-0.39000
9258331;-0.39000
9261109;-0.39500
9263886;-0.39000
9266664;-0.39500
9269442;-0.38000
9272220;-0.38500
9274997;-0.40000
9277775;-0.39000
9280553;-0.40000
9283331;-0.38500
9286109;-0.39500
9288886;-0.39500
9291664;-0.40500
9294442;-0.41500
9297220;-0.40000
9299997;-0.40000
9302775;-0.39000
9305553;-0.39000
9308331;-0.40000
9311109;-0.41000
9313886;-0.42000
9316664;-0.41000
9319442;-0.40000
9322220;-0.40500
9324997;-0.40000
9327775;-0.40500
9330553;-0.41500
9333331;-0.40500
9336108;-0.39000
9338886;-0.38000
9341664;-0.39000
9344442;-0.39000
9347220;-0.40000
9349997;-0.38500
9352775;-0.38000
9355553;-0.37000
9358331;-0.37500
9361108;-0.38000
9363886;-0.39000
9366664;-0.39000
9369442;-0.37000
9372220;-0.36500
9374997;-0.36500
9377775;-0.36000
9380553;-0.34500
9383331;-0.33000
9386108;-0.31500
9388886;-0.31000
9391664;-0.31000
9394442;-0.31000
9397220;-0.32000
9399997;-0.31500
9402775;-0.29000
9405553;-0.29500
9408331;-0.28000
9411108;-0.29000
9413886;-0.28000
9416664;-0.26500
9419442;-0.26000
9422220;-0.26500
9424997;-0.27500
9427775;-0.29500
9430553;-0.30000
9433331;-0.27500
9436108;-0.25000
9438886;-0.25500
9441664;-0.26000
9444442;-0.27000
9447220;-0.24500
9449997;-0.23500
9452775;-0.24500
9455553;-0.27500
9458331;-0.32000
9461108;-0.32000
9463886;-0.35500
9466664;-0.35000
9469442;-0.35500
9472220;-0.36000
9474997;-0.37000
9477775;-0.38000
9480553;-0.39000
9483331;-0.38500
9486108;-0.38000
9488886;-0.38500
9491664;-0.39000
9494442;-0.40000
9497220;-0.40500
9499997;-0.40000
9502775;-0.40500
9505553;-0.40000
9508331;-0.40500
9511108;-0.42500
9513886;-0.43000
9516664;-0.43000
9519442;-0.41500
9522220;-0.42500
9524997;-0.42500
9527775;-0.43500
9530553;-0.43000
9533331;-0.42500
9536108;-0.41500
9538886;-0.41500
9541664;-0.42000
9544442;-0.43500
9547220;-0.44000
9549997;-0.44000
9552775;-0.45000
9555553;-0.46000
9558331;-0.49500
9561108;-0.53500
9563886;-0.55000
9566664;-0.57500
9569442;-0.61500
9572220;-0.62500
9574997;-0.59500
9577775;-0.49500
9580553;-0.37000
9583331;-0.22500
9586108;-0.04000
9588886;0.19500
9591664;0.43500
9594442;0.61500
9597220;0.74000
9599997;0.78000
9602775;0.66000
9605553;0.39000
9608331;0.03000
9611108;-0.30500
9613886;-0.51500
9616664;-0.57500
9619442;-0.55000
9622220;-0.50000
9624997;-0.47500
9627775;-0.48000
9630553;-0.49500
9633331;-0.48000
9636108;-0.47500
9638886;-0.47500
9641664;-0.48500
9644442;-0.49500
9647220;-0.49000
9649997;-0.48500
9652775;-0.47500
9655553;-0.48000
9658331;-0.49000
9661108;-0.49500
9663886;-0.50500
9666664;-0.48500
9669442;-0.48500
9672220;-0.48500
9674997;-0.48500
9677775;-0.50000
9680553;-0.49000
9683331;-0.48500
9686108;-0.47500
9688886;-0.48000
9691664;-0.48500
9694442;-0.48000
9697220;-0.49500
9699997;-0.50000
9702775;-0.48000
9705553;-0.47500
9708331;-0.48500
9711108;-0.49500
9713886;-0.50500
9716664;-0.48500
9719442;-0.48000
9722220;-0.48500
9724997;-0.49000
9727775;-0.49000
9730553;-0.50500
9733331;-0.49500
9736108;-0.47500
9738886;-0.47500
9741664;-0.48000
9744442;-0.49000
9747219;-0.49500
9749997;-0.48500
9752775;-0.48500
9755553;-0.47000
9758331;-0.47500
9761108;-0.48500
9763886;-0.48500
9766664;-0.48000
9769442;-0.47500
9772219;-0.49000
9774997;-0.49500
9777775;-0.50500
9780553;-0.51000
9783331;-0.49000
9786108;-0.48000
9788886;-0.48500
9791664;-0.49000
9794442;-0.50500
9797219;-0.51000
9799997;-0.49500
9802775;-0.48500
9805553;-0.49000
9808331;-0.48500
9811108;-0.49500
9813886;-0.50500
9816664;-0.49500
9819442;-0.49500
9822219;-0.49500
9824997;-0.50000
9827775;-0.50000
9830553;-0.51000
9833331;-0.50500
9836108;-0.50500
9838886;-0.49500
9841664;-0.50000
9844442;-0.52000
9847219;-0.52500
9849997;-0.51500
9852775;-0.52500
9855553;-0.51000
9858331;-0.52000
9861108;-0.52000
9863886;-0.53000
9866664;-0.52500
9869442;-0.52000
