time_ms;ecg_value
0;-0.52000
2778;-0.54500
5556;-0.58000
8333;-0.63500
11111;-0.61500
13889;-0.54500
16667;-0.41000
19444;-0.26500
22222;-0.09500
25000;0.14000
27778;0.44000
30556;0.70500
33333;0.85500
36111;0.88000
38889;0.72000
41667;0.37500
44444;-0.03500
47222;-0.35500
50000;-0.53500
52778;-0.61500
55556;-0.63000
58333;-0.60000
61111;-0.55000
63889;-0.49000
66667;-0.46500
69444;-0.46500
72222;-0.48500
75000;-0.49000
77778;-0.48000
80556;-0.48000
83333;-0.47500
86111;-0.47000
88889;-0.47500
91667;-0.49000
94444;-0.49000
97222;-0.48500
100000;-0.47500
102778;-0.48500
105556;-0.49000
108333;-0.50500
111111;-0.49500
113889;-0.48000
116667;-0.48500
119444;-0.48000
122222;-0.48000
125000;-0.50000
127778;-0.47000
130556;-0.47500
133333;-0.47000
136111;-0.46500
138889;-0.47500
141667;-0.48500
144444;-0.47500
147222;-0.47500
150000;-0.46500
152778;-0.48500
155556;-0.47500
158333;-0.49500
161111;-0.49000
163889;-0.48000
166667;-0.48000
169444;-0.48000
172222;-0.48500
175000;-0.48500
177778;-0.48000
180556;-0.47000
183333;-0.46500
186111;-0.47500
188889;-0.48000
191667;-0.49500
194444;-0.49000
197222;-0.47500
200000;-0.46500
202778;-0.46000
205555;-0.46500
208333;-0.47500
211111;-0.47500
213889;-0.46500
216667;-0.46000
219444;-0.45500
222222;-0.45000
225000;-0.46000
227778;-0.45500
230555;-0.45000
233333;-0.45500
236111;-0.45500
238889;-0.46000
241667;-0.48000
244444;-0.47500
247222;-0.46500
250000;-0.45500
252778;-0.47000
255555;-0.45500
258333;-0.48500
261111;-0.48000
263889;-0.47000
266667;-0.45000
269444;-0.45500
272222;-0.47000
275000;-0.48000
277778;-0.48000
280555;-0.46500
283333;-0.46500
286111;-0.46500
288889;-0.48000
291667;-0.48500
294444;-0.48000
297222;-0.46000
300000;-0.45500
302778;-0.45500
305555;-0.45500
308333;-0.47500
311111;-0.46500
313889;-0.45000
316667;-0.43500
319444;-0.43500
322222;-0.44500
325000;-0.42500
327778;-0.43000
330555;-0.40000
333333;-0.38000
336111;-0.37000
338889;-0.37500
341667;-0.38000
344444;-0.35500
347222;-0.35500
350000;-0.35000
352778;-0.34500
355555;-0.35000
358333;-0.36500
361111;-0.35500
363889;-0.35500
366667;-0.34500
369444;-0.35000
372222;-0.35500
375000;-0.37000
377778;-0.36500
380555;-0.36000
383333;-0.35500
386111;-0.35000
388889;-0.35500
391667;-0.36000
394444;-0.36000
397222;-0.35500
400000;-0.35000
402778;-0.35000
405555;-0.36000
408333;-0.36000
411111;-0.36500
413889;-0.35500
416667;-0.35000
419444;-0.35500
422222;-0.35000
425000;-0.36000
427778;-0.35000
430555;-0.35000
433333;-0.34000
436111;-0.34500
438889;-0.35500
441667;-0.37000
444444;-0.36500
447222;-0.36500
450000;-0.36000
452778;-0.37000
455555;-0.36500
458333;-0.38000
461111;-0.38000
463889;-0.36500
466667;-0.36500
469444;-0.37500
472222;-0.38500
475000;-0.38000
477778;-0.38500
480555;-0.39500
483333;-0.37500
486111;-0.38000
488889;-0.38500
491667;-0.38500
494444;-0.38500
497222;-0.37500
500000;-0.37000
502778;-0.37000
505555;-0.39000
508333;-0.38500
511111;-0.38000
513889;-0.37000
516667;-0.36500
519444;-0.37000
522222;-0.37500
525000;-0.39500
527778;-0.38500
530555;-0.37500
533333;-0.38000
536111;-0.38000
538889;-0.39000
541667;-0.40000
544444;-0.39500
547222;-0.38500
550000;-0.37000
552778;-0.38500
555555;-0.38000
558333;-0.38500
561111;-0.37500
563889;-0.37000
566667;-0.36000
569444;-0.35000
572222;-0.36000
575000;-0.37000
577778;-0.36500
580555;-0.35500
583333;-0.34500
586111;-0.32500
588889;-0.33000
591667;-0.32500
594444;-0.32000
597222;-0.30000
600000;-0.28000
602778;-0.28500
605555;-0.30000
608333;-0.29000
611111;-0.29000
613889;-0.26000
616666;-0.25500
619444;-0.25000
622222;-0.24500
625000;-0.25500
627778;-0.25000
630555;-0.24000
633333;-0.24500
636111;-0.25000
638889;-0.25000
641666;-0.25000
644444;-0.25000
647222;-0.24500
650000;-0.23500
652778;-0.23000
655555;-0.22500
658333;-0.21500
661111;-0.22000
663889;-0.26500
666666;-0.27500
669444;-0.30500
672222;-0.32000
675000;-0.35000
677778;-0.36000
680555;-0.36500
683333;-0.36000
686111;-0.37000
688889;-0.38500
691666;-0.38500
694444;-0.38000
697222;-0.38000
700000;-0.36500
702778;-0.39000
705555;-0.39500
708333;-0.41000
711111;-0.41000
713889;-0.40500
716666;-0.39500
719444;-0.41000
722222;-0.41000
725000;-0.41500
727778;-0.41500
730555;-0.41000
733333;-0.39500
736111;-0.40500
738889;-0.41500
741666;-0.43000
744444;-0.42500
747222;-0.43500
750000;-0.46500
752778;-0.50000
755555;-0.51500
758333;-0.51000
761111;-0.51000
763889;-0.54000
766666;-0.59500
769444;-0.61500
772222;-0.59500
775000;-0.50000
777778;-0.36500
780555;-0.21000
783333;0.00000
786111;0.28500
788889;0.55500
791666;0.71500
794444;0.77500
797222;0.66000
800000;0.35000
802778;-0.07000
805555;-0.41000
808333;-0.59000
811111;-0.60500
813889;-0.53000
816666;-0.47000
819444;-0.43500
822222;-0.45500
825000;-0.47500
827778;-0.46500
830555;-0.45000
833333;-0.44000
836111;-0.44500
838889;-0.46500
841666;-0.47000
844444;-0.47000
847222;-0.45000
850000;-0.43500
852778;-0.44500
855555;-0.44500
858333;-0.46500
861111;-0.46500
863889;-0.44500
866666;-0.43500
869444;-0.43500
872222;-0.45000
875000;-0.45500
877778;-0.46500
880555;-0.45500
883333;-0.45000
886111;-0.45500
888889;-0.46500
891666;-0.48500
894444;-0.46000
897222;-0.45000
900000;-0.45500
902778;-0.44500
905555;-0.45000
908333;-0.46500
911111;-0.45000
913889;-0.45000
916666;-0.43500
919444;-0.43000
922222;-0.44500
925000;-0.46500
927778;-0.46000
930555;-0.45500
933333;-0.45500
936111;-0.46000
938889;-0.46000
941666;-0.47500
944444;-0.44500
947222;-0.44500
950000;-0.43000
952778;-0.43000
955555;-0.43000
958333;-0.45500
961111;-0.44500
963889;-0.44500
966666;-0.43500
969444;-0.46000
972222;-0.45000
975000;-0.45500
977778;-0.46500
980555;-0.46000
983333;-0.43500
986111;-0.44500
988889;-0.44500
991666;-0.45500
994444;-0.44500
997222;-0.43000
1000000;-0.43000
1002777;-0.42500
1005555;-0.44500
1008333;-0.46000
1011111;-0.46000
1013889;-0.46000
1016666;-0.44000
1019444;-0.43000
1022222;-0.44000
1025000;-0.45000
1027777;-0.46000
1030555;-0.44000
1033333;-0.44000
1036111;-0.44500
1038889;-0.46000
1041666;-0.46500
1044444;-0.44500
1047222;-0.43000
1050000;-0.43000
1052777;-0.41500
1055555;-0.43000
1058333;-0.44500
1061111;-0.45000
1063889;-0.42000
1066666;-0.40000
1069444;-0.39500
1072222;-0.39000
1075000;-0.39500
1077777;-0.40500
1080555;-0.38000
1083333;-0.37000
1086111;-0.35000
1088889;-0.35500
1091666;-0.36000
1094444;-0.36500
1097222;-0.33000
1100000;-0.33500
1102777;-0.34500
1105555;-0.34500
1108333;-0.35000
1111111;-0.34500
1113889;-0.32500
1116666;-0.32500
1119444;-0.32000
1122222;-0.32500
1125000;-0.33500
1127777;-0.33000
1130555;-0.31500
1133333;-0.32000
1136111;-0.32500
1138889;-0.33500
1141666;-0.34500
1144444;-0.33000
1147222;-0.33000
1150000;-0.32500
1152777;-0.32000
1155555;-0.34000
1158333;-0.34500
1161111;-0.34000
1163889;-0.33500
1166666;-0.33000
1169444;-0.33000
1172222;-0.34000
1175000;-0.34500
1177777;-0.34000
1180555;-0.33000
1183333;-0.32500
1186111;-0.32000
1188889;-0.34500
1191666;-0.34500
1194444;-0.34000
1197222;-0.33000
1200000;-0.32500
1202777;-0.33000
1205555;-0.34000
1208333;-0.36500
1211111;-0.36000
1213889;-0.35500
1216666;-0.35500
1219444;-0.34500
1222222;-0.35500
1225000;-0.37500
1227777;-0.38000
1230555;-0.36000
1233333;-0.36500
1236111;-0.37000
1238889;-0.37000
1241666;-0.38500
1244444;-0.38500
1247222;-0.37500
1250000;-0.36000
1252777;-0.36500
1255555;-0.37500
1258333;-0.37000
1261111;-0.37000
1263889;-0.37000
1266666;-0.36500
1269444;-0.36000
1272222;-0.37000
1275000;-0.38000
1277777;-0.37000
1280555;-0.37000
1283333;-0.36500
1286111;-0.35500
1288889;-0.36500
1291666;-0.38000
1294444;-0.37500
1297222;-0.37500
1300000;-0.37000
1302777;-0.36000
1305555;-0.36500
1308333;-0.39500
1311111;-0.38000
1313889;-0.37000
1316666;-0.35500
1319444;-0.36500
1322222;-0.37000
1325000;-0.38000
1327777;-0.35500
1330555;-0.34500
1333333;-0.34500
1336111;-0.33500
1338889;-0.33000
1341666;-0.34000
1344444;-0.33500
1347222;-0.31500
1350000;-0.29500
1352777;-0.28500
1355555;-0.28500
1358333;-0.30500
1361111;-0.29500
1363889;-0.29000
1366666;-0.26000
1369444;-0.25000
1372222;-0.26000
1375000;-0.24500
1377777;-0.25000
1380555;-0.23500
1383333;-0.24500
1386111;-0.25000
1388888;-0.26500
1391666;-0.26000
1394444;-0.25500
1397222;-0.24000
1400000;-0.24000
1402777;-0.23500
1405555;-0.23000
1408333;-0.22500
1411111;-0.24500
1413888;-0.27000
1416666;-0.29500
1419444;-0.30500
1422222;-0.31500
1425000;-0.33500
1427777;-0.36500
1430555;-0.36500
1433333;-0.38000
1436111;-0.38000
1438888;-0.36000
1441666;-0.36500
1444444;-0.37000
1447222;-0.36000
1450000;-0.35000
1452777;-0.35500
1455555;-0.37000
1458333;-0.38500
1461111;-0.40000
1463888;-0.39000
1466666;-0.39000
1469444;-0.39000
1472222;-0.39000
1475000;-0.40000
1477777;-0.39500
1480555;-0.38000
1483333;-0.38000
1486111;-0.38500
1488888;-0.40000
1491666;-0.41500
1494444;-0.40500
1497222;-0.40000
1500000;-0.40000
1502777;-0.40500
1505555;-0.42000
1508333;-0.46500
1511111;-0.49000
1513888;-0.50500
1516666;-0.52500
1519444;-0.58500
1522222;-0.59000
1525000;-0.54500
1527777;-0.40500
1530555;-0.27000
1533333;-0.06500
1536111;0.19000
1538888;0.46500
1541666;0.69000
1544444;0.80500
1547222;0.76500
1550000;0.53000
1552777;0.12500
1555555;-0.25500
1558333;-0.51500
1561111;-0.58500
1563888;-0.57000
1566666;-0.49000
1569444;-0.46000
1572222;-0.45500
1575000;-0.47000
1577777;-0.46000
1580555;-0.44000
1583333;-0.42000
1586111;-0.42000
1588888;-0.43500
1591666;-0.43500
1594444;-0.43000
1597222;-0.43000
1600000;-0.42000
1602777;-0.42500
1605555;-0.43000
1608333;-0.44000
1611111;-0.45000
1613888;-0.43000
1616666;-0.43500
1619444;-0.43500
1622222;-0.44000
1625000;-0.45500
1627777;-0.45500
1630555;-0.44500
1633333;-0.44000
1636111;-0.43500
1638888;-0.45000
1641666;-0.45000
1644444;-0.45500
1647222;-0.45500
1650000;-0.44000
1652777;-0.44000
1655555;-0.45000
1658333;-0.46000
1661111;-0.46000
1663888;-0.44500
1666666;-0.43000
1669444;-0.44000
1672222;-0.43500
1675000;-0.44500
1677777;-0.45500
1680555;-0.44500
1683333;-0.43500
1686111;-0.44000
1688888;-0.44000
1691666;-0.45500
1694444;-0.45500
1697222;-0.45000
1700000;-0.43500
1702777;-0.44500
1705555;-0.44500
1708333;-0.47000
1711111;-0.45500
1713888;-0.45000
1716666;-0.44000
1719444;-0.45000
1722222;-0.45000
1725000;-0.46000
1727777;-0.46500
1730555;-0.46000
1733333;-0.45000
1736111;-0.43000
1738888;-0.44000
1741666;-0.44000
1744444;-0.43500
1747222;-0.42500
1750000;-0.42000
1752777;-0.42000
1755555;-0.43000
1758333;-0.45500
1761111;-0.44500
1763888;-0.44000
1766666;-0.44000
1769444;-0.44500
1772222;-0.46000
1775000;-0.47000
1777777;-0.47000
1780555;-0.46500
1783333;-0.47000
1786111;-0.46000
1788888;-0.46500
1791666;-0.49000
1794444;-0.48500
1797222;-0.47500
1799999;-0.47000
1802777;-0.46500
1805555;-0.48500
1808333;-0.48500
1811111;-0.49500
1813888;-0.48000
1816666;-0.46000
1819444;-0.46000
1822222;-0.46500
1824999;-0.47000
1827777;-0.44500
1830555;-0.42000
1833333;-0.39500
1836111;-0.38000
1838888;-0.38500
1841666;-0.38500
1844444;-0.37500
1847222;-0.36500
1849999;-0.35000
1852777;-0.35000
1855555;-0.35000
1858333;-0.35000
1861111;-0.33500
1863888;-0.33000
1866666;-0.32000
1869444;-0.33000
1872222;-0.34000
1874999;-0.35500
1877777;-0.34000
1880555;-0.32500
1883333;-0.30500
1886111;-0.29500
1888888;-0.31000
1891666;-0.33000
1894444;-0.33500
1897222;-0.32500
1899999;-0.30500
1902777;-0.31000
1905555;-0.32000
1908333;-0.32500
1911111;-0.33500
1913888;-0.32500
1916666;-0.32000
1919444;-0.33000
1922222;-0.33000
1924999;-0.34000
1927777;-0.33500
1930555;-0.33500
1933333;-0.31500
1936111;-0.31500
1938888;-0.31500
1941666;-0.32500
1944444;-0.33000
1947222;-0.32500
1949999;-0.31500
1952777;-0.31500
1955555;-0.32500
1958333;-0.34000
1961111;-0.33500
1963888;-0.33500
1966666;-0.33000
1969444;-0.33000
1972222;-0.34000
1974999;-0.36000
1977777;-0.35500
1980555;-0.35000
1983333;-0.35000
1986111;-0.34500
1988888;-0.35500
1991666;-0.37000
1994444;-0.36000
1997222;-0.36000
1999999;-0.34500
2002777;-0.35500
2005555;-0.37000
2008333;-0.36500
2011111;-0.37000
2013888;-0.36000
2016666;-0.35500
2019444;-0.35500
2022222;-0.35500
2024999;-0.36500
2027777;-0.35500
2030555;-0.35000
2033333;-0.34500
2036111;-0.35500
2038888;-0.35000
2041666;-0.36500
2044444;-0.37000
2047222;-0.36000
2049999;-0.35000
2052777;-0.34500
2055555;-0.35000
2058333;-0.35000
2061111;-0.36000
2063888;-0.34500
2066666;-0.34500
2069444;-0.34000
2072222;-0.35500
2074999;-0.36000
2077777;-0.35000
2080555;-0.34000
2083333;-0.33500
2086111;-0.32500
2088888;-0.33500
2091666;-0.34500
2094444;-0.33000
2097222;-0.31500
2099999;-0.29500
2102777;-0.29000
2105555;-0.29500
2108333;-0.29000
2111111;-0.29000
2113888;-0.28000
2116666;-0.26500
2119444;-0.27000
2122222;-0.27000
2124999;-0.26500
2127777;-0.25000
2130555;-0.23500
2133333;-0.22500
2136111;-0.21500
2138888;-0.23500
2141666;-0.24500
2144444;-0.25000
2147222;-0.24000
2149999;-0.22500
2152777;-0.22500
2155555;-0.22500
2158333;-0.23000
2161111;-0.22000
2163888;-0.20000
2166666;-0.18000
2169444;-0.18500
2172222;-0.22500
2174999;-0.28000
2177777;-0.28500
2180555;-0.30000
2183333;-0.29500
2186110;-0.32000
2188888;-0.33500
2191666;-0.35000
2194444;-0.35000
2197222;-0.33500
2199999;-0.33500
2202777;-0.34000
2205555;-0.34500
2208333;-0.35000
2211110;-0.35000
2213888;-0.33500
2216666;-0.33500
2219444;-0.33500
2222222;-0.36000
2224999;-0.37000
2227777;-0.36500
2230555;-0.36500
2233333;-0.35500
2236110;-0.36000
2238888;-0.36000
2241666;-0.37500
2244444;-0.36000
2247222;-0.35500
2249999;-0.34000
2252777;-0.34500
2255555;-0.36000
2258333;-0.37000
2261110;-0.36500
2263888;-0.37000
2266666;-0.39000
2269444;-0.42500
2272222;-0.47000
2274999;-0.48500
2277777;-0.52000
2280555;-0.54500
2283333;-0.54500
2286110;-0.46500
2288888;-0.35000
2291666;-0.20500
2294444;-0.03000
2297222;0.23000
2299999;0.53000
2302777;0.76000
2305555;0.90000
2308333;0.88500
2311110;0.68000
2313888;0.30000
2316666;-0.09500
2319444;-0.37500
2322222;-0.50000
2324999;-0.51000
2327777;-0.45500
2330555;-0.43000
2333333;-0.39000
2336110;-0.39000
2338888;-0.40000
2341666;-0.40000
2344444;-0.40000
2347222;-0.39500
2349999;-0.37500
2352777;-0.38500
2355555;-0.39000
2358333;-0.40000
2361110;-0.40000
2363888;-0.40500
2366666;-0.39500
2369444;-0.38000
2372222;-0.39000
2374999;-0.39000
2377777;-0.38500
2380555;-0.38000
2383333;-0.36500
2386110;-0.36500
2388888;-0.37500
2391666;-0.38500
2394444;-0.37500
2397222;-0.38000
2399999;-0.36500
2402777;-0.36500
2405555;-0.37500
2408333;-0.39000
2411110;-0.38000
2413888;-0.37000
2416666;-0.36500
2419444;-0.37500
2422222;-0.37500
2424999;-0.39500
2427777;-0.38000
2430555;-0.37500
2433333;-0.36000
2436110;-0.37500
2438888;-0.36500
2441666;-0.38000
2444444;-0.37500
2447222;-0.36500
2449999;-0.36500
2452777;-0.36500
2455555;-0.38000
2458333;-0.39500
2461110;-0.38500
2463888;-0.37000
2466666;-0.37000
2469444;-0.35500
2472222;-0.37500
2474999;-0.39000
2477777;-0.39000
2480555;-0.37500
2483333;-0.37000
2486110;-0.37000
2488888;-0.37500
2491666;-0.38000
2494444;-0.40000
2497222;-0.38500
2499999;-0.39000
2502777;-0.38500
2505555;-0.38000
2508333;-0.39500
2511110;-0.39500
2513888;-0.38000
2516666;-0.37000
2519444;-0.38000
2522222;-0.39000
2524999;-0.41000
2527777;-0.40500
2530555;-0.40000
2533333;-0.39000
2536110;-0.39500
2538888;-0.41000
2541666;-0.40500
2544444;-0.40000
2547222;-0.39500
2549999;-0.38000
2552777;-0.38500
2555555;-0.40000
2558333;-0.39000
2561110;-0.40000
2563888;-0.39000
2566666;-0.39000
2569444;-0.39500
2572222;-0.40500
2574999;-0.41500
2577777;-0.40500
2580555;-0.40000
2583333;-0.38500
2586110;-0.37000
2588888;-0.36000
2591666;-0.37000
2594444;-0.34500
2597221;-0.33500
2599999;-0.31000
2602777;-0.30000
2605555;-0.30000
2608333;-0.30000
2611110;-0.29000
2613888;-0.27500
2616666;-0.26000
2619444;-0.26000
2622221;-0.26500
2624999;-0.25500
2627777;-0.25000
2630555;-0.23500
2633333;-0.23500
2636110;-0.24500
2638888;-0.24500
2641666;-0.25500
2644444;-0.26000
2647221;-0.24000
2649999;-0.22500
2652777;-0.22500
2655555;-0.24000
2658333;-0.24500
2661110;-0.24000
2663888;-0.23000
2666666;-0.22000
2669444;-0.23000
2672221;-0.24000
2674999;-0.25500
2677777;-0.24500
2680555;-0.24000
2683333;-0.22500
2686110;-0.23000
2688888;-0.24500
2691666;-0.25000
2694444;-0.25000
2697221;-0.23500
2699999;-0.23500
2702777;-0.24500
2705555;-0.26000
2708333;-0.25000
2711110;-0.25000
2713888;-0.25000
2716666;-0.23500
2719444;-0.24000
2722221;-0.25000
2724999;-0.26500
2727777;-0.26000
2730555;-0.25500
2733333;-0.25500
2736110;-0.24000
2738888;-0.25500
2741666;-0.26500
2744444;-0.26000
2747221;-0.25500
2749999;-0.24500
2752777;-0.25500
2755555;-0.26500
2758333;-0.27500
2761110;-0.26500
2763888;-0.25000
2766666;-0.24000
2769444;-0.24000
2772221;-0.24500
2774999;-0.26000
2777777;-0.26500
2780555;-0.26500
2783333;-0.25500
2786110;-0.26500
2788888;-0.26500
2791666;-0.29000
2794444;-0.28000
2797221;-0.27000
2799999;-0.26000
2802777;-0.27000
2805555;-0.27500
2808333;-0.28500
2811110;-0.27500
2813888;-0.27500
2816666;-0.26000
2819444;-0.26000
2822221;-0.27000
2824999;-0.28500
2827777;-0.27000
2830555;-0.26500
2833333;-0.25000
2836110;-0.24500
2838888;-0.24500
2841666;-0.26000
2844444;-0.25500
2847221;-0.24000
2849999;-0.22500
2852777;-0.21500
2855555;-0.22500
2858333;-0.21000
2861110;-0.22000
2863888;-0.20000
2866666;-0.17500
2869444;-0.17500
2872221;-0.18500
2874999;-0.18000
2877777;-0.17500
2880555;-0.16500
2883333;-0.15000
2886110;-0.14000
2888888;-0.14000
2891666;-0.13500
2894444;-0.14500
2897221;-0.14000
2899999;-0.13000
2902777;-0.14000
2905555;-0.15500
2908333;-0.17000
2911110;-0.15500
2913888;-0.13500
2916666;-0.13500
2919444;-0.13000
2922221;-0.13000
2924999;-0.13000
2927777;-0.09500
2930555;-0.08500
2933333;-0.10000
2936110;-0.14500
2938888;-0.18500
2941666;-0.20000
2944444;-0.21000
2947221;-0.20500
2949999;-0.23000
2952777;-0.24500
2955555;-0.25500
2958333;-0.28000
2961110;-0.28500
2963888;-0.26500
2966666;-0.26000
2969444;-0.26500
2972221;-0.28000
2974999;-0.28000
2977777;-0.28000
2980555;-0.27000
2983332;-0.27000
2986110;-0.27000
2988888;-0.28500
2991666;-0.28500
2994444;-0.29000
2997221;-0.28000
2999999;-0.28500
3002777;-0.28500
3005555;-0.27500
3008332;-0.28500
3011110;-0.30000
3013888;-0.29000
3016666;-0.29500
3019444;-0.29500
3022221;-0.30000
3024999;-0.32500
3027777;-0.34500
3030555;-0.35500
3033332;-0.37500
3036110;-0.40000
3038888;-0.41500
3041666;-0.42000
3044444;-0.41500
3047221;-0.44500
3049999;-0.48000
3052777;-0.52000
3055555;-0.49500
3058332;-0.43000
3061110;-0.29500
3063888;-0.15500
3066666;0.01000
3069444;0.25500
3072221;0.55000
3074999;0.77500
3077777;0.92000
3080555;0.94500
3083332;0.74500
3086110;0.35500
3088888;-0.06000
3091666;-0.36500
3094444;-0.48000
3097221;-0.45000
3099999;-0.38500
3102777;-0.34500
3105555;-0.35000
3108332;-0.35500
3111110;-0.35500
3113888;-0.34000
3116666;-0.33000
3119444;-0.32500
3122221;-0.33500
3124999;-0.35500
3127777;-0.35500
3130555;-0.34500
3133332;-0.33500
3136110;-0.33500
3138888;-0.34000
3141666;-0.34500
3144444;-0.34500
3147221;-0.34000
3149999;-0.33000
3152777;-0.33500
3155555;-0.34000
3158332;-0.35500
3161110;-0.36000
3163888;-0.35500
3166666;-0.34000
3169444;-0.34000
3172221;-0.35500
3174999;-0.36000
3177777;-0.36000
3180555;-0.35500
3183332;-0.33500
3186110;-0.34000
3188888;-0.36000
3191666;-0.35500
3194444;-0.35500
3197221;-0.34500
3199999;-0.34500
3202777;-0.34500
3205555;-0.36000
3208332;-0.36500
3211110;-0.37000
3213888;-0.36000
3216666;-0.32000
3219444;-0.32000
3222221;-0.34000
3224999;-0.35500
3227777;-0.35000
3230555;-0.34500
3233332;-0.34000
3236110;-0.35000
3238888;-0.35000
3241666;-0.35500
3244444;-0.36000
3247221;-0.35500
3249999;-0.33500
3252777;-0.34500
3255555;-0.35000
3258332;-0.34500
3261110;-0.35500
3263888;-0.34000
3266666;-0.33500
3269444;-0.34500
3272221;-0.34500
3274999;-0.36000
3277777;-0.35500
3280555;-0.34500
3283332;-0.33500
3286110;-0.34500
3288888;-0.35000
3291666;-0.35500
3294444;-0.34500
3297221;-0.34500
3299999;-0.33500
3302777;-0.33000
3305555;-0.34000
3308332;-0.33500
3311110;-0.34500
3313888;-0.33500
3316666;-0.33000
3319444;-0.34500
3322221;-0.34000
3324999;-0.35000
3327777;-0.36000
3330555;-0.36000
3333332;-0.34000
3336110;-0.34500
3338888;-0.36500
3341666;-0.35500
3344444;-0.35500
3347221;-0.34000
3349999;-0.34000
3352777;-0.33500
3355555;-0.34500
3358332;-0.34500
3361110;-0.35000
3363888;-0.33500
3366666;-0.32000
3369444;-0.31500
3372221;-0.32000
3374999;-0.32000
3377777;-0.30500
3380555;-0.28500
3383332;-0.26500
3386110;-0.25500
3388888;-0.26000
3391666;-0.26000
3394443;-0.26000
3397221;-0.26000
3399999;-0.22500
3402777;-0.23000
3405555;-0.25000
3408332;-0.25500
3411110;-0.26000
3413888;-0.24500
3416666;-0.24000
3419443;-0.24500
3422221;-0.25000
3424999;-0.25500
3427777;-0.25500
3430555;-0.25500
3433332;-0.23500
3436110;-0.24000
3438888;-0.25000
3441666;-0.25500
3444443;-0.27500
3447221;-0.25000
3449999;-0.24500
3452777;-0.25000
3455555;-0.25500
3458332;-0.25500
3461110;-0.26000
3463888;-0.24500
3466666;-0.24000
3469443;-0.25000
3472221;-0.25000
3474999;-0.26000
3477777;-0.26000
3480555;-0.26000
3483332;-0.25500
3486110;-0.25000
3488888;-0.25000
3491666;-0.26500
3494443;-0.27500
3497221;-0.25500
3499999;-0.26500
3502777;-0.26500
3505555;-0.28000
3508332;-0.29000
3511110;-0.28500
3513888;-0.27000
3516666;-0.26500
3519443;-0.27000
3522221;-0.27000
3524999;-0.28500
3527777;-0.29500
3530555;-0.29000
3533332;-0.28000
3536110;-0.29000
3538888;-0.29500
3541666;-0.29500
3544443;-0.31500
3547221;-0.29000
3549999;-0.28000
3552777;-0.28500
3555555;-0.28500
3558332;-0.30000
3561110;-0.31000
3563888;-0.27500
3566666;-0.28000
3569443;-0.29000
3572221;-0.28500
3574999;-0.29000
3577777;-0.29500
3580555;-0.30500
3583332;-0.28500
3586110;-0.28500
3588888;-0.30000
3591666;-0.30000
3594443;-0.30500
3597221;-0.30500
3599999;-0.29000
3602777;-0.29000
3605555;-0.29500
3608332;-0.31000
3611110;-0.29500
3613888;-0.30000
3616666;-0.29000
3619443;-0.29500
3622221;-0.29500
3624999;-0.30500
3627777;-0.30500
3630555;-0.29000
3633332;-0.27000
3636110;-0.26500
3638888;-0.28000
3641666;-0.30500
3644443;-0.28500
3647221;-0.27500
3649999;-0.26000
3652777;-0.28500
3655555;-0.27000
3658332;-0.26000
3661110;-0.25500
3663888;-0.25500
3666666;-0.23500
3669443;-0.22500
3672221;-0.23000
3674999;-0.22500
3677777;-0.22500
3680555;-0.22500
3683332;-0.20500
3686110;-0.20000
3688888;-0.20000
3691666;-0.20500
3694443;-0.19500
3697221;-0.18000
3699999;-0.16000
3702777;-0.16000
3705555;-0.16000
3708332;-0.17500
3711110;-0.17500
3713888;-0.16500
3716666;-0.16500
3719443;-0.17000
3722221;-0.17500
3724999;-0.17000
3727777;-0.18000
3730555;-0.18000
3733332;-0.16000
3736110;-0.15000
3738888;-0.14000
3741666;-0.15500
3744443;-0.19000
3747221;-0.22000
3749999;-0.22000
3752777;-0.22500
3755555;-0.25500
3758332;-0.26500
3761110;-0.29500
3763888;-0.30500
3766666;-0.30000
3769443;-0.30500
3772221;-0.30000
3774999;-0.31000
3777777;-0.32000
3780554;-0.30000
3783332;-0.29500
3786110;-0.30500
3788888;-0.31500
3791666;-0.32500
3794443;-0.33000
3797221;-0.33000
3799999;-0.32000
3802777;-0.31500
3805554;-0.33000
3808332;-0.33500
3811110;-0.34500
3813888;-0.33500
3816666;-0.32000
3819443;-0.33000
3822221;-0.32500
3824999;-0.34000
3827777;-0.34000
3830554;-0.34000
3833332;-0.33500
3836110;-0.33000
3838888;-0.34000
3841666;-0.34500
3844443;-0.36000
3847221;-0.35500
3849999;-0.38000
3852777;-0.42000
3855554;-0.46000
3858332;-0.47500
3861110;-0.50000
3863888;-0.54000
3866666;-0.53500
3869443;-0.47500
3872221;-0.37000
3874999;-0.26500
3877777;-0.12000
3880554;0.11000
3883332;0.39000
3886110;0.64500
3888888;0.79000
3891666;0.82000
3894443;0.67000
3897221;0.38500
3899999;0.01500
3902777;-0.32000
3905554;-0.50500
3908332;-0.54000
3911110;-0.48500
3913888;-0.41500
3916666;-0.38500
3919443;-0.39000
3922221;-0.38500
3924999;-0.39500
3927777;-0.39500
3930554;-0.38500
3933332;-0.38500
3936110;-0.39500
3938888;-0.40000
3941666;-0.40500
3944443;-0.40500
3947221;-0.39000
3949999;-0.38000
3952777;-0.38500
3955554;-0.39500
3958332;-0.39500
3961110;-0.40000
3963888;-0.39000
3966666;-0.38000
3969443;-0.38000
3972221;-0.38000
3974999;-0.40500
3977777;-0.39000
3980554;-0.39000
3983332;-0.37500
3986110;-0.38000
3988888;-0.39000
3991666;-0.41000
3994443;-0.41500
3997221;-0.40000
3999999;-0.39000
4002777;-0.38500
4005554;-0.39500
4008332;-0.40500
4011110;-0.41000
4013888;-0.39000
4016666;-0.38500
4019443;-0.39500
4022221;-0.40000
4024999;-0.39000
4027777;-0.40500
4030554;-0.40500
4033332;-0.38000
4036110;-0.39500
4038888;-0.39000
4041666;-0.39500
4044443;-0.41000
4047221;-0.38500
4049999;-0.37500
4052777;-0.39000
4055554;-0.39000
4058332;-0.39500
4061110;-0.40000
4063888;-0.38500
4066666;-0.38500
4069443;-0.38500
4072221;-0.39500
4074999;-0.40000
4077777;-0.40000
4080554;-0.40000
4083332;-0.39500
4086110;-0.40000
4088888;-0.39500
4091666;-0.39500
4094443;-0.39500
4097221;-0.39000
4099999;-0.38000
4102777;-0.39000
4105554;-0.40000
4108332;-0.39500
4111110;-0.39000
4113888;-0.38500
4116666;-0.37500
4119443;-0.38000
4122221;-0.40000
4124999;-0.41500
4127777;-0.41500
4130554;-0.40000
4133332;-0.38500
4136110;-0.39000
4138888;-0.40500
4141666;-0.41500
4144443;-0.41000
4147221;-0.40500
4149999;-0.40000
4152777;-0.39000
4155554;-0.39500
4158332;-0.40500
4161110;-0.40000
4163888;-0.39000
4166666;-0.38000
4169443;-0.38500
4172221;-0.39000
4174999;-0.38500
4177777;-0.39000
4180554;-0.37000
4183332;-0.35000
4186110;-0.32000
4188888;-0.32500
4191665;-0.33000
4194443;-0.33000
4197221;-0.31000
4199999;-0.30000
4202777;-0.30500
4205554;-0.29500
4208332;-0.30500
4211110;-0.31500
4213888;-0.29500
4216665;-0.28500
4219443;-0.29500
4222221;-0.28500
4224999;-0.29000
4227777;-0.30000
4230554;-0.29500
4233332;-0.29000
4236110;-0.28500
4238888;-0.30500
4241665;-0.31500
4244443;-0.31500
4247221;-0.31500
4249999;-0.30500
4252777;-0.30000
4255554;-0.30500
4258332;-0.31000
4261110;-0.31500
4263888;-0.31000
4266665;-0.30000
4269443;-0.29500
4272221;-0.30000
4274999;-0.30500
4277777;-0.31000
4280554;-0.30500
4283332;-0.30500
4286110;-0.30500
4288888;-0.30500
4291665;-0.31500
4294443;-0.32000
4297221;-0.31000
4299999;-0.29500
4302777;-0.30000
4305554;-0.32000
4308332;-0.33000
4311110;-0.33500
4313888;-0.32500
4316665;-0.32000
4319443;-0.32500
4322221;-0.33000
4324999;-0.33000
4327777;-0.34500
4330554;-0.34000
4333332;-0.32500
4336110;-0.34000
4338888;-0.36000
4341665;-0.36000
4344443;-0.36500
4347221;-0.33500
4349999;-0.32000
4352777;-0.32500
4355554;-0.33000
4358332;-0.34500
4361110;-0.36000
4363888;-0.35500
4366665;-0.34000
4369443;-0.34500
4372221;-0.35500
4374999;-0.36500
4377777;-0.37500
4380554;-0.37000
4383332;-0.36000
4386110;-0.35000
4388888;-0.35000
4391665;-0.37000
4394443;-0.37500
4397221;-0.35000
4399999;-0.35000
4402777;-0.35500
4405554;-0.35500
4408332;-0.37500
4411110;-0.37000
4413888;-0.37500
4416665;-0.36500
4419443;-0.37000
4422221;-0.36000
4424999;-0.37000
4427777;-0.36500
4430554;-0.34500
4433332;-0.33500
4436110;-0.33500
4438888;-0.35000
4441665;-0.36000
4444443;-0.35500
4447221;-0.34000
4449999;-0.34000
4452777;-0.34500
4455554;-0.34500
4458332;-0.34500
4461110;-0.35000
4463888;-0.33500
4466665;-0.32500
4469443;-0.34000
4472221;-0.33500
4474999;-0.32500
4477777;-0.33000
4480554;-0.32500
4483332;-0.31000
4486110;-0.31500
4488888;-0.30500
4491665;-0.30000
4494443;-0.29500
4497221;-0.29000
4499999;-0.26500
4502777;-0.26000
4505554;-0.27500
4508332;-0.27000
4511110;-0.26500
4513888;-0.24000
4516665;-0.21500
4519443;-0.22500
4522221;-0.23000
4524999;-0.24000
4527777;-0.23500
4530554;-0.24000
4533332;-0.23000
4536110;-0.22500
4538888;-0.23500
4541665;-0.25000
4544443;-0.24500
4547221;-0.23500
4549999;-0.21500
4552777;-0.22000
4555554;-0.24500
4558332;-0.29500
4561110;-0.31500
4563888;-0.32000
4566665;-0.32000
4569443;-0.34000
4572221;-0.35500
4574999;-0.38500
4577776;-0.39000
4580554;-0.39000
4583332;-0.38000
4586110;-0.38500
4588888;-0.38000
4591665;-0.38500
4594443;-0.38500
4597221;-0.39500
4599999;-0.37500
4602776;-0.38000
4605554;-0.38000
4608332;-0.40000
4611110;-0.39000
4613888;-0.40000
4616665;-0.38000
4619443;-0.38500
4622221;-0.38500
4624999;-0.40000
4627776;-0.40000
4630554;-0.38000
4633332;-0.39500
4636110;-0.39500
4638888;-0.40000
4641665;-0.41500
4644443;-0.41500
4647221;-0.41000
4649999;-0.40000
4652776;-0.41500
4655554;-0.44000
4658332;-0.46500
4661110;-0.50500
4663888;-0.52000
4666665;-0.53000
4669443;-0.56500
4672221;-0.62000
4674999;-0.63000
4677776;-0.57000
4680554;-0.44500
4683332;-0.29500
4686110;-0.15000
4688888;0.06500
4691665;0.32000
4694443;0.57500
4697221;0.75000
4699999;0.82000
4702776;0.68500
4705554;0.36000
4708332;-0.04000
4711110;-0.38000
4713888;-0.56500
4716665;-0.58000
4719443;-0.53500
4722221;-0.49500
4724999;-0.46500
4727776;-0.47500
4730554;-0.48500
4733332;-0.47000
4736110;-0.46500
4738888;-0.46000
4741665;-0.46000
4744443;-0.46500
4747221;-0.46500
4749999;-0.46500
4752776;-0.45500
4755554;-0.46000
4758332;-0.46500
4761110;-0.46500
4763888;-0.45500
4766665;-0.44000
4769443;-0.46000
4772221;-0.45500
4774999;-0.46000
4777776;-0.46500
4780554;-0.45500
4783332;-0.44000
4786110;-0.46000
4788888;-0.46500
4791665;-0.47500
4794443;-0.48500
4797221;-0.46000
4799999;-0.45000
4802776;-0.46000
4805554;-0.46000
4808332;-0.47000
4811110;-0.47500
4813888;-0.46000
4816665;-0.46000
4819443;-0.47500
4822221;-0.48500
4824999;-0.48000
4827776;-0.48500
4830554;-0.47000
4833332;-0.45000
4836110;-0.45000
4838888;-0.46000
4841665;-0.47000
4844443;-0.46500
4847221;-0.46500
4849999;-0.46000
4852776;-0.46000
4855554;-0.46000
4858332;-0.47000
4861110;-0.47500
4863888;-0.46500
4866665;-0.46000
4869443;-0.46500
4872221;-0.47000
4874999;-0.48000
4877776;-0.48500
4880554;-0.47500
4883332;-0.46500
4886110;-0.47500
4888888;-0.48000
4891665;-0.50000
4894443;-0.49000
4897221;-0.46500
4899999;-0.44500
4902776;-0.45500
4905554;-0.47000
4908332;-0.47500
4911110;-0.48000
4913888;-0.47500
4916665;-0.45500
4919443;-0.46000
4922221;-0.46500
4924999;-0.48500
4927776;-0.48500
4930554;-0.49000
4933332;-0.47500
4936110;-0.48000
4938888;-0.48000
4941665;-0.50000
4944443;-0.49500
4947221;-0.49500
4949999;-0.48500
4952776;-0.48500
4955554;-0.50500
4958332;-0.51000
4961110;-0.52000
4963887;-0.51000
4966665;-0.50500
4969443;-0.52000
4972221;-0.52000
4974999;-0.51500
4977776;-0.51000
4980554;-0.49500
4983332;-0.50000
4986110;-0.50500
4988887;-0.50000
4991665;-0.49000
4994443;-0.47500
4997221;-0.44500
4999999;-0.43000
5002776;-0.43000
5005554;-0.42000
5008332;-0.41500
5011110;-0.40500
5013887;-0.39500
5016665;-0.39000
5019443;-0.37500
5022221;-0.38000
5024999;-0.38500
5027776;-0.37000
5030554;-0.35500
5033332;-0.35000
5036110;-0.36000
5038887;-0.35500
5041665;-0.35500
5044443;-0.36000
5047221;-0.34000
5049999;-0.34500
5052776;-0.34000
5055554;-0.34500
5058332;-0.35000
5061110;-0.36000
5063887;-0.34500
5066665;-0.34000
5069443;-0.34500
5072221;-0.35500
5074999;-0.36000
5077776;-0.36000
5080554;-0.34500
5083332;-0.34000
5086110;-0.34000
5088887;-0.35000
5091665;-0.36000
5094443;-0.35500
5097221;-0.35500
5099999;-0.35500
5102776;-0.36000
5105554;-0.36500
5108332;-0.37000
5111110;-0.36000
5113887;-0.36000
5116665;-0.34000
5119443;-0.34500
5122221;-0.35500
5124999;-0.36500
5127776;-0.38000
5130554;-0.37500
5133332;-0.35500
5136110;-0.35000
5138887;-0.35000
5141665;-0.36500
5144443;-0.37500
5147221;-0.37500
5149999;-0.36500
5152776;-0.38500
5155554;-0.40000
5158332;-0.39500
5161110;-0.40000
5163887;-0.39000
5166665;-0.37500
5169443;-0.37500
5172221;-0.39000
5174999;-0.39000
5177776;-0.39500
5180554;-0.37500
5183332;-0.38000
5186110;-0.37500
5188887;-0.38000
5191665;-0.39500
5194443;-0.40500
5197221;-0.37000
5199999;-0.36500
5202776;-0.37500
5205554;-0.38500
5208332;-0.39500
5211110;-0.40000
5213887;-0.39000
5216665;-0.38000
5219443;-0.38500
5222221;-0.38000
5224999;-0.39500
5227776;-0.39500
5230554;-0.39000
5233332;-0.37500
5236110;-0.38000
5238887;-0.39000
5241665;-0.39000
5244443;-0.39000
5247221;-0.38500
5249999;-0.37000
5252776;-0.37000
5255554;-0.37500
5258332;-0.38500
5261110;-0.38500
5263887;-0.37500
5266665;-0.35500
5269443;-0.35500
5272221;-0.35000
5274999;-0.36500
5277776;-0.35500
5280554;-0.33500
5283332;-0.32500
5286110;-0.32000
5288887;-0.32500
5291665;-0.32500
5294443;-0.33000
5297221;-0.31000
5299999;-0.29500
5302776;-0.29500
5305554;-0.31000
5308332;-0.31500
5311110;-0.31000
5313887;-0.29500
5316665;-0.27500
5319443;-0.27500
5322221;-0.27000
5324999;-0.27500
5327776;-0.26000
5330554;-0.25000
5333332;-0.24500
5336110;-0.25500
5338887;-0.26500
5341665;-0.28000
5344443;-0.27000
5347221;-0.25500
5349999;-0.24500
5352776;-0.25000
5355554;-0.25000
5358332;-0.25000
5361110;-0.24000
5363887;-0.24000
5366665;-0.27500
5369443;-0.31000
5372221;-0.33000
5374998;-0.34000
5377776;-0.34500
5380554;-0.35000
5383332;-0.36000
5386110;-0.36000
5388887;-0.39000
5391665;-0.40000
5394443;-0.40500
5397221;-0.38000
5399998;-0.39000
5402776;-0.39000
5405554;-0.39000
5408332;-0.40500
5411110;-0.40000
5413887;-0.39500
5416665;-0.39000
5419443;-0.39500
5422221;-0.39000
5424998;-0.41000
5427776;-0.41000
5430554;-0.40000
5433332;-0.38500
5436110;-0.40000
5438887;-0.39000
5441665;-0.39500
5444443;-0.40000
5447221;-0.39000
5449998;-0.38500
5452776;-0.37500
5455554;-0.39500
5458332;-0.41500
5461110;-0.45000
5463887;-0.48000
5466665;-0.49500
5469443;-0.51500
5472221;-0.53500
5474998;-0.59000
5477776;-0.59500
5480554;-0.53000
5483332;-0.41000
5486110;-0.27500
5488887;-0.12500
5491665;0.05000
5494443;0.32000
5497221;0.58500
5499998;0.78500
5502776;0.85000
5505554;0.80000
5508332;0.55000
5511110;0.15500
5513887;-0.21500
5516665;-0.44500
5519443;-0.53000
5522221;-0.54000
5524998;-0.50000
5527776;-0.46000
5530554;-0.43500
5533332;-0.43000
5536110;-0.43000
5538887;-0.43500
5541665;-0.43000
5544443;-0.44000
5547221;-0.43000
5549998;-0.42500
5552776;-0.43000
5555554;-0.43500
5558332;-0.44500
5561110;-0.44500
5563887;-0.42500
5566665;-0.41500
5569443;-0.42000
5572221;-0.42000
5574998;-0.43500
5577776;-0.43000
5580554;-0.42000
5583332;-0.40500
5586110;-0.41500
5588887;-0.42500
5591665;-0.42500
5594443;-0.43500
5597221;-0.41500
5599998;-0.41000
5602776;-0.42000
5605554;-0.42000
5608332;-0.44000
5611110;-0.44000
5613887;-0.44500
5616665;-0.42500
5619443;-0.41500
5622221;-0.43000
5624998;-0.44000
5627776;-0.43500
5630554;-0.42500
5633332;-0.42000
5636110;-0.42000
5638887;-0.42500
5641665;-0.42500
5644443;-0.43500
5647221;-0.41500
5649998;-0.42000
5652776;-0.41500
5655554;-0.42500
5658332;-0.43500
5661110;-0.42500
5663887;-0.42000
5666665;-0.41000
5669443;-0.42000
5672221;-0.43000
5674998;-0.44000
5677776;-0.44000
5680554;-0.43500
5683332;-0.42000
5686110;-0.41500
5688887;-0.43500
5691665;-0.43000
5694443;-0.43500
5697221;-0.42500
5699998;-0.42000
5702776;-0.42500
5705554;-0.42500
5708332;-0.43000
5711110;-0.43000
5713887;-0.43000
5716665;-0.41500
5719443;-0.41000
5722221;-0.41500
5724998;-0.43000
5727776;-0.42500
5730554;-0.42500
5733332;-0.41000
5736110;-0.41500
5738887;-0.42000
5741665;-0.45000
5744443;-0.44500
5747221;-0.43500
5749998;-0.43000
5752776;-0.43000
5755554;-0.43500
5758332;-0.44000
5761109;-0.44500
5763887;-0.43000
5766665;-0.43000
5769443;-0.42500
5772221;-0.43500
5774998;-0.43000
5777776;-0.42500
5780554;-0.42500
5783332;-0.41000
5786109;-0.41500
5788887;-0.41000
5791665;-0.42000
5794443;-0.42500
5797221;-0.40000
5799998;-0.39500
5802776;-0.38000
5805554;-0.37000
5808332;-0.37000
5811109;-0.36500
5813887;-0.34000
5816665;-0.32500
5819443;-0.31500
5822221;-0.33500
5824998;-0.32000
5827776;-0.32000
5830554;-0.30500
5833332;-0.28000
5836109;-0.29000
5838887;-0.28500
5841665;-0.29000
5844443;-0.29500
5847221;-0.29000
5849998;-0.29500
5852776;-0.28500
5855554;-0.28000
5858332;-0.28500
5861109;-0.28000
5863887;-0.28000
5866665;-0.26500
5869443;-0.27000
5872221;-0.27500
5874998;-0.28000
5877776;-0.28000
5880554;-0.27500
5883332;-0.27500
5886109;-0.26500
5888887;-0.27000
5891665;-0.28000
5894443;-0.29500
5897221;-0.28500
5899998;-0.27500
5902776;-0.28000
5905554;-0.28000
5908332;-0.29500
5911109;-0.30500
5913887;-0.29500
5916665;-0.28000
5919443;-0.30000
5922221;-0.30500
5924998;-0.30000
5927776;-0.30500
5930554;-0.29500
5933332;-0.29500
5936109;-0.29500
5938887;-0.30000
5941665;-0.30500
5944443;-0.31000
5947221;-0.30000
5949998;-0.29000
5952776;-0.30000
5955554;-0.30500
5958332;-0.31500
5961109;-0.32000
5963887;-0.31500
5966665;-0.31000
5969443;-0.31000
5972221;-0.32000
5974998;-0.32000
5977776;-0.32500
5980554;-0.32000
5983332;-0.31000
5986109;-0.31500
5988887;-0.32500
5991665;-0.33000
5994443;-0.34500
5997221;-0.33500
5999998;-0.32000
6002776;-0.32000
6005554;-0.32500
6008332;-0.32500
6011109;-0.32500
6013887;-0.31000
6016665;-0.31000
6019443;-0.30500
6022221;-0.30000
6024998;-0.31000
6027776;-0.32500
6030554;-0.31500
6033332;-0.30500
6036109;-0.30500
6038887;-0.31500
6041665;-0.32500
6044443;-0.32500
6047221;-0.31000
6049998;-0.30000
6052776;-0.29500
6055554;-0.30000
6058332;-0.31500
6061109;-0.30500
6063887;-0.27500
6066665;-0.27000
6069443;-0.27000
6072221;-0.28000
6074998;-0.27000
6077776;-0.27500
6080554;-0.26500
6083332;-0.25000
6086109;-0.25000
6088887;-0.25500
6091665;-0.25500
6094443;-0.25000
6097221;-0.23500
6099998;-0.21500
6102776;-0.21000
6105554;-0.20000
6108332;-0.21500
6111109;-0.20500
6113887;-0.19000
6116665;-0.18000
6119443;-0.18500
6122221;-0.19500
6124998;-0.20000
6127776;-0.21500
6130554;-0.21500
6133332;-0.20000
6136109;-0.19500
6138887;-0.20500
6141665;-0.21000
6144443;-0.20000
6147221;-0.17000
6149998;-0.14500
6152776;-0.17000
6155554;-0.22500
6158332;-0.26000
6161109;-0.27000
6163887;-0.27500
6166665;-0.27000
6169443;-0.28500
6172220;-0.30500
6174998;-0.32500
6177776;-0.34000
6180554;-0.33000
6183332;-0.31500
6186109;-0.32000
6188887;-0.32500
6191665;-0.34000
6194443;-0.34500
6197220;-0.34000
6199998;-0.34000
6202776;-0.35000
6205554;-0.36000
6208332;-0.35500
6211109;-0.36500
6213887;-0.36000
6216665;-0.34000
6219443;-0.36000
6222220;-0.35500
6224998;-0.36000
6227776;-0.37500
6230554;-0.37000
6233332;-0.36500
6236109;-0.36500
6238887;-0.37000
6241665;-0.40000
6244443;-0.44000
6247220;-0.46500
6249998;-0.46500
6252776;-0.48500
6255554;-0.53000
6258332;-0.58000
6261109;-0.59500
6263887;-0.53500
6266665;-0.42500
6269443;-0.32000
6272220;-0.21000
6274998;-0.08000
6277776;0.12000
6280554;0.39500
6283332;0.64500
6286109;0.80500
6288887;0.89000
6291665;0.86000
6294443;0.66500
6297220;0.32500
6299998;-0.06000
6302776;-0.37000
6305554;-0.50500
6308332;-0.54000
6311109;-0.51000
6313887;-0.44000
6316665;-0.40000
6319443;-0.38000
6322220;-0.38500
6324998;-0.39500
6327776;-0.40000
6330554;-0.39000
6333332;-0.37500
6336109;-0.38500
6338887;-0.39500
6341665;-0.41000
6344443;-0.40500
6347220;-0.40000
6349998;-0.39500
6352776;-0.40000
6355554;-0.40000
6358332;-0.40500
6361109;-0.40500
6363887;-0.40500
6366665;-0.39500
6369443;-0.39000
6372220;-0.39500
6374998;-0.41000
6377776;-0.41000
6380554;-0.41000
6383332;-0.40000
6386109;-0.41000
6388887;-0.40000
6391665;-0.40000
6394443;-0.39000
6397220;-0.39000
6399998;-0.37000
6402776;-0.37500
6405554;-0.38500
6408332;-0.39000
6411109;-0.40500
6413887;-0.40000
6416665;-0.39500
6419443;-0.38000
6422220;-0.40000
6424998;-0.40500
6427776;-0.40000
6430554;-0.40000
6433332;-0.39500
6436109;-0.39500
6438887;-0.41000
6441665;-0.40500
6444443;-0.41500
6447220;-0.40500
6449998;-0.40500
6452776;-0.39000
6455554;-0.39500
6458332;-0.39000
6461109;-0.40000
6463887;-0.39000
6466665;-0.37500
6469443;-0.37500
6472220;-0.38000
6474998;-0.38000
6477776;-0.38000
6480554;-0.38000
6483332;-0.37000
6486109;-0.38000
6488887;-0.39000
6491665;-0.40000
6494443;-0.40000
6497220;-0.37500
6499998;-0.37500
6502776;-0.37000
6505554;-0.38000
6508332;-0.38500
6511109;-0.39500
6513887;-0.39000
6516665;-0.39500
6519443;-0.38500
6522220;-0.39000
6524998;-0.38500
6527776;-0.40500
6530554;-0.38000
6533332;-0.38000
6536109;-0.37500
6538887;-0.39000
6541665;-0.39500
6544443;-0.39000
6547220;-0.39000
6549998;-0.38000
6552776;-0.39500
6555554;-0.38500
6558331;-0.38500
6561109;-0.39500
6563887;-0.38000
6566665;-0.37000
6569443;-0.37500
6572220;-0.38000
6574998;-0.39000
6577776;-0.38500
6580554;-0.36500
6583331;-0.35000
6586109;-0.35000
6588887;-0.34500
6591665;-0.34500
6594443;-0.35000
6597220;-0.32500
6599998;-0.30500
6602776;-0.29500
6605554;-0.29500
6608331;-0.30000
6611109;-0.31000
6613887;-0.28500
6616665;-0.27000
6619443;-0.29000
6622220;-0.29000
6624998;-0.28500
6627776;-0.29500
6630554;-0.29500
6633331;-0.28000
6636109;-0.27500
6638887;-0.29000
6641665;-0.30000
6644443;-0.31000
6647220;-0.30000
6649998;-0.27500
6652776;-0.28000
6655554;-0.29000
6658331;-0.29500
6661109;-0.30500
6663887;-0.29000
6666665;-0.28000
6669443;-0.28000
6672220;-0.29000
6674998;-0.29500
6677776;-0.30000
6680554;-0.29000
6683331;-0.28500
6686109;-0.29500
6688887;-0.31000
6691665;-0.32500
6694443;-0.31500
6697220;-0.31500
6699998;-0.30500
6702776;-0.31000
6705554;-0.31500
6708331;-0.32500
6711109;-0.33500
6713887;-0.32500
6716665;-0.32000
6719443;-0.33000
6722220;-0.32500
6724998;-0.33000
6727776;-0.34000
6730554;-0.33000
6733331;-0.33000
6736109;-0.32500
6738887;-0.33500
6741665;-0.33000
6744443;-0.33500
6747220;-0.32500
6749998;-0.32000
6752776;-0.32500
6755554;-0.33500
6758331;-0.35000
6761109;-0.34500
6763887;-0.33000
6766665;-0.32000
6769443;-0.34000
6772220;-0.32500
6774998;-0.33500
6777776;-0.33500
6780554;-0.33000
6783331;-0.32000
6786109;-0.33000
6788887;-0.33000
6791665;-0.33500
6794443;-0.34500
6797220;-0.33500
6799998;-0.32500
6802776;-0.32000
6805554;-0.32500
6808331;-0.32500
6811109;-0.33000
6813887;-0.32500
6816665;-0.31500
6819443;-0.31000
6822220;-0.32000
6824998;-0.32000
6827776;-0.32500
6830554;-0.32500
6833331;-0.32500
6836109;-0.32000
6838887;-0.33500
6841665;-0.33500
6844443;-0.32000
6847220;-0.29500
6849998;-0.28500
6852776;-0.28000
6855554;-0.28500
6858331;-0.28000
6861109;-0.28000
6863887;-0.25500
6866665;-0.25000
6869443;-0.24500
6872220;-0.24000
6874998;-0.23500
6877776;-0.22500
6880554;-0.20500
6883331;-0.19000
6886109;-0.19000
6888887;-0.20000
6891665;-0.21000
6894443;-0.22000
6897220;-0.22500
6899998;-0.21500
6902776;-0.20500
6905554;-0.21500
6908331;-0.22000
6911109;-0.22000
6913887;-0.20000
6916665;-0.16500
6919443;-0.15500
6922220;-0.16000
6924998;-0.18500
6927776;-0.23500
6930554;-0.26500
6933331;-0.28000
6936109;-0.29000
6938887;-0.29500
6941665;-0.32500
6944442;-0.33500
6947220;-0.34000
6949998;-0.34500
6952776;-0.34500
6955554;-0.35000
6958331;-0.35500
6961109;-0.35000
6963887;-0.35000
6966665;-0.35500
6969442;-0.34000
6972220;-0.36500
6974998;-0.38500
6977776;-0.38000
6980554;-0.37000
6983331;-0.35500
6986109;-0.37000
6988887;-0.37500
6991665;-0.37500
6994442;-0.39500
6997220;-0.38500
6999998;-0.37500
7002776;-0.37500
7005554;-0.39000
7008331;-0.38500
7011109;-0.41000
7013887;-0.42000
7016665;-0.46000
7019442;-0.49500
7022220;-0.50500
7024998;-0.53500
7027776;-0.59500
7030554;-0.62500
7033331;-0.59000
7036109;-0.54500
7038887;-0.48500
7041665;-0.40000
7044442;-0.30000
7047220;-0.19000
7049998;-0.00500
7052776;0.24000
7055554;0.52000
7058331;0.70500
7061109;0.77500
7063887;0.70000
7066665;0.42000
7069442;-0.01000
7072220;-0.36500
7074998;-0.55000
7077776;-0.56500
7080554;-0.49000
7083331;-0.45000
7086109;-0.43000
7088887;-0.43500
7091665;-0.44000
7094442;-0.43000
7097220;-0.41000
7099998;-0.40000
7102776;-0.41500
7105554;-0.41000
7108331;-0.42500
7111109;-0.43000
7113887;-0.41500
7116665;-0.41000
7119442;-0.41000
7122220;-0.41500
7124998;-0.42500
7127776;-0.42500
7130554;-0.42000
7133331;-0.41500
7136109;-0.41500
7138887;-0.42500
7141665;-0.43000
7144442;-0.44000
7147220;-0.43000
7149998;-0.41500
7152776;-0.41000
7155554;-0.41500
7158331;-0.41500
7161109;-0.42000
7163887;-0.41000
7166665;-0.41000
7169442;-0.41000
7172220;-0.41000
7174998;-0.41000
7177776;-0.42000
7180554;-0.40500
7183331;-0.40000
7186109;-0.39000
7188887;-0.39500
7191665;-0.40000
7194442;-0.41000
7197220;-0.39500
7199998;-0.40000
7202776;-0.40000
7205554;-0.42000
7208331;-0.41500
7211109;-0.42500
7213887;-0.40500
7216665;-0.40500
7219442;-0.40000
7222220;-0.39500
7224998;-0.42000
7227776;-0.43000
7230554;-0.41000
7233331;-0.39000
7236109;-0.40000
7238887;-0.40000
7241665;-0.41500
7244442;-0.40500
7247220;-0.39500
7249998;-0.38500
7252776;-0.38500
7255554;-0.40500
7258331;-0.40000
7261109;-0.40500
7263887;-0.39500
7266665;-0.37500
7269442;-0.38000
7272220;-0.39500
7274998;-0.40500
7277776;-0.40500
7280554;-0.41000
7283331;-0.38500
7286109;-0.39000
7288887;-0.39000
7291665;-0.41500
7294442;-0.41500
7297220;-0.41000
7299998;-0.41500
7302776;-0.40000
7305554;-0.42000
7308331;-0.42000
7311109;-0.41000
7313887;-0.40500
7316665;-0.40500
7319442;-0.41000
7322220;-0.41500
7324998;-0.42000
7327776;-0.42000
7330554;-0.41000
7333331;-0.39000
7336109;-0.38500
7338887;-0.38000
7341665;-0.37000
7344442;-0.37500
7347220;-0.35500
7349998;-0.33500
7352776;-0.33000
7355553;-0.34000
7358331;-0.35000
7361109;-0.34500
7363887;-0.33000
7366665;-0.30500
7369442;-0.29000
7372220;-0.30000
7374998;-0.30500
7377776;-0.30500
7380553;-0.30500
7383331;-0.30000
7386109;-0.31000
7388887;-0.30500
7391665;-0.31500
7394442;-0.31500
7397220;-0.31000
7399998;-0.30000
7402776;-0.29500
7405553;-0.32000
7408331;-0.30500
7411109;-0.32000
7413887;-0.30500
7416665;-0.30500
7419442;-0.30500
7422220;-0.31000
7424998;-0.32000
7427776;-0.31000
7430553;-0.30000
7433331;-0.29500
7436109;-0.29500
7438887;-0.29500
7441665;-0.30500
7444442;-0.31000
7447220;-0.30500
7449998;-0.31000
7452776;-0.32000
7455553;-0.33000
7458331;-0.33000
7461109;-0.33500
7463887;-0.32500
7466665;-0.31000
7469442;-0.31000
7472220;-0.32500
7474998;-0.33500
7477776;-0.35000
7480553;-0.33500
7483331;-0.32000
7486109;-0.32000
7488887;-0.33500
7491665;-0.34000
7494442;-0.34500
7497220;-0.34000
7499998;-0.33000
7502776;-0.33000
7505553;-0.34000
7508331;-0.35500
7511109;-0.35500
7513887;-0.34500
7516665;-0.31500
7519442;-0.33500
7522220;-0.35000
7524998;-0.35000
7527776;-0.35000
7530553;-0.34500
7533331;-0.33500
7536109;-0.34000
7538887;-0.36000
7541665;-0.37000
7544442;-0.37500
7547220;-0.35000
7549998;-0.35500
7552776;-0.35500
7555553;-0.34500
7558331;-0.34000
7561109;-0.35000
7563887;-0.33500
7566665;-0.32000
7569442;-0.33000
7572220;-0.34000
7574998;-0.34500
7577776;-0.34500
7580553;-0.32500
7583331;-0.32000
7586109;-0.33000
7588887;-0.35500
7591665;-0.35500
7594442;-0.35000
7597220;-0.34500
7599998;-0.33500
7602776;-0.32500
7605553;-0.34000
7608331;-0.35000
7611109;-0.34500
7613887;-0.32500
7616665;-0.30500
7619442;-0.29500
7622220;-0.31000
7624998;-0.30500
7627776;-0.30500
7630553;-0.28000
7633331;-0.25500
7636109;-0.25000
7638887;-0.25500
7641665;-0.26000
7644442;-0.25500
7647220;-0.23500
7649998;-0.22500
7652776;-0.22000
7655553;-0.22500
7658331;-0.23000
7661109;-0.23500
7663887;-0.21500
7666665;-0.23000
7669442;-0.24000
7672220;-0.25000
7674998;-0.24000
7677776;-0.24000
7680553;-0.22500
7683331;-0.21000
7686109;-0.21000
7688887;-0.20000
7691665;-0.19500
7694442;-0.23000
7697220;-0.25000
7699998;-0.27000
7702776;-0.29000
7705553;-0.30500
7708331;-0.32000
7711109;-0.33500
7713887;-0.34500
7716665;-0.35000
7719442;-0.35500
7722220;-0.36500
7724998;-0.37500
7727776;-0.38500
7730553;-0.37500
7733331;-0.36000
7736109;-0.36000
7738887;-0.37500
7741664;-0.37500
7744442;-0.38000
7747220;-0.36000
7749998;-0.36000
7752776;-0.35500
7755553;-0.36500
7758331;-0.36500
7761109;-0.37500
7763887;-0.36500
7766664;-0.36000
7769442;-0.35000
7772220;-0.36000
7774998;-0.37000
7777776;-0.39000
7780553;-0.37500
7783331;-0.38000
7786109;-0.40000
7788887;-0.44500
7791664;-0.48500
7794442;-0.50500
7797220;-0.53000
7799998;-0.55500
7802776;-0.57000
7805553;-0.50000
7808331;-0.38000
7811109;-0.23500
7813887;-0.02000
7816664;0.23500
7819442;0.52500
7822220;0.75500
7824998;0.87500
7827776;0.80000
7830553;0.51500
7833331;0.12000
7836109;-0.27500
7838887;-0.49500
7841664;-0.56500
7844442;-0.54000
7847220;-0.49000
7849998;-0.44500
7852776;-0.44000
7855553;-0.44500
7858331;-0.45000
7861109;-0.43500
7863887;-0.42000
7866664;-0.40000
7869442;-0.41500
7872220;-0.41500
7874998;-0.42000
7877776;-0.43500
7880553;-0.42500
7883331;-0.42000
7886109;-0.42500
7888887;-0.43000
7891664;-0.43500
7894442;-0.43500
7897220;-0.44000
7899998;-0.43000
7902776;-0.42500
7905553;-0.44500
7908331;-0.44500
7911109;-0.44500
7913887;-0.44500
7916664;-0.44000
7919442;-0.45000
7922220;-0.45500
7924998;-0.45000
7927776;-0.46000
7930553;-0.44500
7933331;-0.43500
7936109;-0.43500
7938887;-0.44000
7941664;-0.45000
7944442;-0.44500
7947220;-0.43000
7949998;-0.43000
7952776;-0.42500
7955553;-0.43000
7958331;-0.42500
7961109;-0.42500
7963887;-0.42000
7966664;-0.41500
7969442;-0.41500
7972220;-0.42000
7974998;-0.43500
7977776;-0.42500
7980553;-0.42500
7983331;-0.41500
7986109;-0.42000
7988887;-0.43000
7991664;-0.43000
7994442;-0.43500
7997220;-0.44000
7999998;-0.42000
8002776;-0.42000
8005553;-0.43500
8008331;-0.44000
8011109;-0.43500
8013887;-0.43500
8016664;-0.42500
8019442;-0.43500
8022220;-0.42500
8024998;-0.43000
8027776;-0.43500
8030553;-0.42000
8033331;-0.43000
8036109;-0.43000
8038887;-0.42500
8041664;-0.44500
8044442;-0.47000
8047220;-0.45500
8049998;-0.45000
8052776;-0.45500
8055553;-0.46500
8058331;-0.46500
8061109;-0.47000
8063887;-0.46000
8066664;-0.44500
8069442;-0.47000
8072220;-0.47500
8074998;-0.49500
8077776;-0.49000
8080553;-0.48500
8083331;-0.46500
8086109;-0.46500
8088887;-0.46000
8091664;-0.46500
8094442;-0.46500
8097220;-0.42500
8099998;-0.40500
8102776;-0.40500
8105553;-0.38500
8108331;-0.39000
8111109;-0.37500
8113887;-0.36500
8116664;-0.34000
8119442;-0.33000
8122220;-0.34000
8124998;-0.34000
8127776;-0.33000
8130553;-0.31000
8133331;-0.29000
8136109;-0.29000
8138887;-0.29500
8141664;-0.30500
8144442;-0.30500
8147220;-0.29500
8149998;-0.29000
8152775;-0.29000
8155553;-0.29500
8158331;-0.29500
8161109;-0.30500
8163887;-0.30000
8166664;-0.29500
8169442;-0.28000
8172220;-0.28500
8174998;-0.29000
8177775;-0.28500
8180553;-0.28000
8183331;-0.28000
8186109;-0.28000
8188887;-0.29500
8191664;-0.31000
8194442;-0.30500
8197220;-0.30000
8199998;-0.30000
8202775;-0.29000
8205553;-0.30000
8208331;-0.30500
8211109;-0.30000
8213887;-0.29000
8216664;-0.28500
8219442;-0.29000
8222220;-0.30000
8224998;-0.31000
8227775;-0.31000
8230553;-0.30000
8233331;-0.29000
8236109;-0.30500
8238887;-0.31500
8241664;-0.31500
8244442;-0.31500
8247220;-0.30500
8249998;-0.29500
8252775;-0.30000
8255553;-0.30000
8258331;-0.32000
8261109;-0.32500
8263887;-0.30500
8266664;-0.28500
8269442;-0.31500
8272220;-0.32000
8274998;-0.32500
8277775;-0.32500
8280553;-0.31500
8283331;-0.31500
8286109;-0.32000
8288887;-0.32000
8291664;-0.33000
8294442;-0.33000
8297220;-0.32500
8299998;-0.30500
8302775;-0.30500
8305553;-0.32000
8308331;-0.32000
8311109;-0.32000
8313887;-0.32500
8316664;-0.31500
8319442;-0.30500
8322220;-0.31000
8324998;-0.31000
8327775;-0.31500
8330553;-0.30000
8333331;-0.28500
8336109;-0.30000
8338887;-0.30000
8341664;-0.31000
8344442;-0.31500
8347220;-0.30500
8349998;-0.29500
8352775;-0.30000
8355553;-0.31000
8358331;-0.30500
8361109;-0.31000
8363887;-0.30500
8366664;-0.29000
8369442;-0.29000
8372220;-0.29500
8374998;-0.29000
8377775;-0.27500
8380553;-0.26500
8383331;-0.26000
8386109;-0.25500
8388887;-0.25500
8391664;-0.24000
8394442;-0.23000
8397220;-0.21500
8399998;-0.20000
8402775;-0.20000
8405553;-0.19500
8408331;-0.20000
8411109;-0.19500
8413887;-0.18000
8416664;-0.17000
8419442;-0.17000
8422220;-0.18000
8424998;-0.19000
8427775;-0.20000
8430553;-0.19500
8433331;-0.19000
8436109;-0.19500
8438887;-0.19000
8441664;-0.20500
8444442;-0.21000
8447220;-0.18500
8449998;-0.16500
8452775;-0.15000
8455553;-0.16000
8458331;-0.19500
8461109;-0.23500
8463887;-0.24500
8466664;-0.24500
8469442;-0.25500
8472220;-0.28500
8474998;-0.30000
8477775;-0.30500
8480553;-0.30000
8483331;-0.31500
8486109;-0.31000
8488887;-0.31500
8491664;-0.33000
8494442;-0.33500
8497220;-0.32000
8499998;-0.32000
8502775;-0.31500
8505553;-0.31500
8508331;-0.33000
8511109;-0.34000
8513887;-0.32500
8516664;-0.33000
8519442;-0.33000
8522220;-0.33000
8524998;-0.34000
8527775;-0.34500
8530553;-0.32000
8533331;-0.32500
8536109;-0.30500
8538886;-0.32500
8541664;-0.33000
8544442;-0.37000
8547220;-0.38500
8549998;-0.41500
8552775;-0.44500
8555553;-0.46500
8558331;-0.52500
8561109;-0.55500
8563886;-0.53500
8566664;-0.45000
8569442;-0.35000
8572220;-0.26000
8574998;-0.21500
8577775;-0.15000
8580553;-0.03500
8583331;0.15000
8586109;0.38000
8588886;0.65000
8591664;0.84000
8594442;0.90500
8597220;0.79000
8599998;0.47500
8602775;0.03500
8605553;-0.33000
8608331;-0.50000
8611109;-0.52000
8613886;-0.44000
8616664;-0.37000
8619442;-0.36000
8622220;-0.37500
8624998;-0.39000
8627775;-0.39000
8630553;-0.37500
8633331;-0.36000
8636109;-0.37000
8638886;-0.37000
8641664;-0.39000
8644442;-0.38500
8647220;-0.37000
8649998;-0.36500
8652775;-0.37000
8655553;-0.37000
8658331;-0.38500
8661109;-0.38000
8663886;-0.38000
8666664;-0.37000
8669442;-0.36500
8672220;-0.37500
8674998;-0.38000
8677775;-0.38000
8680553;-0.36500
8683331;-0.37000
8686109;-0.37500
8688886;-0.37500
8691664;-0.37000
8694442;-0.38000
8697220;-0.37000
8699998;-0.35500
8702775;-0.37000
8705553;-0.37000
8708331;-0.38500
8711109;-0.38500
8713886;-0.37500
8716664;-0.36500
8719442;-0.35500
8722220;-0.37000
8724998;-0.38000
8727775;-0.38500
8730553;-0.38000
8733331;-0.36500
8736109;-0.36000
8738886;-0.37500
8741664;-0.37500
8744442;-0.38000
8747220;-0.37000
8749998;-0.36000
8752775;-0.35500
8755553;-0.37000
8758331;-0.36500
8761109;-0.37000
8763886;-0.35500
8766664;-0.34000
8769442;-0.35500
8772220;-0.36500
8774998;-0.38000
8777775;-0.37000
8780553;-0.36500
8783331;-0.35500
8786109;-0.35500
8788886;-0.35500
8791664;-0.36500
8794442;-0.37000
8797220;-0.36000
8799998;-0.35500
8802775;-0.35500
8805553;-0.35500
8808331;-0.36500
8811109;-0.36500
8813886;-0.35500
8816664;-0.34500
8819442;-0.35500
8822220;-0.36500
8824998;-0.37500
8827775;-0.38000
8830553;-0.38000
8833331;-0.36000
8836109;-0.36000
8838886;-0.36000
8841664;-0.38000
8844442;-0.38500
8847220;-0.37000
8849998;-0.37000
8852775;-0.35500
8855553;-0.37000
8858331;-0.37000
8861109;-0.36500
8863886;-0.35500
8866664;-0.33500
8869442;-0.33500
8872220;-0.33500
8874998;-0.33500
8877775;-0.32000
8880553;-0.29500
8883331;-0.28500
8886109;-0.27000
8888886;-0.28000
8891664;-0.27500
8894442;-0.29000
8897220;-0.26500
8899998;-0.26000
8902775;-0.26000
8905553;-0.26000
8908331;-0.26500
8911109;-0.26500
8913886;-0.24500
8916664;-0.24500
8919442;-0.24500
8922220;-0.25500
8924998;-0.26000
8927775;-0.26000
8930553;-0.25500
8933331;-0.24000
8936109;-0.23000
8938886;-0.25500
8941664;-0.26000
8944442;-0.26000
8947220;-0.24000
8949997;-0.23500
8952775;-0.23500
8955553;-0.25000
8958331;-0.25000
8961109;-0.24500
8963886;-0.25000
8966664;-0.24500
8969442;-0.25000
8972220;-0.26500
8974997;-0.27000
8977775;-0.27000
8980553;-0.26500
8983331;-0.26000
8986109;-0.25500
8988886;-0.26000
8991664;-0.28000
8994442;-0.27500
8997220;-0.27000
8999997;-0.26500
9002775;-0.26500
9005553;-0.27500
9008331;-0.28500
9011109;-0.28500
9013886;-0.27000
9016664;-0.26000
9019442;-0.26000
9022220;-0.26000
9024997;-0.26500
9027775;-0.27000
9030553;-0.26500
9033331;-0.25000
9036109;-0.26000
9038886;-0.26500
9041664;-0.28000
9044442;-0.28500
9047220;-0.27000
9049997;-0.26500
9052775;-0.27000
9055553;-0.28000
9058331;-0.29000
9061109;-0.30500
9063886;-0.29000
9066664;-0.28000
9069442;-0.29000
9072220;-0.29500
9074997;-0.30000
9077775;-0.29500
9080553;-0.30500
9083331;-0.29000
9086109;-0.29000
9088886;-0.30000
9091664;-0.30500
9094442;-0.30500
9097220;-0.29500
9099997;-0.29000
9102775;-0.28500
9105553;-0.28000
9108331;-0.29000
9111109;-0.30000
9113886;-0.28000
9116664;-0.28000
9119442;-0.27500
9122220;-0.28000
9124997;-0.28000
9127775;-0.28500
9130553;-0.27500
9133331;-0.26500
9136109;-0.26500
9138886;-0.27000
9141664;-0.26000
9144442;-0.25500
9147220;-0.24000
9149997;-0.23500
9152775;-0.22500
9155553;-0.22500
9158331;-0.23000
9161109;-0.22500
9163886;-0.21500
9166664;-0.20500
9169442;-0.21000
9172220;-0.20500
9174997;-0.20500
9177775;-0.19000
9180553;-0.17500
9183331;-0.15500
9186109;-0.15500
9188886;-0.15000
9191664;-0.16000
9194442;-0.16000
9197220;-0.16000
9199997;-0.17000
9202775;-0.16000
9205553;-0.17000
9208331;-0.17500
9211109;-0.18000
9213886;-0.17000
9216664;-0.17000
9219442;-0.16000
9222220;-0.15500
9224997;-0.13500
9227775;-0.14000
9230553;-0.17500
9233331;-0.21500
9236109;-0.23000
9238886;-0.23500
9241664;-0.26500
9244442;-0.26000
9247220;-0.27000
9249997;-0.27500
9252775;-0.28000
9255553;-0.29000
9258331;-0.29000
9261109;-0.29500
9263886;-0.29500
9266664;-0.29500
9269442;-0.30000
9272220;-0.31500
9274997;-0.32500
9277775;-0.31000
9280553;-0.32000
9283331;-0.31500
9286109;-0.30000
9288886;-0.32000
9291664;-0.33000
9294442;-0.32000
9297220;-0.32000
9299997;-0.30500
9302775;-0.30000
9305553;-0.31500
9308331;-0.32500
9311109;-0.33000
9313886;-0.31000
9316664;-0.29500
9319442;-0.29500
9322220;-0.31000
9324997;-0.34000
9327775;-0.36500
9330553;-0.39500
9333331;-0.42000
9336108;-0.44000
9338886;-0.47500
9341664;-0.52000
9344442;-0.52500
9347220;-0.46500
9349997;-0.34500
9352775;-0.21000
9355553;-0.07000
9358331;0.13500
9361108;0.41000
9363886;0.66000
9366664;0.83000
9369442;0.85000
9372220;0.69000
9374997;0.35000
9377775;-0.06000
9380553;-0.34500
9383331;-0.47500
9386108;-0.47000
9388886;-0.42000
9391664;-0.37500
9394442;-0.37000
9397220;-0.36000
9399997;-0.36000
9402775;-0.34500
9405553;-0.35500
9408331;-0.36000
9411108;-0.37000
9413886;-0.36000
9416664;-0.35500
9419442;-0.35000
9422220;-0.36000
9424997;-0.37000
9427775;-0.37500
9430553;-0.35500
9433331;-0.34500
9436108;-0.34000
9438886;-0.33500
9441664;-0.35000
9444442;-0.34500
9447220;-0.34500
9449997;-0.33500
9452775;-0.34000
9455553;-0.35500
9458331;-0.35500
9461108;-0.35500
9463886;-0.34500
9466664;-0.35000
9469442;-0.34000
9472220;-0.35500
9474997;-0.36000
9477775;-0.36000
9480553;-0.34000
9483331;-0.34000
9486108;-0.34500
9488886;-0.35500
9491664;-0.35000
9494442;-0.35500
9497220;-0.35500
9499997;-0.34500
9502775;-0.33500
9505553;-0.34000
9508331;-0.33500
9511108;-0.35500
9513886;-0.34500
9516664;-0.33000
9519442;-0.33000
9522220;-0.32500
9524997;-0.35000
9527775;-0.34500
9530553;-0.33500
9533331;-0.33500
9536108;-0.34000
9538886;-0.34500
9541664;-0.34000
9544442;-0.35000
9547220;-0.34000
9549997;-0.33500
9552775;-0.33500
9555553;-0.35000
9558331;-0.35500
9561108;-0.36500
9563886;-0.35000
9566664;-0.33500
9569442;-0.33000
9572220;-0.33000
9574997;-0.34500
9577775;-0.34000
9580553;-0.33500
9583331;-0.33000
9586108;-0.33000
9588886;-0.33000
9591664;-0.34500
9594442;-0.35000
9597220;-0.34000
9599997;-0.32000
9602775;-0.32500
9605553;-0.33500
9608331;-0.35500
9611108;-0.35000
9613886;-0.34500
9616664;-0.33500
9619442;-0.33500
9622220;-0.35000
9624997;-0.35500
9627775;-0.35000
9630553;-0.34500
9633331;-0.33500
9636108;-0.33500
9638886;-0.34500
9641664;-0.34500
9644442;-0.35500
9647220;-0.34000
9649997;-0.32500
9652775;-0.31500
9655553;-0.31000
9658331;-0.31000
9661108;-0.31000
9663886;-0.29500
9666664;-0.27500
9669442;-0.27500
9672220;-0.26500
9674997;-0.27000
9677775;-0.26500
9680553;-0.26000
9683331;-0.24500
9686108;-0.25000
9688886;-0.24500
9691664;-0.25000
9694442;-0.24500
9697220;-0.24500
9699997;-0.23500
9702775;-0.23000
9705553;-0.22500
9708331;-0.24000
9711108;-0.24000
9713886;-0.23500
9716664;-0.22000
9719442;-0.22000
9722220;-0.24000
9724997;-0.24500
9727775;-0.24500
9730553;-0.23500
9733331;-0.23500
9736108;-0.22500
9738886;-0.23000
9741664;-0.24000
9744442;-0.25000
9747219;-0.23500
9749997;-0.23000
9752775;-0.22500
9755553;-0.23000
9758331;-0.24000
9761108;-0.24500
9763886;-0.24000
9766664;-0.24500
9769442;-0.25000
9772219;-0.25000
9774997;-0.26000
9777775;-0.25500
9780553;-0.26000
9783331;-0.24500
9786108;-0.25500
9788886;-0.26000
9791664;-0.27000
9794442;-0.26500
9797219;-0.25000
9799997;-0.23500
9802775;-0.24000
9805553;-0.23000
9808331;-0.25500
9811108;-0.26000
9813886;-0.27500
9816664;-0.25500
9819442;-0.24500
9822219;-0.26000
9824997;-0.26500
9827775;-0.26500
9830553;-0.26500
9833331;-0.26000
9836108;-0.26000
9838886;-0.28500
9841664;-0.29500
9844442;-0.29000
9847219;-0.28500
9849997;-0.27000
9852775;-0.28500
9855553;-0.29000
9858331;-0.29000
9861108;-0.28500
9863886;-0.27500
9866664;-0.27000
9869442;-0.27000
9872219;-0.27000
9874997;-0.27000
9877775;-0.27500
9880553;-0.26500
9883331;-0.26000
9886108;-0.26500
9888886;-0.27000
9891664;-0.29500
9894442;-0.29500
9897219;-0.29000
9899997;-0.27500
9902775;-0.27000
9905553;-0.27500
9908331;-0.29000
9911108;-0.30000
9913886;-0.29000
9916664;-0.28000
9919442;-0.27500
9922219;-0.28500
9924997;-0.29500
9927775;-0.29500
9930553;-0.28000
9933331;-0.27500
9936108;-0.25000
9938886;-0.24500
9941664;-0.25000
9944442;-0.24000
9947219;-0.22000
9949997;-0.22000
9952775;-0.22000
9955553;-0.22000
9958331;-0.22000
9961108;-0.22500
9963886;-0.21000
9966664;-0.19500
9969442;-0.19000
9972219;-0.19500
9974997;-0.19000
9977775;-0.18000
9980553;-0.17000
9983331;-0.17000
9986108;-0.16000
9988886;-0.18000
9991664;-0.19000
9994442;-0.19500
9997219;-0.20500
9999997;-0.19000
10002775;-0.19000
10005553;-0.18000
10008331;-0.19000
10011108;-0.19000
10013886;-0.19000
10016664;-0.17500
10019442;-0.16000
10022219;-0.15000
10024997;-0.14500
10027775;-0.15500
10030553;-0.18500
10033331;-0.19500
10036108;-0.22000
10038886;-0.22000
10041664;-0.24500
10044442;-0.26500
10047219;-0.28000
10049997;-0.29000
10052775;-0.29500
10055553;-0.30000
10058331;-0.31500
10061108;-0.31500
10063886;-0.29500
10066664;-0.29500
10069442;-0.29500
10072219;-0.28500
10074997;-0.30500
10077775;-0.31000
10080553;-0.30000
10083331;-0.30500
10086108;-0.31500
10088886;-0.32500
10091664;-0.33000
10094442;-0.33000
10097219;-0.33000
10099997;-0.32500
10102775;-0.31500
10105553;-0.32500
10108331;-0.34500
10111108;-0.34500
10113886;-0.34000
10116664;-0.32000
10119442;-0.32000
10122219;-0.34500
10124997;-0.34500
10127775;-0.37000
10130553;-0.39500
10133330;-0.42000
10136108;-0.44500
10138886;-0.46500
10141664;-0.50000
10144442;-0.53500
10147219;-0.53000
10149997;-0.48000
10152775;-0.39000
10155553;-0.26500
10158330;-0.15000
10161108;0.04500
10163886;0.29500
10166664;0.54500
10169442;0.74500
10172219;0.83500
10174997;0.80000
10177775;0.60500
10180553;0.28000
10183330;-0.05500
10186108;-0.31000
10188886;-0.47000
10191664;-0.51000
10194442;-0.48000
10197219;-0.42500
10199997;-0.40000
10202775;-0.38500
10205553;-0.40500
10208330;-0.41000
10211108;-0.40000
10213886;-0.38500
10216664;-0.38000
10219442;-0.38000
10222219;-0.37500
10224997;-0.37500
10227775;-0.39500
10230553;-0.38000
10233330;-0.38500
10236108;-0.38000
10238886;-0.38000
10241664;-0.38500
10244442;-0.38500
10247219;-0.38000
10249997;-0.38500
10252775;-0.38500
10255553;-0.39500
10258330;-0.39500
10261108;-0.40000
10263886;-0.39500
10266664;-0.39500
10269442;-0.39500
10272219;-0.39500
10274997;-0.41500
10277775;-0.41500
10280553;-0.40500
10283330;-0.39500
10286108;-0.40000
10288886;-0.40000
10291664;-0.42000
10294442;-0.42000
10297219;-0.41000
10299997;-0.39000
10302775;-0.39000
10305553;-0.39000
10308330;-0.40500
10311108;-0.41000
10313886;-0.40500
10316664;-0.39500
10319442;-0.39000
10322219;-0.40000
10324997;-0.41000
10327775;-0.42000
10330553;-0.41500
10333330;-0.40500
10336108;-0.40000
10338886;-0.40500
10341664;-0.42000
10344442;-0.42000
10347219;-0.40500
10349997;-0.40000
10352775;-0.39500
10355553;-0.40000
10358330;-0.40500
10361108;-0.41500
10363886;-0.40500
10366664;-0.39500
10369442;-0.40500
10372219;-0.40500
10374997;-0.41500
10377775;-0.40500
10380553;-0.39500
10383330;-0.39500
10386108;-0.38500
10388886;-0.39000
10391664;-0.40000
10394442;-0.41500
10397219;-0.40500
10399997;-0.41500
10402775;-0.41500
10405553;-0.41000
10408330;-0.43000
10411108;-0.42500
10413886;-0.42500
10416664;-0.42500
10419442;-0.43000
10422219;-0.43500
10424997;-0.43000
10427775;-0.44000
10430553;-0.43000
10433330;-0.41000
10436108;-0.41000
10438886;-0.42000
10441664;-0.43000
10444442;-0.44000
10447219;-0.43500
10449997;-0.42500
10452775;-0.44000
10455553;-0.44000
10458330;-0.45500
10461108;-0.45500
10463886;-0.42500
10466664;-0.41500
10469442;-0.40500
10472219;-0.42000
10474997;-0.41000
10477775;-0.41000
10480553;-0.39500
10483330;-0.38000
10486108;-0.37000
10488886;-0.37000
10491664;-0.36500
10494442;-0.36000
10497219;-0.33500
10499997;-0.32000
10502775;-0.31000
10505553;-0.32000
10508330;-0.32000
10511108;-0.32500
10513886;-0.29500
10516664;-0.29500
10519441;-0.29000
10522219;-0.29500
10524997;-0.30500
10527775;-0.30500
10530553;-0.29500
10533330;-0.29000
10536108;-0.27500
10538886;-0.30000
10541664;-0.31000
10544441;-0.30000
10547219;-0.29500
10549997;-0.28500
10552775;-0.30000
10555553;-0.29500
10558330;-0.30500
10561108;-0.31000
10563886;-0.30500
10566664;-0.29500
10569441;-0.29500
10572219;-0.31000
10574997;-0.31000
10577775;-0.31000
10580553;-0.30000
10583330;-0.31000
10586108;-0.30000
10588886;-0.30500
10591664;-0.30500
10594441;-0.31500
10597219;-0.31000
10599997;-0.30500
10602775;-0.29500
10605553;-0.31000
10608330;-0.31500
10611108;-0.32500
10613886;-0.31000
10616664;-0.29500
10619441;-0.30500
10622219;-0.31000
10624997;-0.32000
10627775;-0.33000
10630553;-0.30500
10633330;-0.31000
10636108;-0.31000
10638886;-0.33500
10641664;-0.32500
10644441;-0.33500
10647219;-0.33500
10649997;-0.33000
10652775;-0.33000
10655553;-0.33500
10658330;-0.34000
10661108;-0.34000
10663886;-0.34000
10666664;-0.32000
10669441;-0.32000
10672219;-0.33500
10674997;-0.35000
10677775;-0.36000
10680553;-0.35500
10683330;-0.33000
10686108;-0.33500
10688886;-0.33000
10691664;-0.34000
10694441;-0.35000
10697219;-0.35000
10699997;-0.33000
10702775;-0.33000
10705553;-0.34000
10708330;-0.35000
10711108;-0.35000
10713886;-0.35500
10716664;-0.34500
10719441;-0.35000
10722219;-0.33500
10724997;-0.34500
10727775;-0.34000
10730553;-0.33500
10733330;-0.32500
10736108;-0.32500
10738886;-0.32000
10741664;-0.33000
10744441;-0.33500
10747219;-0.33500
10749997;-0.32000
10752775;-0.32000
10755553;-0.32000
10758330;-0.32500
10761108;-0.31500
10763886;-0.30500
10766664;-0.28000
10769441;-0.29000
10772219;-0.28500
10774997;-0.28000
10777775;-0.28000
10780553;-0.27500
10783330;-0.25500
10786108;-0.25000
10788886;-0.26000
10791664;-0.26500
10794441;-0.26000
10797219;-0.24500
10799997;-0.23000
10802775;-0.23000
10805553;-0.22000
10808330;-0.22500
10811108;-0.23000
10813886;-0.21500
10816664;-0.20500
10819441;-0.20000
10822219;-0.21500
10824997;-0.22000
10827775;-0.24000
10830553;-0.22500
10833330;-0.20500
10836108;-0.20000
10838886;-0.20500
10841664;-0.21000
10844441;-0.20000
10847219;-0.20000
10849997;-0.18000
10852775;-0.21000
10855553;-0.25500
10858330;-0.27500
10861108;-0.28500
10863886;-0.29000
10866664;-0.30500
10869441;-0.31000
10872219;-0.32500
10874997;-0.35000
10877775;-0.35000
10880553;-0.35000
10883330;-0.34500
10886108;-0.35000
10888886;-0.33000
10891664;-0.35000
10894441;-0.35000
10897219;-0.35500
10899997;-0.34500
10902775;-0.34000
10905553;-0.35500
10908330;-0.35500
10911108;-0.35500
10913886;-0.34500
10916664;-0.35000
10919441;-0.34000
10922219;-0.35000
10924997;-0.35000
10927775;-0.36500
10930552;-0.35500
10933330;-0.35000
10936108;-0.35500
10938886;-0.36000
10941664;-0.36500
10944441;-0.37500
10947219;-0.37500
10949997;-0.37000
10952775;-0.39000
10955552;-0.43000
10958330;-0.48500
10961108;-0.49000
10963886;-0.51000
10966664;-0.52500
10969441;-0.56500
10972219;-0.56500
10974997;-0.50500
10977775;-0.40500
10980552;-0.26500
10983330;-0.12500
10986108;0.05500
10988886;0.29500
10991664;0.54500
10994441;0.74000
10997219;0.86500
10999997;0.86500
11002775;0.69500
11005552;0.36000
11008330;-0.04000
11011108;-0.33500
11013886;-0.48500
11016664;-0.51500
11019441;-0.49500
11022219;-0.46000
11024997;-0.43500
11027775;-0.43000
11030552;-0.42000
11033330;-0.41500
11036108;-0.41000
11038886;-0.40000
11041664;-0.41000
11044441;-0.41500
11047219;-0.40500
11049997;-0.39500
11052775;-0.39000
11055552;-0.38500
11058330;-0.38500
11061108;-0.40500
11063886;-0.39000
11066664;-0.38500
11069441;-0.38000
11072219;-0.39000
11074997;-0.40000
11077775;-0.40500
11080552;-0.39500
11083330;-0.39500
11086108;-0.38500
11088886;-0.40000
11091664;-0.41500
11094441;-0.41500
11097219;-0.40500
11099997;-0.39000
11102775;-0.41000
11105552;-0.40000
11108330;-0.40500
11111108;-0.40000
11113886;-0.40000
11116664;-0.39000
11119441;-0.39000
11122219;-0.39500
11124997;-0.40500
11127775;-0.41000
11130552;-0.40500
11133330;-0.39000
11136108;-0.37500
11138886;-0.38500
11141664;-0.39500
11144441;-0.39000
11147219;-0.40000
11149997;-0.38500
11152775;-0.37500
11155552;-0.39000
11158330;-0.40000
11161108;-0.39500
11163886;-0.39500
11166664;-0.38000
11169441;-0.38000
11172219;-0.39000
11174997;-0.40000
11177775;-0.40500
11180552;-0.39000
11183330;-0.38500
11186108;-0.38500
11188886;-0.39000
11191664;-0.40000
11194441;-0.40000
11197219;-0.39500
11199997;-0.38500
11202775;-0.37500
11205552;-0.39000
11208330;-0.39500
11211108;-0.40000
11213886;-0.39000
11216664;-0.39000
11219441;-0.37000
11222219;-0.38500
11224997;-0.40000
11227775;-0.39500
11230552;-0.39500
11233330;-0.39000
11236108;-0.39000
11238886;-0.39500
11241664;-0.40500
11244441;-0.42000
11247219;-0.41500
11249997;-0.40500
11252775;-0.40500
11255552;-0.40000
11258330;-0.41000
11261108;-0.41000
11263886;-0.41000
11266664;-0.40500
11269441;-0.41000
11272219;-0.41000
11274997;-0.42000
11277775;-0.42500
11280552;-0.41000
11283330;-0.39500
11286108;-0.39000
11288886;-0.39000
11291664;-0.39500
11294441;-0.37000
11297219;-0.35000
11299997;-0.32500
11302775;-0.32000
11305552;-0.31000
11308330;-0.32000
11311108;-0.31500
11313886;-0.30000
11316663;-0.28500
11319441;-0.28000
11322219;-0.28500
11324997;-0.28500
11327775;-0.28500
11330552;-0.27000
11333330;-0.26000
11336108;-0.26500
11338886;-0.26500
11341663;-0.26500
11344441;-0.28000
11347219;-0.27000
11349997;-0.27000
11352775;-0.25500
11355552;-0.27500
11358330;-0.27500
11361108;-0.28000
11363886;-0.27500
11366663;-0.27000
11369441;-0.26000
11372219;-0.26500
11374997;-0.27000
11377775;-0.27000
11380552;-0.26000
11383330;-0.25500
11386108;-0.25000
11388886;-0.25500
11391663;-0.27000
11394441;-0.27000
11397219;-0.27500
11399997;-0.27000
11402775;-0.27000
11405552;-0.27500
11408330;-0.28500
11411108;-0.28500
11413886;-0.29000
11416663;-0.27000
11419441;-0.28000
11422219;-0.29000
11424997;-0.29500
11427775;-0.30000
11430552;-0.29500
11433330;-0.28500
11436108;-0.28500
11438886;-0.29500
11441663;-0.30000
11444441;-0.30500
11447219;-0.30500
11449997;-0.28500
11452775;-0.28500
11455552;-0.28500
11458330;-0.30500
11461108;-0.30500
11463886;-0.30500
11466663;-0.30000
11469441;-0.30500
11472219;-0.29500
11474997;-0.31500
11477775;-0.32000
11480552;-0.33000
11483330;-0.31000
11486108;-0.31000
11488886;-0.31500
11491663;-0.32000
11494441;-0.32000
11497219;-0.29500
11499997;-0.29000
11502775;-0.28000
11505552;-0.29000
11508330;-0.30500
11511108;-0.30500
11513886;-0.30500
11516663;-0.29000
11519441;-0.29500
11522219;-0.30500
11524997;-0.31500
11527775;-0.32500
11530552;-0.30500
11533330;-0.30000
11536108;-0.29500
11538886;-0.29500
11541663;-0.29500
11544441;-0.31500
11547219;-0.29500
11549997;-0.26500
11552775;-0.25500
11555552;-0.26500
11558330;-0.25500
11561108;-0.25500
11563886;-0.23000
11566663;-0.22500
11569441;-0.21500
11572219;-0.21000
11574997;-0.20500
11577775;-0.21000
11580552;-0.18500
11583330;-0.18000
11586108;-0.16500
11588886;-0.18000
11591663;-0.18500
11594441;-0.20000
11597219;-0.20500
11599997;-0.20000
11602775;-0.20000
11605552;-0.19500
11608330;-0.20000
11611108;-0.20000
11613886;-0.19500
11616663;-0.17500
11619441;-0.15500
11622219;-0.15000
11624997;-0.16000
11627775;-0.20000
11630552;-0.23500
11633330;-0.22500
11636108;-0.22500
11638886;-0.23000
11641663;-0.25000
11644441;-0.28000
11647219;-0.26500
11649997;-0.26500
11652775;-0.27000
11655552;-0.30000
11658330;-0.33000
11661108;-0.34000
11663886;-0.33000
11666663;-0.31500
11669441;-0.31500
11672219;-0.33500
11674997;-0.34000
11677775;-0.35500
11680552;-0.33500
11683330;-0.33500
11686108;-0.33500
11688886;-0.33500
11691663;-0.34000
11694441;-0.34500
11697219;-0.34000
11699997;-0.34500
11702775;-0.33500
11705552;-0.34000
11708330;-0.35000
11711108;-0.35000
11713886;-0.34000
11716663;-0.33500
11719441;-0.33000
11722219;-0.34500
11724997;-0.37000
11727774;-0.40000
11730552;-0.43000
11733330;-0.46500
11736108;-0.48500
11738886;-0.52000
11741663;-0.56000
11744441;-0.54500
11747219;-0.46000
11749997;-0.32000
11752774;-0.17500
11755552;-0.00500
11758330;0.24500
11761108;0.51500
11763886;0.73000
11766663;0.85000
11769441;0.83000
11772219;0.64000
11774997;0.29500
11777774;-0.11500
11780552;-0.39500
11783330;-0.52000
11786108;-0.50500
11788886;-0.45000
11791663;-0.41500
11794441;-0.40000
11797219;-0.39000
11799997;-0.37500
11802774;-0.37500
11805552;-0.38000
11808330;-0.39000
11811108;-0.40500
11813886;-0.40000
11816663;-0.39000
11819441;-0.39000
11822219;-0.40000
11824997;-0.41000
11827774;-0.41000
11830552;-0.41000
11833330;-0.39500
11836108;-0.39500
11838886;-0.39000
11841663;-0.40500
11844441;-0.41500
11847219;-0.40500
11849997;-0.40500
11852774;-0.39000
11855552;-0.39500
11858330;-0.41500
11861108;-0.42500
11863886;-0.40500
11866663;-0.39000
11869441;-0.37500
11872219;-0.38500
11874997;-0.39500
11877774;-0.40000
11880552;-0.39000
11883330;-0.39000
11886108;-0.37500
11888886;-0.38500
11891663;-0.39000
11894441;-0.40000
11897219;-0.39500
11899997;-0.39000
11902774;-0.38000
11905552;-0.39000
11908330;-0.39500
11911108;-0.39500
11913886;-0.38500
11916663;-0.38000
11919441;-0.38500
11922219;-0.39000
11924997;-0.39000
11927774;-0.40500
11930552;-0.40500
11933330;-0.38000
11936108;-0.38500
11938886;-0.39000
11941663;-0.39500
11944441;-0.39500
11947219;-0.37500
11949997;-0.38000
11952774;-0.37000
11955552;-0.37500
11958330;-0.37000
11961108;-0.38000
11963886;-0.37500
11966663;-0.37000
11969441;-0.37500
11972219;-0.37000
11974997;-0.38500
11977774;-0.38500
11980552;-0.37500
11983330;-0.37000
11986108;-0.37000
11988886;-0.38500
11991663;-0.38500
11994441;-0.39000
11997219;-0.37500
11999997;-0.36500
12002774;-0.36500
12005552;-0.37000
12008330;-0.38000
12011108;-0.38500
12013886;-0.38000
12016663;-0.37500
12019441;-0.37000
12022219;-0.38000
12024997;-0.38500
12027774;-0.39500
12030552;-0.38500
12033330;-0.37500
12036108;-0.37500
12038886;-0.37500
12041663;-0.37500
12044441;-0.38500
12047219;-0.38000
12049997;-0.35500
12052774;-0.34000
12055552;-0.34000
12058330;-0.34500
12061108;-0.35000
12063886;-0.33500
12066663;-0.33000
12069441;-0.32500
12072219;-0.33000
12074997;-0.32000
12077774;-0.32000
12080552;-0.30000
12083330;-0.29500
12086108;-0.28500
12088886;-0.28000
12091663;-0.29000
12094441;-0.28500
12097219;-0.28000
12099997;-0.26500
12102774;-0.27000
12105552;-0.28500
12108330;-0.28500
12111108;-0.29500
12113885;-0.29000
12116663;-0.27500
12119441;-0.27500
12122219;-0.27500
12124997;-0.28000
12127774;-0.28500
12130552;-0.26500
12133330;-0.27000
12136108;-0.26500
12138885;-0.28000
12141663;-0.29500
12144441;-0.31500
12147219;-0.30000
12149997;-0.28500
12152774;-0.29500
12155552;-0.29500
12158330;-0.30500
12161108;-0.31500
12163885;-0.31000
12166663;-0.29500
12169441;-0.29000
12172219;-0.30000
12174997;-0.31500
12177774;-0.32000
12180552;-0.31000
12183330;-0.30500
12186108;-0.30000
12188885;-0.30000
12191663;-0.31000
12194441;-0.31500
12197219;-0.31000
12199997;-0.30500
12202774;-0.31000
12205552;-0.32000
12208330;-0.32500
12211108;-0.34000
12213885;-0.33000
12216663;-0.32000
12219441;-0.32000
12222219;-0.33000
12224997;-0.32500
12227774;-0.33500
12230552;-0.33500
12233330;-0.33000
12236108;-0.33500
12238885;-0.33000
12241663;-0.34000
12244441;-0.35500
12247219;-0.33500
12249997;-0.32500
12252774;-0.34000
12255552;-0.33000
12258330;-0.33500
12261108;-0.32500
12263885;-0.32000
12266663;-0.30500
12269441;-0.31000
12272219;-0.33000
12274997;-0.33500
12277774;-0.34000
12280552;-0.32500
12283330;-0.33000
12286108;-0.32500
12288885;-0.33000
12291663;-0.33500
12294441;-0.34000
12297219;-0.33000
12299997;-0.32500
12302774;-0.31500
12305552;-0.32000
12308330;-0.31500
12311108;-0.33500
12313885;-0.32000
12316663;-0.30000
12319441;-0.30500
12322219;-0.29500
12324997;-0.29000
12327774;-0.29500
12330552;-0.27500
12333330;-0.27000
12336108;-0.25500
12338885;-0.26000
12341663;-0.24500
12344441;-0.24500
12347219;-0.24500
12349997;-0.23000
12352774;-0.22500
12355552;-0.21000
12358330;-0.20000
12361108;-0.21000
12363885;-0.21000
12366663;-0.20000
12369441;-0.21000
12372219;-0.22000
12374997;-0.22000
12377774;-0.22500
12380552;-0.21000
12383330;-0.21000
12386108;-0.19000
12388885;-0.17000
12391663;-0.16000
12394441;-0.19000
12397219;-0.22000
12399997;-0.25000
12402774;-0.26500
12405552;-0.26500
12408330;-0.28500
12411108;-0.30000
12413885;-0.31000
12416663;-0.30000
12419441;-0.33500
12422219;-0.34000
12424997;-0.36000
12427774;-0.35500
12430552;-0.34500
12433330;-0.33000
12436108;-0.32500
12438885;-0.34000
12441663;-0.35000
12444441;-0.36500
12447219;-0.35500
12449997;-0.34000
12452774;-0.34000
12455552;-0.33500
12458330;-0.35000
12461108;-0.36500
12463885;-0.36000
12466663;-0.35500
12469441;-0.35500
12472219;-0.36000
12474997;-0.39000
12477774;-0.39500
12480552;-0.37000
12483330;-0.37000
12486108;-0.38500
12488885;-0.43000
12491663;-0.47500
12494441;-0.49500
12497219;-0.51500
12499996;-0.55500
12502774;-0.57000
12505552;-0.53000
12508330;-0.42500
12511108;-0.28500
12513885;-0.14000
12516663;0.09000
12519441;0.37000
12522219;0.63500
12524996;0.78500
12527774;0.84000
12530552;0.76500
12533330;0.54000
12536108;0.16000
12538885;-0.23000
12541663;-0.47500
12544441;-0.57000
12547219;-0.56000
12549996;-0.53000
12552774;-0.48500
12555552;-0.44500
12558330;-0.41000
12561108;-0.41000
12563885;-0.41500
12566663;-0.41000
12569441;-0.39500
12572219;-0.39500
12574996;-0.40000
12577774;-0.40000
12580552;-0.40500
12583330;-0.40000
12586108;-0.40000
12588885;-0.39500
12591663;-0.39000
12594441;-0.40500
12597219;-0.40000
12599996;-0.39500
12602774;-0.39500
12605552;-0.40500
12608330;-0.41000
12611108;-0.42000
12613885;-0.40500
12616663;-0.39500
12619441;-0.39000
12622219;-0.39000
12624996;-0.40000
12627774;-0.40000
12630552;-0.39500
12633330;-0.38500
12636108;-0.38000
12638885;-0.38000
12641663;-0.39500
12644441;-0.39500
12647219;-0.38500
12649996;-0.37500
12652774;-0.37500
12655552;-0.39000
12658330;-0.38500
12661108;-0.39000
12663885;-0.38000
12666663;-0.37500
12669441;-0.37000
12672219;-0.38500
12674996;-0.39000
12677774;-0.39500
12680552;-0.38500
12683330;-0.38500
12686108;-0.37000
12688885;-0.38000
12691663;-0.38000
12694441;-0.39500
12697219;-0.38000
12699996;-0.37000
12702774;-0.36500
12705552;-0.37500
12708330;-0.37500
12711108;-0.39000
12713885;-0.38500
12716663;-0.37000
12719441;-0.37000
12722219;-0.36000
12724996;-0.36500
12727774;-0.38000
12730552;-0.36500
12733330;-0.36500
12736108;-0.36000
12738885;-0.36500
12741663;-0.37500
12744441;-0.37500
12747219;-0.37500
12749996;-0.36500
12752774;-0.37500
12755552;-0.39000
12758330;-0.39000
12761108;-0.40000
12763885;-0.38500
12766663;-0.38500
12769441;-0.37500
12772219;-0.38500
12774996;-0.38500
12777774;-0.39500
12780552;-0.38000
12783330;-0.37000
12786108;-0.35500
12788885;-0.36000
12791663;-0.36500
12794441;-0.36500
12797219;-0.37500
12799996;-0.36000
12802774;-0.35500
12805552;-0.34500
12808330;-0.34500
12811108;-0.33500
12813885;-0.32000
12816663;-0.31000
12819441;-0.30000
12822219;-0.28500
12824996;-0.29000
12827774;-0.29000
12830552;-0.28000
12833330;-0.27500
12836108;-0.25500
12838885;-0.26500
12841663;-0.28000
12844441;-0.28000
12847219;-0.28000
12849996;-0.27500
12852774;-0.27000
12855552;-0.26500
12858330;-0.28000
12861108;-0.27000
12863885;-0.26500
12866663;-0.25500
12869441;-0.26500
12872219;-0.28000
12874996;-0.29000
12877774;-0.29000
12880552;-0.28000
12883330;-0.26000
12886108;-0.26500
12888885;-0.26500
12891663;-0.28500
12894441;-0.29500
12897219;-0.27500
12899996;-0.28000
12902774;-0.27000
12905552;-0.27500
12908330;-0.28000
12911107;-0.28500
12913885;-0.29500
12916663;-0.28000
12919441;-0.27000
12922219;-0.28500
12924996;-0.29000
12927774;-0.30000
12930552;-0.29000
12933330;-0.28000
12936107;-0.28500
12938885;-0.29000
12941663;-0.30500
12944441;-0.32000
12947219;-0.31000
12949996;-0.30500
12952774;-0.29000
12955552;-0.30000
12958330;-0.31500
12961107;-0.32000
12963885;-0.31500
12966663;-0.31500
12969441;-0.31500
12972219;-0.31000
12974996;-0.30500
12977774;-0.31000
12980552;-0.31000
12983330;-0.30500
12986107;-0.30500
12988885;-0.31500
12991663;-0.33500
12994441;-0.33500
12997219;-0.32500
12999996;-0.31500
13002774;-0.30500
13005552;-0.31000
13008330;-0.32000
13011107;-0.34000
13013885;-0.33500
13016663;-0.32500
13019441;-0.32000
13022219;-0.31500
13024996;-0.32500
13027774;-0.33000
13030552;-0.32500
13033330;-0.31000
13036107;-0.31000
13038885;-0.31500
13041663;-0.31000
13044441;-0.32000
13047219;-0.30500
13049996;-0.29500
13052774;-0.29000
13055552;-0.29000
13058330;-0.30000
13061107;-0.31500
13063885;-0.31000
13066663;-0.30500
13069441;-0.30500
13072219;-0.31000
13074996;-0.31000
13077774;-0.31000
13080552;-0.30000
13083330;-0.27500
13086107;-0.26500
13088885;-0.27000
13091663;-0.27500
13094441;-0.27000
13097219;-0.25500
13099996;-0.25000
13102774;-0.23500
13105552;-0.23500
13108330;-0.24000
13111107;-0.23500
13113885;-0.22500
13116663;-0.21000
13119441;-0.20000
13122219;-0.20000
13124996;-0.19000
13127774;-0.20500
13130552;-0.19500
13133330;-0.20500
13136107;-0.21000
13138885;-0.21500
13141663;-0.21500
13144441;-0.22500
13147219;-0.21500
13149996;-0.19500
13152774;-0.17000
13155552;-0.17000
13158330;-0.20500
13161107;-0.25000
13163885;-0.24500
13166663;-0.25000
13169441;-0.26000
13172219;-0.28500
13174996;-0.30500
13177774;-0.33500
13180552;-0.34000
13183330;-0.33000
13186107;-0.33500
13188885;-0.32000
13191663;-0.33000
13194441;-0.34000
13197219;-0.34000
13199996;-0.35500
13202774;-0.33500
13205552;-0.35000
13208330;-0.35500
13211107;-0.37000
13213885;-0.35500
13216663;-0.34500
13219441;-0.35500
13222219;-0.35500
13224996;-0.36500
13227774;-0.36500
13230552;-0.35000
13233330;-0.34000
13236107;-0.33000
13238885;-0.35000
13241663;-0.36000
13244441;-0.37000
13247219;-0.37000
13249996;-0.37500
13252774;-0.40000
13255552;-0.43000
13258330;-0.46000
13261107;-0.48000
13263885;-0.49500
13266663;-0.54500
13269441;-0.56000
13272219;-0.51000
13274996;-0.41500
13277774;-0.30000
13280552;-0.13000
13283330;0.08000
13286107;0.34500
13288885;0.61000
13291663;0.78500
13294441;0.84500
13297218;0.74000
13299996;0.46000
13302774;0.07500
13305552;-0.26500
13308330;-0.46000
13311107;-0.53000
13313885;-0.50500
13316663;-0.46000
13319441;-0.42000
13322218;-0.40500
13324996;-0.41500
13327774;-0.42500
13330552;-0.40000
13333330;-0.39500
13336107;-0.38500
13338885;-0.40000
13341663;-0.42500
13344441;-0.41000
13347218;-0.40000
13349996;-0.40000
13352774;-0.39500
13355552;-0.40000
13358330;-0.41000
13361107;-0.42000
13363885;-0.41500
13366663;-0.41500
13369441;-0.40500
13372218;-0.41000
13374996;-0.41000
13377774;-0.42500
13380552;-0.42000
13383330;-0.40500
13386107;-0.41000
13388885;-0.40500
13391663;-0.42500
13394441;-0.43000
13397218;-0.43000
13399996;-0.41000
13402774;-0.41500
13405552;-0.41000
13408330;-0.41000
13411107;-0.42500
13413885;-0.42500
13416663;-0.41000
13419441;-0.40000
13422218;-0.40500
13424996;-0.41500
13427774;-0.43500
13430552;-0.41500
13433330;-0.41000
13436107;-0.40500
13438885;-0.43000
13441663;-0.44000
13444441;-0.44000
13447218;-0.42000
13449996;-0.41000
13452774;-0.42000
13455552;-0.43000
13458330;-0.42000
13461107;-0.43000
13463885;-0.41000
13466663;-0.39500
13469441;-0.40000
13472218;-0.39000
13474996;-0.40500
13477774;-0.41000
13480552;-0.41000
13483330;-0.40000
13486107;-0.40000
13488885;-0.40500
13491663;-0.40500
13494441;-0.41500
13497218;-0.41500
13499996;-0.39500
13502774;-0.40500
13505552;-0.42500
13508330;-0.42500
13511107;-0.43000
13513885;-0.41000
13516663;-0.40500
13519441;-0.41000
13522218;-0.42500
13524996;-0.43500
13527774;-0.44500
13530552;-0.44500
13533330;-0.44500
13536107;-0.43500
13538885;-0.44500
13541663;-0.45000
13544441;-0.45500
13547218;-0.45500
13549996;-0.44000
13552774;-0.44500
13555552;-0.45500
13558330;-0.46500
13561107;-0.47000
13563885;-0.45500
13566663;-0.45000
13569441;-0.44500
13572218;-0.43500
13574996;-0.44000
13577774;-0.43500
13580552;-0.41500
13583330;-0.39000
13586107;-0.38000
13588885;-0.37000
13591663;-0.37000
13594441;-0.37000
13597218;-0.34500
13599996;-0.33500
13602774;-0.33000
13605552;-0.32000
13608330;-0.33000
13611107;-0.33000
13613885;-0.31500
13616663;-0.30000
13619441;-0.30000
13622218;-0.29500
13624996;-0.30500
13627774;-0.32000
13630552;-0.30000
13633330;-0.28500
13636107;-0.28500
13638885;-0.29500
13641663;-0.30000
13644441;-0.30500
13647218;-0.30500
13649996;-0.29500
13652774;-0.28500
13655552;-0.29000
13658330;-0.30000
13661107;-0.30500
13663885;-0.29500
13666663;-0.29000
13669441;-0.29500
13672218;-0.31000
13674996;-0.31000
13677774;-0.31500
13680552;-0.30500
13683330;-0.29500
13686107;-0.29500
13688885;-0.29500
13691663;-0.31000
13694441;-0.31500
13697218;-0.29500
13699996;-0.30500
13702774;-0.29500
13705552;-0.31500
13708329;-0.31500
13711107;-0.33000
13713885;-0.32500
13716663;-0.33500
13719441;-0.32000
13722218;-0.32500
13724996;-0.32500
13727774;-0.34500
13730552;-0.33000
13733329;-0.31500
13736107;-0.32000
13738885;-0.33000
13741663;-0.33500
13744441;-0.34500
13747218;-0.34000
13749996;-0.33000
13752774;-0.32000
13755552;-0.33500
13758329;-0.34000
13761107;-0.34500
13763885;-0.35500
13766663;-0.34000
13769441;-0.33500
13772218;-0.34500
13774996;-0.35000
13777774;-0.36500
13780552;-0.35500
13783329;-0.34000
13786107;-0.34000
13788885;-0.34000
13791663;-0.35000
13794441;-0.36500
13797218;-0.35000
13799996;-0.35000
13802774;-0.33500
13805552;-0.34000
13808329;-0.34000
13811107;-0.35000
13813885;-0.33500
13816663;-0.33000
13819441;-0.33000
13822218;-0.33500
13824996;-0.33000
13827774;-0.34500
13830552;-0.34000
13833329;-0.33000
13836107;-0.32500
13838885;-0.32000
13841663;-0.34000
13844441;-0.34500
13847218;-0.33500
13849996;-0.32000
13852774;-0.30500
13855552;-0.30000
13858329;-0.30000
13861107;-0.30000
13863885;-0.28500
13866663;-0.27000
13869441;-0.26000
13872218;-0.26000
13874996;-0.25500
13877774;-0.27500
13880552;-0.26500
13883329;-0.24000
13886107;-0.23500
13888885;-0.23500
13891663;-0.23000
13894441;-0.23500
13897218;-0.22000
13899996;-0.21500
13902774;-0.20500
13905552;-0.21500
13908329;-0.22500
13911107;-0.25500
13913885;-0.24000
13916663;-0.23000
13919441;-0.21500
13922218;-0.22000
13924996;-0.22500
13927774;-0.23000
13930552;-0.20500
13933329;-0.18000
13936107;-0.20000
13938885;-0.23000
13941663;-0.27000
13944441;-0.28500
13947218;-0.29000
13949996;-0.29500
13952774;-0.30000
13955552;-0.32000
13958329;-0.33500
13961107;-0.35500
13963885;-0.35000
13966663;-0.35000
13969441;-0.35000
13972218;-0.36000
13974996;-0.36000
13977774;-0.37500
13980552;-0.36500
13983329;-0.36000
13986107;-0.35500
13988885;-0.37500
13991663;-0.36500
13994441;-0.37000
13997218;-0.36000
13999996;-0.35000
14002774;-0.35500
14005552;-0.36500
14008329;-0.36000
14011107;-0.36500
14013885;-0.37000
14016663;-0.35500
14019441;-0.36000
14022218;-0.37500
14024996;-0.39500
14027774;-0.44500
14030552;-0.47500
14033329;-0.48500
14036107;-0.48500
14038885;-0.52500
14041663;-0.58000
14044441;-0.63000
14047218;-0.62500
14049996;-0.58000
14052774;-0.50500
14055552;-0.40500
14058329;-0.26000
14061107;-0.08500
14063885;0.17000
14066663;0.46500
14069441;0.73000
14072218;0.87000
14074996;0.83500
14077774;0.60000
14080552;0.20500
14083329;-0.17500
14086107;-0.39000
14088885;-0.49500
14091663;-0.49500
14094440;-0.47000
14097218;-0.43500
14099996;-0.41000
14102774;-0.39500
14105552;-0.40500
14108329;-0.41000
14111107;-0.42500
14113885;-0.42000
14116663;-0.42500
14119440;-0.40000
14122218;-0.40500
14124996;-0.41500
14127774;-0.43000
14130552;-0.42500
14133329;-0.41000
14136107;-0.41000
14138885;-0.40000
14141663;-0.41000
14144440;-0.42000
14147218;-0.41500
14149996;-0.41500
14152774;-0.40500
14155552;-0.41000
14158329;-0.40000
14161107;-0.42000
14163885;-0.41000
14166663;-0.39000
14169440;-0.40000
14172218;-0.40500
14174996;-0.40500
14177774;-0.42000
14180552;-0.42000
14183329;-0.42500
14186107;-0.41500
14188885;-0.42000
14191663;-0.41000
14194440;-0.41000
14197218;-0.40500
14199996;-0.39500
14202774;-0.38500
14205552;-0.40000
14208329;-0.40000
14211107;-0.41500
14213885;-0.41000
14216663;-0.40500
14219440;-0.40500
14222218;-0.40500
14224996;-0.40000
14227774;-0.41500
14230552;-0.41000
14233329;-0.40500
14236107;-0.39500
14238885;-0.39500
14241663;-0.41000
14244440;-0.41500
14247218;-0.41000
14249996;-0.41500
14252774;-0.39500
14255552;-0.39000
14258329;-0.41500
14261107;-0.42000
14263885;-0.41500
14266663;-0.40500
14269440;-0.41000
14272218;-0.41000
14274996;-0.41500
14277774;-0.43000
14280552;-0.42000
14283329;-0.42000
14286107;-0.41500
14288885;-0.40500
14291663;-0.42000
14294440;-0.44000
14297218;-0.43500
14299996;-0.43500
14302774;-0.43000
14305552;-0.43500
14308329;-0.44000
14311107;-0.44000
14313885;-0.45000
14316663;-0.44000
14319440;-0.42500
14322218;-0.42500
14324996;-0.44500
14327774;-0.45000
14330552;-0.45000
14333329;-0.43000
14336107;-0.41000
14338885;-0.41000
14341663;-0.40500
14344440;-0.42000
14347218;-0.40000
14349996;-0.38000
14352774;-0.36000
14355552;-0.36000
14358329;-0.36000
14361107;-0.36000
14363885;-0.35000
14366663;-0.32000
14369440;-0.31500
14372218;-0.30500
14374996;-0.30500
14377774;-0.31000
14380552;-0.31000
14383329;-0.31000
14386107;-0.29500
14388885;-0.30500
14391663;-0.31500
14394440;-0.31000
14397218;-0.30000
14399996;-0.28000
14402774;-0.28500
14405552;-0.28500
14408329;-0.29000
14411107;-0.30500
14413885;-0.30000
14416663;-0.28000
14419440;-0.28000
14422218;-0.28500
14424996;-0.29000
14427774;-0.30000
14430552;-0.29500
14433329;-0.28500
14436107;-0.28500
14438885;-0.29000
14441663;-0.31000
14444440;-0.30500
14447218;-0.31000
14449996;-0.29000
14452774;-0.29000
14455552;-0.29500
14458329;-0.31500
14461107;-0.32000
14463885;-0.31000
14466663;-0.31000
14469440;-0.30500
14472218;-0.30000
14474996;-0.31500
14477774;-0.32500
14480552;-0.32000
14483329;-0.30000
14486107;-0.29000
14488885;-0.30000
14491663;-0.31000
14494440;-0.31000
14497218;-0.31500
14499996;-0.31500
14502774;-0.31000
14505551;-0.32000
14508329;-0.32500
14511107;-0.33500
14513885;-0.32500
14516663;-0.31500
14519440;-0.32000
14522218;-0.32000
14524996;-0.33500
14527774;-0.34500
14530551;-0.32500
14533329;-0.32500
14536107;-0.31500
14538885;-0.31500
14541663;-0.33500
14544440;-0.35000
14547218;-0.34000
14549996;-0.33500
14552774;-0.33000
14555551;-0.34000
14558329;-0.33500
14561107;-0.34500
14563885;-0.34000
14566663;-0.32000
14569440;-0.32000
14572218;-0.32000
14574996;-0.35000
14577774;-0.34500
14580551;-0.33000
14583329;-0.32500
14586107;-0.31500
14588885;-0.32500
14591663;-0.32000
14594440;-0.33500
14597218;-0.32000
14599996;-0.31500
14602774;-0.29500
14605551;-0.29000
14608329;-0.30000
14611107;-0.30500
14613885;-0.28500
14616663;-0.27500
14619440;-0.26000
14622218;-0.25000
14624996;-0.25000
14627774;-0.25000
14630551;-0.23500
14633329;-0.21500
14636107;-0.20000
14638885;-0.20000
14641663;-0.21000
14644440;-0.21500
14647218;-0.21500
14649996;-0.22000
14652774;-0.21000
14655551;-0.22000
14658329;-0.22000
14661107;-0.22500
14663885;-0.21000
14666663;-0.20500
14669440;-0.20500
14672218;-0.17500
14674996;-0.17000
14677774;-0.20000
14680551;-0.23500
14683329;-0.25500
14686107;-0.27000
14688885;-0.28500
14691663;-0.28000
14694440;-0.30000
14697218;-0.31000
14699996;-0.32500
14702774;-0.32500
14705551;-0.33000
14708329;-0.33000
14711107;-0.34000
14713885;-0.35000
14716663;-0.33500
14719440;-0.34000
14722218;-0.34000
14724996;-0.34500
14727774;-0.35500
14730551;-0.35500
14733329;-0.34000
14736107;-0.34500
14738885;-0.35500
14741663;-0.36000
14744440;-0.36000
14747218;-0.36500
14749996;-0.36000
14752774;-0.35000
14755551;-0.35500
14758329;-0.36500
14761107;-0.37000
14763885;-0.37000
14766663;-0.36500
14769440;-0.36000
14772218;-0.39500
14774996;-0.43000
14777774;-0.47000
14780551;-0.48500
14783329;-0.51000
14786107;-0.55500
14788885;-0.61000
14791663;-0.60500
14794440;-0.55000
14797218;-0.45000
14799996;-0.33000
14802774;-0.20000
14805551;-0.06000
14808329;0.15000
14811107;0.40000
14813885;0.65000
14816663;0.83500
14819440;0.89500
14822218;0.84000
14824996;0.56500
14827774;0.14000
14830551;-0.25500
14833329;-0.46500
14836107;-0.53000
14838885;-0.50000
14841663;-0.45500
14844440;-0.42000
14847218;-0.41000
14849996;-0.41000
14852774;-0.39000
14855551;-0.40000
14858329;-0.39500
14861107;-0.40000
14863885;-0.40500
14866663;-0.40000
14869440;-0.39500
14872218;-0.40500
14874996;-0.40000
14877774;-0.41000
14880551;-0.40500
14883329;-0.40000
14886107;-0.39000
14888885;-0.39500
14891662;-0.41500
14894440;-0.42000
14897218;-0.41500
14899996;-0.39500
14902774;-0.40000
14905551;-0.39500
14908329;-0.41000
14911107;-0.41500
14913885;-0.41000
14916662;-0.40000
14919440;-0.39000
14922218;-0.38500
14924996;-0.40000
14927774;-0.42000
14930551;-0.41000
14933329;-0.40000
14936107;-0.39000
14938885;-0.40000
14941662;-0.40000
14944440;-0.41500
14947218;-0.41000
14949996;-0.40000
14952774;-0.39500
14955551;-0.40000
14958329;-0.40000
14961107;-0.41500
14963885;-0.40000
14966662;-0.40000
14969440;-0.39000
14972218;-0.39500
14974996;-0.40000
14977774;-0.42500
14980551;-0.42000
14983329;-0.40000
14986107;-0.41000
14988885;-0.40500
14991662;-0.39500
14994440;-0.40500
14997218;-0.40500
14999996;-0.39500
15002774;-0.39000
15005551;-0.38500
15008329;-0.39500
15011107;-0.41000
15013885;-0.39500
15016662;-0.38500
15019440;-0.37500
15022218;-0.38500
15024996;-0.38500
15027774;-0.39000
15030551;-0.39000
15033329;-0.40000
15036107;-0.38500
15038885;-0.39500
15041662;-0.39000
15044440;-0.40500
15047218;-0.40500
15049996;-0.40000
15052774;-0.38500
15055551;-0.40000
15058329;-0.40500
15061107;-0.41000
15063885;-0.41000
15066662;-0.39500
15069440;-0.38500
15072218;-0.39500
15074996;-0.40000
15077774;-0.41000
15080551;-0.39500
15083329;-0.38000
15086107;-0.37000
15088885;-0.37500
15091662;-0.37000
15094440;-0.37000
15097218;-0.37000
15099996;-0.35500
15102774;-0.34500
15105551;-0.33500
15108329;-0.34000
15111107;-0.34000
15113885;-0.33000
15116662;-0.32000
15119440;-0.30500
15122218;-0.30500
15124996;-0.31000
15127774;-0.32000
15130551;-0.31500
15133329;-0.29500
15136107;-0.30000
15138885;-0.30000
15141662;-0.30500
15144440;-0.31000
15147218;-0.31000
15149996;-0.28000
15152774;-0.28500
15155551;-0.28000
15158329;-0.29000
15161107;-0.30500
15163885;-0.29500
15166662;-0.28500
15169440;-0.28500
15172218;-0.28500
15174996;-0.28500
15177774;-0.30500
15180551;-0.29500
15183329;-0.29000
15186107;-0.28500
15188885;-0.29000
15191662;-0.30000
15194440;-0.31500
15197218;-0.31500
15199996;-0.31000
15202774;-0.30000
15205551;-0.30500
15208329;-0.32000
15211107;-0.32500
15213885;-0.31500
15216662;-0.33000
15219440;-0.32500
15222218;-0.32500
15224996;-0.32500
15227774;-0.34000
15230551;-0.33500
15233329;-0.33000
15236107;-0.32500
15238885;-0.32000
15241662;-0.33000
15244440;-0.34500
15247218;-0.33000
15249996;-0.33500
15252774;-0.33000
15255551;-0.32000
15258329;-0.33000
15261107;-0.34000
15263885;-0.33500
15266662;-0.34500
15269440;-0.34000
15272218;-0.34000
15274996;-0.34000
15277774;-0.35500
15280551;-0.36000
15283329;-0.34500
15286107;-0.34500
15288885;-0.36000
15291662;-0.36500
15294440;-0.36000
15297218;-0.35000
15299996;-0.35000
15302773;-0.34500
15305551;-0.35500
15308329;-0.35500
15311107;-0.36500
15313885;-0.35500
15316662;-0.34500
15319440;-0.34000
15322218;-0.34000
15324996;-0.35500
15327773;-0.36500
15330551;-0.35000
15333329;-0.34500
15336107;-0.34000
15338885;-0.34000
15341662;-0.37500
15344440;-0.37000
15347218;-0.36000
15349996;-0.35000
15352773;-0.34500
15355551;-0.34000
15358329;-0.34500
15361107;-0.35000
15363885;-0.33000
15366662;-0.32000
15369440;-0.30000
15372218;-0.31000
15374996;-0.30500
15377773;-0.30500
15380551;-0.29500
15383329;-0.27500
15386107;-0.28000
15388885;-0.27000
15391662;-0.26500
15394440;-0.28000
15397218;-0.26500
15399996;-0.24500
15402773;-0.23000
15405551;-0.24500
15408329;-0.24000
15411107;-0.24000
15413885;-0.23500
15416662;-0.23000
15419440;-0.21000
15422218;-0.23000
15424996;-0.24500
15427773;-0.25500
15430551;-0.26000
15433329;-0.24000
15436107;-0.23500
15438885;-0.24000
15441662;-0.23500
15444440;-0.24000
15447218;-0.22000
15449996;-0.22000
15452773;-0.24000
15455551;-0.26500
15458329;-0.29500
15461107;-0.30000
15463885;-0.31000
15466662;-0.30500
15469440;-0.32000
15472218;-0.33500
15474996;-0.36000
15477773;-0.37500
15480551;-0.37500
15483329;-0.36000
15486107;-0.36000
15488885;-0.36500
15491662;-0.37000
15494440;-0.38000
15497218;-0.37500
15499996;-0.37500
15502773;-0.37000
15505551;-0.38500
15508329;-0.38000
15511107;-0.39000
15513885;-0.39500
15516662;-0.39000
15519440;-0.39500
15522218;-0.38000
15524996;-0.40000
15527773;-0.41000
15530551;-0.41000
15533329;-0.38500
15536107;-0.39000
15538885;-0.38500
15541662;-0.40000
15544440;-0.40000
15547218;-0.40000
15549996;-0.41500
15552773;-0.41000
15555551;-0.45000
15558329;-0.50000
15561107;-0.52500
15563885;-0.55000
15566662;-0.56000
15569440;-0.59500
15572218;-0.58000
15574996;-0.51000
15577773;-0.41500
15580551;-0.28500
15583329;-0.13000
15586107;0.06500
15588885;0.35000
15591662;0.58000
15594440;0.72500
15597218;0.77500
15599996;0.69000
15602773;0.42500
15605551;0.04500
15608329;-0.30000
15611107;-0.51500
15613885;-0.57500
15616662;-0.54500
15619440;-0.49500
15622218;-0.45500
15624996;-0.45500
15627773;-0.47000
15630551;-0.45500
15633329;-0.43500
15636107;-0.43000
15638885;-0.44500
15641662;-0.44000
15644440;-0.44000
15647218;-0.42500
15649996;-0.43500
15652773;-0.42000
15655551;-0.44000
15658329;-0.45000
15661107;-0.44000
15663885;-0.46000
15666662;-0.45000
15669440;-0.44500
15672218;-0.45000
15674996;-0.44500
15677773;-0.46000
15680551;-0.44500
15683329;-0.44500
15686107;-0.45000
15688884;-0.44500
15691662;-0.44500
15694440;-0.46500
15697218;-0.45000
15699996;-0.45500
15702773;-0.44500
15705551;-0.44000
15708329;-0.45000
15711107;-0.44500
15713884;-0.44500
15716662;-0.43500
15719440;-0.42500
15722218;-0.43500
15724996;-0.44500
15727773;-0.45000
15730551;-0.44500
15733329;-0.43500
15736107;-0.43500
15738884;-0.44000
15741662;-0.44000
15744440;-0.45000
15747218;-0.45000
15749996;-0.44500
15752773;-0.43500
15755551;-0.43500
15758329;-0.44500
15761107;-0.44500
15763884;-0.44500
15766662;-0.44000
15769440;-0.43000
15772218;-0.43500
15774996;-0.44000
15777773;-0.45500
15780551;-0.45500
15783329;-0.44000
15786107;-0.43000
15788884;-0.43500
15791662;-0.45000
15794440;-0.45500
15797218;-0.45500
15799996;-0.43000
15802773;-0.42500
15805551;-0.44000
15808329;-0.43500
15811107;-0.44000
15813884;-0.45000
15816662;-0.44000
15819440;-0.42500
15822218;-0.44500
15824996;-0.45000
15827773;-0.45500
15830551;-0.46000
15833329;-0.44000
15836107;-0.43500
15838884;-0.44000
15841662;-0.45500
15844440;-0.46500
15847218;-0.44500
15849996;-0.44000
15852773;-0.43500
15855551;-0.43500
15858329;-0.44500
15861107;-0.46000
15863884;-0.45000
15866662;-0.43500
15869440;-0.44500
15872218;-0.45000
15874996;-0.44500
15877773;-0.46000
15880551;-0.45000
15883329;-0.43500
15886107;-0.42000
15888884;-0.41500
15891662;-0.41500
15894440;-0.42500
15897218;-0.41000
15899996;-0.39500
15902773;-0.38500
15905551;-0.38000
15908329;-0.38000
15911107;-0.38500
15913884;-0.37500
15916662;-0.35000
15919440;-0.35000
15922218;-0.34500
15924996;-0.35000
15927773;-0.37000
15930551;-0.34500
15933329;-0.34500
15936107;-0.32500
15938884;-0.33000
15941662;-0.34500
15944440;-0.35000
15947218;-0.34500
15949996;-0.34000
15952773;-0.34000
15955551;-0.33000
15958329;-0.34500
15961107;-0.36000
15963884;-0.35500
15966662;-0.34500
15969440;-0.33500
15972218;-0.34500
15974996;-0.35000
15977773;-0.37000
15980551;-0.36000
15983329;-0.34500
15986107;-0.35500
15988884;-0.35000
15991662;-0.36500
15994440;-0.37500
15997218;-0.37000
15999996;-0.36500
16002773;-0.36500
16005551;-0.36500
16008329;-0.36500
16011107;-0.38000
16013884;-0.37000
16016662;-0.37000
16019440;-0.36000
16022218;-0.37500
16024996;-0.37500
16027773;-0.38500
16030551;-0.37500
16033329;-0.37000
16036107;-0.37000
16038884;-0.37500
16041662;-0.38000
16044440;-0.39500
16047218;-0.40000
16049996;-0.39000
16052773;-0.39500
16055551;-0.40500
16058329;-0.40000
16061107;-0.41000
16063884;-0.42000
16066662;-0.40000
16069440;-0.39500
16072218;-0.39500
16074995;-0.40000
16077773;-0.42500
16080551;-0.40000
16083329;-0.40000
16086107;-0.39000
16088884;-0.40000
16091662;-0.40500
16094440;-0.41000
16097218;-0.41000
16099995;-0.40000
16102773;-0.38500
16105551;-0.40500
16108329;-0.41000
16111107;-0.41500
16113884;-0.41000
16116662;-0.40000
16119440;-0.40000
16122218;-0.41000
16124995;-0.40500
16127773;-0.41500
16130551;-0.41000
16133329;-0.40000
16136107;-0.39500
16138884;-0.39500
16141662;-0.40500
16144440;-0.40500
16147218;-0.38500
16149995;-0.39500
16152773;-0.37500
16155551;-0.39000
16158329;-0.38000
16161107;-0.38000
16163884;-0.36000
16166662;-0.36500
16169440;-0.34500
16172218;-0.33500
16174995;-0.34000
16177773;-0.34000
16180551;-0.34500
16183329;-0.31500
16186107;-0.32500
16188884;-0.32500
16191662;-0.32000
16194440;-0.31000
16197218;-0.30500
16199995;-0.31000
16202773;-0.29500
16205551;-0.28500
16208329;-0.28500
16211107;-0.30000
16213884;-0.28000
16216662;-0.27500
16219440;-0.28000
16222218;-0.29000
16224995;-0.30500
16227773;-0.32000
16230551;-0.29500
16233329;-0.28000
16236107;-0.27000
16238884;-0.27000
16241662;-0.28500
16244440;-0.27000
16247218;-0.25500
16249995;-0.24000
16252773;-0.28000
16255551;-0.31500
16258329;-0.34500
16261107;-0.35500
16263884;-0.36500
16266662;-0.36500
16269440;-0.37000
16272218;-0.40000
16274995;-0.41500
16277773;-0.42500
16280551;-0.43500
16283329;-0.42000
16286107;-0.42500
16288884;-0.42000
16291662;-0.42500
16294440;-0.43000
16297218;-0.43500
16299995;-0.42000
16302773;-0.42000
16305551;-0.42000
16308329;-0.42000
16311107;-0.43000
16313884;-0.43000
16316662;-0.42000
16319440;-0.41500
16322218;-0.42000
16324995;-0.43000
16327773;-0.43500
16330551;-0.45000
16333329;-0.44500
16336107;-0.44500
16338884;-0.44500
16341662;-0.45000
16344440;-0.45000
16347218;-0.44500
16349995;-0.45500
16352773;-0.47500
16355551;-0.49500
16358329;-0.53500
16361107;-0.56500
16363884;-0.59000
16366662;-0.61000
16369440;-0.64000
16372218;-0.61000
16374995;-0.54000
16377773;-0.43500
16380551;-0.31000
16383329;-0.13500
16386107;0.10000
16388884;0.35500
16391662;0.56000
16394440;0.66500
16397218;0.70000
16399995;0.59000
16402773;0.32000
16405551;-0.06000
16408329;-0.37500
16411107;-0.57000
16413884;-0.61000
16416662;-0.57500
16419440;-0.51000
16422218;-0.49000
16424995;-0.48500
16427773;-0.50000
16430551;-0.50500
16433329;-0.49000
16436107;-0.47000
16438884;-0.47500
16441662;-0.48500
16444440;-0.50500
16447218;-0.49500
16449995;-0.48000
16452773;-0.47000
16455551;-0.47000
16458329;-0.48000
16461107;-0.48500
16463884;-0.48500
16466662;-0.47000
16469440;-0.47000
16472218;-0.47000
16474995;-0.47500
16477773;-0.49000
16480551;-0.49000
16483329;-0.49000
16486106;-0.47500
16488884;-0.47000
16491662;-0.48500
16494440;-0.49500
16497218;-0.48500
16499995;-0.48000
16502773;-0.47000
16505551;-0.48000
16508329;-0.49000
16511106;-0.49500
16513884;-0.49000
16516662;-0.48500
16519440;-0.48000
16522218;-0.48000
16524995;-0.48000
16527773;-0.48500
16530551;-0.49000
16533329;-0.47000
16536106;-0.47000
16538884;-0.48000
16541662;-0.49000
16544440;-0.50500
16547218;-0.50000
16549995;-0.48000
16552773;-0.48000
16555551;-0.49500
16558329;-0.49500
16561106;-0.51000
16563884;-0.49500
16566662;-0.48000
16569440;-0.48500
16572218;-0.49500
16574995;-0.49500
16577773;-0.49500
16580551;-0.49000
16583329;-0.47500
16586106;-0.47000
16588884;-0.47500
16591662;-0.48500
16594440;-0.48500
16597218;-0.47500
16599995;-0.47000
16602773;-0.46500
16605551;-0.47500
16608329;-0.48500
16611106;-0.49500
16613884;-0.49500
16616662;-0.48500
16619440;-0.48500
16622218;-0.48500
16624995;-0.49000
16627773;-0.50000
