time_ms;ecg_value
0;-0.50000
2778;-0.50000
5556;-0.50000
8333;-0.50500
11111;-0.51500
13889;-0.50000
16667;-0.48500
19444;-0.48500
22222;-0.49000
25000;-0.50000
27778;-0.51000
30556;-0.49500
33333;-0.48500
36111;-0.48500
38889;-0.49000
41667;-0.50500
44444;-0.50000
47222;-0.49000
50000;-0.48000
52778;-0.48500
55556;-0.49000
58333;-0.51000
61111;-0.51500
63889;-0.50000
66667;-0.48500
69444;-0.49500
72222;-0.51000
75000;-0.52500
77778;-0.52000
80556;-0.51500
83333;-0.51000
86111;-0.51500
88889;-0.53000
91667;-0.53500
94444;-0.53000
97222;-0.51000
100000;-0.50000
102778;-0.51000
105556;-0.52500
108333;-0.51500
111111;-0.51500
113889;-0.52500
116667;-0.50000
119444;-0.49000
122222;-0.49500
125000;-0.49500
127778;-0.46500
130556;-0.45500
133333;-0.42500
136111;-0.43500
138889;-0.41000
141667;-0.41500
144444;-0.41500
147222;-0.40000
150000;-0.37500
152778;-0.37500
155556;-0.38500
158333;-0.37500
161111;-0.38000
163889;-0.36500
166667;-0.35000
169444;-0.34500
172222;-0.35000
175000;-0.37000
177778;-0.35500
180556;-0.34500
183333;-0.33000
186111;-0.34000
188889;-0.34000
191667;-0.35500
194444;-0.36000
197222;-0.35500
200000;-0.33500
202778;-0.34500
205555;-0.35500
208333;-0.35500
211111;-0.35500
213889;-0.34000
216667;-0.34000
219444;-0.34500
222222;-0.35000
225000;-0.36500
227778;-0.36500
230555;-0.35000
233333;-0.34500
236111;-0.34500
238889;-0.35500
241667;-0.36500
244444;-0.37000
247222;-0.35500
250000;-0.34000
252778;-0.34500
255555;-0.34000
258333;-0.35500
261111;-0.35500
263889;-0.35000
266667;-0.34000
269444;-0.36000
272222;-0.37000
275000;-0.36000
277778;-0.37000
280555;-0.36000
283333;-0.34500
286111;-0.35000
288889;-0.36500
291667;-0.38000
294444;-0.36500
297222;-0.37500
300000;-0.35500
302778;-0.37000
305555;-0.37000
308333;-0.38500
311111;-0.37500
313889;-0.36000
316667;-0.35500
319444;-0.36500
322222;-0.36500
325000;-0.38500
327778;-0.37500
330555;-0.36500
333333;-0.35500
336111;-0.36000
338889;-0.36500
341667;-0.37500
344444;-0.37500
347222;-0.37000
350000;-0.36000
352778;-0.36000
355555;-0.36500
358333;-0.38000
361111;-0.39000
363889;-0.35500
366667;-0.34500
369444;-0.33500
372222;-0.33500
375000;-0.34500
377778;-0.32500
380555;-0.31000
383333;-0.29000
386111;-0.28000
388889;-0.29000
391667;-0.28500
394444;-0.27500
397222;-0.26000
400000;-0.24500
402778;-0.25000
405555;-0.24500
408333;-0.24500
411111;-0.24500
413889;-0.24000
416667;-0.22000
419444;-0.23500
422222;-0.26000
425000;-0.27500
427778;-0.26000
430555;-0.24500
433333;-0.23500
436111;-0.24000
438889;-0.23000
441667;-0.22000
444444;-0.21000
447222;-0.23000
450000;-0.25000
452778;-0.27500
455555;-0.30000
458333;-0.31000
461111;-0.33000
463889;-0.33500
466667;-0.33500
469444;-0.35500
472222;-0.36500
475000;-0.36500
477778;-0.36000
480555;-0.35500
483333;-0.34000
486111;-0.35500
488889;-0.36500
491667;-0.39500
494444;-0.39000
497222;-0.37500
500000;-0.37000
502778;-0.38000
505555;-0.38500
508333;-0.39000
511111;-0.39000
513889;-0.38000
516667;-0.36500
519444;-0.37000
522222;-0.38000
525000;-0.39500
527778;-0.39500
530555;-0.37500
533333;-0.36500
536111;-0.38500
538889;-0.38500
541667;-0.39500
544444;-0.42000
547222;-0.44500
550000;-0.47500
552778;-0.49500
555555;-0.53000
558333;-0.58000
561111;-0.59500
563889;-0.53000
566667;-0.39500
569444;-0.25500
572222;-0.09500
575000;0.12000
577778;0.42000
580555;0.68000
583333;0.84000
586111;0.85500
588889;0.68000
591667;0.32000
594444;-0.12000
597222;-0.44500
600000;-0.54500
602778;-0.52500
605555;-0.47000
608333;-0.43500
611111;-0.43000
613889;-0.41500
616666;-0.40500
619444;-0.42500
622222;-0.42000
625000;-0.43000
627778;-0.42500
630555;-0.43500
633333;-0.41500
636111;-0.42500
638889;-0.43000
641666;-0.43500
644444;-0.43000
647222;-0.42000
650000;-0.40500
652778;-0.42000
655555;-0.41000
658333;-0.43000
661111;-0.43000
663889;-0.42500
666666;-0.40500
669444;-0.42500
672222;-0.41500
675000;-0.43000
677778;-0.41500
680555;-0.41000
683333;-0.39500
686111;-0.41000
688889;-0.41500
691666;-0.42500
694444;-0.43000
697222;-0.41500
700000;-0.41500
702778;-0.42500
705555;-0.41500
708333;-0.43000
711111;-0.42000
713889;-0.42500
716666;-0.42000
719444;-0.41500
722222;-0.41500
725000;-0.42000
727778;-0.41500
730555;-0.40500
733333;-0.39500
736111;-0.40000
738889;-0.40000
741666;-0.42000
744444;-0.42500
747222;-0.40500
750000;-0.40000
752778;-0.40500
755555;-0.40500
758333;-0.41000
761111;-0.40500
763889;-0.39500
766666;-0.39000
769444;-0.39500
772222;-0.40000
775000;-0.40000
777778;-0.40500
780555;-0.39500
783333;-0.38500
786111;-0.39500
788889;-0.39500
791666;-0.41000
794444;-0.41000
797222;-0.39500
800000;-0.38500
802778;-0.38500
805555;-0.39500
808333;-0.39500
811111;-0.39000
813889;-0.38500
816666;-0.37000
819444;-0.38000
822222;-0.39500
825000;-0.40500
827778;-0.39000
830555;-0.39500
833333;-0.38500
836111;-0.38500
838889;-0.39500
841666;-0.40000
844444;-0.41500
847222;-0.39500
850000;-0.38000
852778;-0.38500
855555;-0.39500
858333;-0.40500
861111;-0.40000
863889;-0.39500
866666;-0.37000
869444;-0.36500
872222;-0.35000
875000;-0.36000
877778;-0.35500
880555;-0.34000
883333;-0.33000
886111;-0.31000
888889;-0.31500
891666;-0.32500
894444;-0.32000
897222;-0.30000
900000;-0.29500
902778;-0.30000
905555;-0.30000
908333;-0.31000
911111;-0.30500
913889;-0.28000
916666;-0.27000
919444;-0.27500
922222;-0.28000
925000;-0.29000
927778;-0.29500
930555;-0.27500
933333;-0.27500
936111;-0.28000
938889;-0.29000
941666;-0.30000
944444;-0.29500
947222;-0.29000
950000;-0.28000
952778;-0.28000
955555;-0.29000
958333;-0.29500
961111;-0.30000
963889;-0.29500
966666;-0.28000
969444;-0.29500
972222;-0.30000
975000;-0.31000
977778;-0.32000
980555;-0.30000
983333;-0.30500
986111;-0.30000
988889;-0.31000
991666;-0.32000
994444;-0.31000
997222;-0.31000
1000000;-0.30500
1002777;-0.30500
1005555;-0.31500
1008333;-0.31500
1011111;-0.32500
1013889;-0.30000
1016666;-0.29500
1019444;-0.30500
1022222;-0.32000
1025000;-0.31500
1027777;-0.32500
1030555;-0.30500
1033333;-0.30500
1036111;-0.30500
1038889;-0.33500
1041666;-0.32500
1044444;-0.33000
1047222;-0.32000
1050000;-0.32000
1052777;-0.32500
1055555;-0.32500
1058333;-0.33000
1061111;-0.34000
1063889;-0.32500
1066666;-0.32000
1069444;-0.33000
1072222;-0.33000
1075000;-0.33000
1077777;-0.32000
1080555;-0.32500
1083333;-0.31000
1086111;-0.31000
1088889;-0.33000
1091666;-0.33000
1094444;-0.31500
1097222;-0.30500
1100000;-0.31000
1102777;-0.32500
1105555;-0.32500
1108333;-0.33000
1111111;-0.33000
1113889;-0.32000
1116666;-0.32000
1119444;-0.32500
1122222;-0.32500
1125000;-0.33000
1127777;-0.32000
1130555;-0.30000
1133333;-0.29500
1136111;-0.28500
1138889;-0.28000
1141666;-0.29000
1144444;-0.28000
1147222;-0.26000
1150000;-0.25000
1152777;-0.24500
1155555;-0.25000
1158333;-0.25000
1161111;-0.24500
1163889;-0.22500
1166666;-0.21000
1169444;-0.20500
1172222;-0.19500
1175000;-0.19000
1177777;-0.19500
1180555;-0.19000
1183333;-0.19000
1186111;-0.20000
1188889;-0.21500
1191666;-0.22500
1194444;-0.22000
1197222;-0.20000
1200000;-0.19000
1202777;-0.20000
1205555;-0.20500
1208333;-0.20000
1211111;-0.18500
1213889;-0.17500
1216666;-0.18500
1219444;-0.22500
1222222;-0.26500
1225000;-0.28000
1227777;-0.29500
1230555;-0.30500
1233333;-0.28500
1236111;-0.31000
1238889;-0.32000
1241666;-0.34500
1244444;-0.36000
1247222;-0.35000
1250000;-0.33500
1252777;-0.32500
1255555;-0.34000
1258333;-0.34500
1261111;-0.35500
1263889;-0.35000
1266666;-0.33500
1269444;-0.35000
1272222;-0.35500
1275000;-0.35000
1277777;-0.36500
1280555;-0.35000
1283333;-0.34500
1286111;-0.35000
1288889;-0.36000
1291666;-0.37500
1294444;-0.36000
1297222;-0.37000
1300000;-0.35500
1302777;-0.36500
1305555;-0.39000
1308333;-0.38500
1311111;-0.42000
1313889;-0.42000
1316666;-0.44500
1319444;-0.47000
1322222;-0.50500
1325000;-0.54000
1327777;-0.58000
1330555;-0.56500
1333333;-0.49000
1336111;-0.39000
1338889;-0.28500
1341666;-0.14000
1344444;0.05000
1347222;0.32000
1350000;0.57500
1352777;0.75000
1355555;0.85000
1358333;0.85500
1361111;0.73000
1363889;0.51000
1366666;0.25500
1369444;-0.01500
1372222;-0.23500
1375000;-0.38500
1377777;-0.50500
1380555;-0.56500
1383333;-0.59500
1386111;-0.60000
1388888;-0.56500
1391666;-0.53000
1394444;-0.47000
1397222;-0.42000
1400000;-0.42000
1402777;-0.42500
1405555;-0.42000
1408333;-0.42500
1411111;-0.42000
1413888;-0.40000
1416666;-0.40000
1419444;-0.41000
1422222;-0.41500
1425000;-0.41000
1427777;-0.41000
1430555;-0.40500
1433333;-0.39500
1436111;-0.40500
1438888;-0.41000
1441666;-0.41500
1444444;-0.42500
1447222;-0.41500
1450000;-0.40000
1452777;-0.41000
1455555;-0.41500
1458333;-0.42500
1461111;-0.42500
1463888;-0.41500
1466666;-0.39500
1469444;-0.40000
1472222;-0.41500
1475000;-0.41500
1477777;-0.41500
1480555;-0.40500
1483333;-0.39000
1486111;-0.39500
1488888;-0.40500
1491666;-0.41000
1494444;-0.41500
1497222;-0.40500
1500000;-0.39500
1502777;-0.39500
1505555;-0.39000
1508333;-0.40500
1511111;-0.40500
1513888;-0.41500
1516666;-0.38500
1519444;-0.39000
1522222;-0.38500
1525000;-0.40000
1527777;-0.40000
1530555;-0.40000
1533333;-0.39500
1536111;-0.40500
1538888;-0.39000
1541666;-0.40500
1544444;-0.41000
1547222;-0.40500
1550000;-0.39000
1552777;-0.39000
1555555;-0.39000
1558333;-0.39000
1561111;-0.38500
1563888;-0.37500
1566666;-0.37000
1569444;-0.38000
1572222;-0.39000
1575000;-0.40000
1577777;-0.39500
1580555;-0.38500
1583333;-0.37500
1586111;-0.37500
1588888;-0.38000
1591666;-0.38500
1594444;-0.40500
1597222;-0.39000
1600000;-0.37000
1602777;-0.39000
1605555;-0.38000
1608333;-0.38500
1611111;-0.38500
1613888;-0.38500
1616666;-0.37500
1619444;-0.37500
1622222;-0.38500
1625000;-0.40000
1627777;-0.39000
1630555;-0.38500
1633333;-0.37500
1636111;-0.36500
1638888;-0.38500
1641666;-0.40000
1644444;-0.39500
1647222;-0.38000
1650000;-0.37500
1652777;-0.36500
1655555;-0.37500
1658333;-0.37000
1661111;-0.36500
1663888;-0.34000
1666666;-0.33000
1669444;-0.32500
1672222;-0.33000
1675000;-0.33000
1677777;-0.33000
1680555;-0.31500
1683333;-0.29000
1686111;-0.29500
1688888;-0.29000
1691666;-0.28500
1694444;-0.28500
1697222;-0.28000
1700000;-0.27000
1702777;-0.27000
1705555;-0.28000
1708333;-0.29500
1711111;-0.29000
1713888;-0.28000
1716666;-0.27000
1719444;-0.28000
1722222;-0.29000
1725000;-0.29000
1727777;-0.29500
1730555;-0.27500
1733333;-0.28500
1736111;-0.28000
1738888;-0.28000
1741666;-0.29000
1744444;-0.30000
1747222;-0.29000
1750000;-0.28000
1752777;-0.28000
1755555;-0.29500
1758333;-0.30000
1761111;-0.30000
1763888;-0.29000
1766666;-0.28000
1769444;-0.28500
1772222;-0.31000
1775000;-0.31500
1777777;-0.30000
1780555;-0.30000
1783333;-0.28500
1786111;-0.29500
1788888;-0.31000
1791666;-0.33000
1794444;-0.33000
1797222;-0.31000
1799999;-0.31000
1802777;-0.31500
1805555;-0.32000
1808333;-0.33500
1811111;-0.34000
1813888;-0.32500
1816666;-0.31000
1819444;-0.32000
1822222;-0.33000
1824999;-0.33500
1827777;-0.33500
1830555;-0.34000
1833333;-0.33500
1836111;-0.32500
1838888;-0.33000
1841666;-0.34000
1844444;-0.34500
1847222;-0.33500
1849999;-0.33000
1852777;-0.33500
1855555;-0.34000
1858333;-0.35000
1861111;-0.35500
1863888;-0.35000
1866666;-0.34000
1869444;-0.35000
1872222;-0.35500
1874999;-0.35500
1877777;-0.36000
1880555;-0.34500
1883333;-0.32500
1886111;-0.34000
1888888;-0.34500
1891666;-0.35000
1894444;-0.35500
1897222;-0.34500
1899999;-0.34000
1902777;-0.33500
1905555;-0.34000
1908333;-0.36000
1911111;-0.34000
1913888;-0.32500
1916666;-0.32000
1919444;-0.33000
1922222;-0.33500
1924999;-0.33000
1927777;-0.32000
1930555;-0.32000
1933333;-0.29000
1936111;-0.29000
1938888;-0.29000
1941666;-0.31000
1944444;-0.30500
1947222;-0.28500
1949999;-0.26500
1952777;-0.27000
1955555;-0.27500
1958333;-0.28000
1961111;-0.28000
1963888;-0.26000
1966666;-0.23500
1969444;-0.23500
1972222;-0.23500
1974999;-0.23000
1977777;-0.22000
1980555;-0.21500
1983333;-0.21500
1986111;-0.22000
1988888;-0.21500
1991666;-0.23500
1994444;-0.24000
1997222;-0.23000
1999999;-0.22000
2002777;-0.22500
2005555;-0.22500
2008333;-0.22500
2011111;-0.23000
2013888;-0.19000
2016666;-0.20000
2019444;-0.24500
2022222;-0.27000
2024999;-0.28500
2027777;-0.30000
2030555;-0.30500
2033333;-0.31000
2036111;-0.34500
2038888;-0.35500
2041666;-0.36500
2044444;-0.38000
2047222;-0.36500
2049999;-0.35000
2052777;-0.36000
2055555;-0.35500
2058333;-0.36500
2061111;-0.37000
2063888;-0.36500
2066666;-0.35500
2069444;-0.36500
2072222;-0.37000
2074999;-0.37500
2077777;-0.37000
2080555;-0.36500
2083333;-0.36000
2086111;-0.36500
2088888;-0.37000
2091666;-0.38000
2094444;-0.38500
2097222;-0.37500
2099999;-0.36000
2102777;-0.37000
2105555;-0.38500
2108333;-0.40500
2111111;-0.40000
2113888;-0.43000
2116666;-0.45000
2119444;-0.48500
2122222;-0.50500
2124999;-0.49500
2127777;-0.48000
2130555;-0.48500
2133333;-0.51000
2136111;-0.55500
2138888;-0.59000
2141666;-0.57500
2144444;-0.51000
2147222;-0.36500
2149999;-0.24000
2152777;-0.10000
2155555;0.10000
2158333;0.34500
2161111;0.59000
2163888;0.74500
2166666;0.83000
2169444;0.76500
2172222;0.53500
2174999;0.19500
2177777;-0.16500
2180555;-0.40000
2183333;-0.51000
2186110;-0.53000
2188888;-0.51500
2191666;-0.46500
2194444;-0.45000
2197222;-0.44500
2199999;-0.43000
2202777;-0.43000
2205555;-0.44500
2208333;-0.45000
2211110;-0.44500
2213888;-0.42500
2216666;-0.40500
2219444;-0.42500
2222222;-0.42000
2224999;-0.43000
2227777;-0.44000
2230555;-0.42500
2233333;-0.43000
2236110;-0.42000
2238888;-0.44000
2241666;-0.43000
2244444;-0.45000
2247222;-0.43500
2249999;-0.43000
2252777;-0.42500
2255555;-0.43500
2258333;-0.43500
2261110;-0.46000
2263888;-0.43500
2266666;-0.42500
2269444;-0.44000
2272222;-0.44500
2274999;-0.44500
2277777;-0.42500
2280555;-0.43500
2283333;-0.43500
2286110;-0.44000
2288888;-0.44500
2291666;-0.43500
2294444;-0.44000
2297222;-0.43000
2299999;-0.42000
2302777;-0.41000
2305555;-0.41500
2308333;-0.42000
2311110;-0.43000
2313888;-0.42500
2316666;-0.42000
2319444;-0.42500
2322222;-0.43000
2324999;-0.43000
2327777;-0.44500
2330555;-0.43500
2333333;-0.42000
2336110;-0.42000
2338888;-0.43500
2341666;-0.43500
2344444;-0.45000
2347222;-0.43000
2349999;-0.42000
2352777;-0.43500
2355555;-0.44500
2358333;-0.44500
2361110;-0.44500
2363888;-0.44000
2366666;-0.43500
2369444;-0.42500
2372222;-0.43500
2374999;-0.44000
2377777;-0.43500
2380555;-0.42500
2383333;-0.42000
2386110;-0.42000
2388888;-0.43000
2391666;-0.44000
2394444;-0.44000
2397222;-0.42000
2399999;-0.41500
2402777;-0.42000
2405555;-0.44500
2408333;-0.43500
2411110;-0.44000
2413888;-0.43500
2416666;-0.42500
2419444;-0.45000
2422222;-0.46000
2424999;-0.47500
2427777;-0.46500
2430555;-0.44500
2433333;-0.44500
2436110;-0.44500
2438888;-0.47500
2441666;-0.47500
2444444;-0.47500
2447222;-0.46000
2449999;-0.45000
2452777;-0.46500
2455555;-0.46500
2458333;-0.46500
2461110;-0.45000
2463888;-0.43000
2466666;-0.41500
2469444;-0.41500
2472222;-0.41000
2474999;-0.42000
2477777;-0.40500
2480555;-0.37500
2483333;-0.35500
2486110;-0.35500
2488888;-0.35000
2491666;-0.35500
2494444;-0.36000
2497222;-0.34500
2499999;-0.33000
2502777;-0.33500
2505555;-0.33000
2508333;-0.33500
2511110;-0.33000
2513888;-0.32000
2516666;-0.30500
2519444;-0.31500
2522222;-0.31500
2524999;-0.32500
2527777;-0.31500
2530555;-0.30500
2533333;-0.29000
2536110;-0.30000
2538888;-0.31500
2541666;-0.31000
2544444;-0.31500
2547222;-0.29500
2549999;-0.30000
2552777;-0.31000
2555555;-0.31500
2558333;-0.32500
2561110;-0.33000
2563888;-0.33500
2566666;-0.32500
2569444;-0.34000
2572222;-0.33500
2574999;-0.33500
2577777;-0.32500
2580555;-0.32500
2583333;-0.31500
2586110;-0.32000
2588888;-0.32000
2591666;-0.33500
2594444;-0.34000
2597221;-0.32000
2599999;-0.32000
2602777;-0.33500
2605555;-0.33000
2608333;-0.35000
2611110;-0.34000
2613888;-0.33000
2616666;-0.32000
2619444;-0.32500
2622221;-0.32500
2624999;-0.33500
2627777;-0.34000
2630555;-0.34500
2633333;-0.33500
2636110;-0.36000
2638888;-0.37000
2641666;-0.37500
2644444;-0.37000
2647221;-0.35000
2649999;-0.35000
2652777;-0.36000
2655555;-0.36500
2658333;-0.36500
2661110;-0.37000
2663888;-0.35500
2666666;-0.35000
2669444;-0.35000
2672221;-0.36000
2674999;-0.37500
2677777;-0.35500
2680555;-0.35000
2683333;-0.34000
2686110;-0.34500
2688888;-0.35000
2691666;-0.37500
2694444;-0.38000
2697221;-0.37000
2699999;-0.36000
2702777;-0.35500
2705555;-0.35000
2708333;-0.36000
2711110;-0.37000
2713888;-0.35500
2716666;-0.35000
2719444;-0.35000
2722221;-0.35000
2724999;-0.36000
2727777;-0.37500
2730555;-0.36500
2733333;-0.35000
2736110;-0.34500
2738888;-0.35000
2741666;-0.35500
2744444;-0.34500
2747221;-0.33000
2749999;-0.31500
2752777;-0.31000
2755555;-0.30500
2758333;-0.29500
2761110;-0.30500
2763888;-0.29000
2766666;-0.27500
2769444;-0.27000
2772221;-0.26500
2774999;-0.27500
2777777;-0.26500
2780555;-0.24000
2783333;-0.23000
2786110;-0.22500
2788888;-0.23500
2791666;-0.24500
2794444;-0.24500
2797221;-0.25000
2799999;-0.24500
2802777;-0.26000
2805555;-0.25000
2808333;-0.24500
2811110;-0.25000
2813888;-0.23500
2816666;-0.22500
2819444;-0.21500
2822221;-0.21500
2824999;-0.24000
2827777;-0.28000
2830555;-0.28500
2833333;-0.28000
2836110;-0.30500
2838888;-0.31500
2841666;-0.33500
2844444;-0.34500
2847221;-0.35500
2849999;-0.35500
2852777;-0.37000
2855555;-0.37000
2858333;-0.36500
2861110;-0.37000
2863888;-0.36000
2866666;-0.36000
2869444;-0.36000
2872221;-0.37500
2874999;-0.39000
2877777;-0.38000
2880555;-0.39000
2883333;-0.37500
2886110;-0.38500
2888888;-0.39500
2891666;-0.39500
2894444;-0.38500
2897221;-0.37500
2899999;-0.37500
2902777;-0.37000
2905555;-0.38000
2908333;-0.38000
2911110;-0.38500
2913888;-0.37500
2916666;-0.37500
2919444;-0.38000
2922221;-0.41500
2924999;-0.45000
2927777;-0.49000
2930555;-0.50000
2933333;-0.51000
2936110;-0.55000
2938888;-0.56500
2941666;-0.50000
2944444;-0.38000
2947221;-0.22500
2949999;-0.04000
2952777;0.17500
2955555;0.46500
2958333;0.69500
2961110;0.84000
2963888;0.88500
2966666;0.76500
2969444;0.43500
2972221;0.05000
2974999;-0.27500
2977777;-0.46500
2980555;-0.53000
2983332;-0.54500
2986110;-0.52000
2988888;-0.46000
2991666;-0.43500
2994444;-0.42500
2997221;-0.41000
2999999;-0.40500
3002777;-0.41000
3005555;-0.41000
3008332;-0.41500
3011110;-0.41000
3013888;-0.41000
3016666;-0.40500
3019444;-0.40000
3022221;-0.41000
3024999;-0.41500
3027777;-0.41000
3030555;-0.40500
3033332;-0.39000
3036110;-0.39500
3038888;-0.40500
3041666;-0.41000
3044444;-0.41500
3047221;-0.39500
3049999;-0.40000
3052777;-0.40500
3055555;-0.41000
3058332;-0.41000
3061110;-0.40500
3063888;-0.40000
3066666;-0.38500
3069444;-0.39000
3072221;-0.41000
3074999;-0.42000
3077777;-0.41000
3080555;-0.40000
3083332;-0.38500
3086110;-0.39000
3088888;-0.38500
3091666;-0.38500
3094444;-0.40500
3097221;-0.39500
3099999;-0.37500
3102777;-0.38000
3105555;-0.39500
3108332;-0.39500
3111110;-0.40500
3113888;-0.39500
3116666;-0.38500
3119444;-0.39000
3122221;-0.40500
3124999;-0.40000
3127777;-0.40000
3130555;-0.40500
3133332;-0.38500
3136110;-0.40000
3138888;-0.39000
3141666;-0.40500
3144444;-0.39500
3147221;-0.38000
3149999;-0.38000
3152777;-0.39000
3155555;-0.39000
3158332;-0.40000
3161110;-0.40500
3163888;-0.39500
3166666;-0.38000
3169444;-0.38500
3172221;-0.38500
3174999;-0.40000
3177777;-0.41000
3180555;-0.37500
3183332;-0.38000
3186110;-0.37500
3188888;-0.39500
3191666;-0.40000
3194444;-0.40000
3197221;-0.39500
3199999;-0.39000
3202777;-0.39500
3205555;-0.40500
3208332;-0.41500
3211110;-0.42000
3213888;-0.40500
3216666;-0.41500
3219444;-0.41000
3222221;-0.41500
3224999;-0.42500
3227777;-0.43000
3230555;-0.42000
3233332;-0.40000
3236110;-0.41500
3238888;-0.41000
3241666;-0.42000
3244444;-0.42000
3247221;-0.41500
3249999;-0.40500
3252777;-0.40500
3255555;-0.39000
3258332;-0.39500
3261110;-0.38000
3263888;-0.35000
3266666;-0.32000
3269444;-0.32000
3272221;-0.31000
3274999;-0.31500
3277777;-0.30500
3280555;-0.29000
3283332;-0.27500
3286110;-0.27500
3288888;-0.26500
3291666;-0.28000
3294444;-0.27000
3297221;-0.25500
3299999;-0.24000
3302777;-0.24500
3305555;-0.24500
3308332;-0.25500
3311110;-0.25500
3313888;-0.24500
3316666;-0.23500
3319444;-0.24500
3322221;-0.24000
3324999;-0.26000
3327777;-0.26500
3330555;-0.25500
3333332;-0.24500
3336110;-0.24500
3338888;-0.25000
3341666;-0.26500
3344444;-0.26000
3347221;-0.25000
3349999;-0.24500
3352777;-0.24500
3355555;-0.25500
3358332;-0.26000
3361110;-0.25500
3363888;-0.24000
3366666;-0.23500
3369444;-0.24000
3372221;-0.24500
3374999;-0.26000
3377777;-0.24500
3380555;-0.24500
3383332;-0.23000
3386110;-0.25500
3388888;-0.25500
3391666;-0.26000
3394443;-0.26000
3397221;-0.25500
3399999;-0.25000
3402777;-0.25000
3405555;-0.26500
3408332;-0.26000
3411110;-0.25500
3413888;-0.25500
3416666;-0.25500
3419443;-0.25000
3422221;-0.26000
3424999;-0.25500
3427777;-0.26000
3430555;-0.25500
3433332;-0.25500
3436110;-0.25000
3438888;-0.26000
3441666;-0.28000
3444443;-0.28000
3447221;-0.25500
3449999;-0.25500
3452777;-0.26000
3455555;-0.27000
3458332;-0.28500
3461110;-0.28000
3463888;-0.27500
3466666;-0.27000
3469443;-0.28000
3472221;-0.28000
3474999;-0.28000
3477777;-0.27500
3480555;-0.26500
3483332;-0.26500
3486110;-0.27000
3488888;-0.27000
3491666;-0.28000
3494443;-0.29500
3497221;-0.27000
3499999;-0.25500
3502777;-0.26000
3505555;-0.26500
3508332;-0.26500
3511110;-0.26500
3513888;-0.26000
3516666;-0.24500
3519443;-0.24500
3522221;-0.23500
3524999;-0.24000
3527777;-0.23500
3530555;-0.21500
3533332;-0.21000
3536110;-0.20500
3538888;-0.21000
3541666;-0.20000
3544443;-0.19000
3547221;-0.18000
3549999;-0.17500
3552777;-0.16500
3555555;-0.17000
3558332;-0.16500
3561110;-0.16000
3563888;-0.13000
3566666;-0.11500
3569443;-0.12500
3572221;-0.13000
3574999;-0.14500
3577777;-0.17000
3580555;-0.16000
3583332;-0.13000
3586110;-0.13500
3588888;-0.13500
3591666;-0.14500
3594443;-0.12500
3597221;-0.09000
3599999;-0.09000
3602777;-0.12000
3605555;-0.16000
3608332;-0.19000
3611110;-0.20000
3613888;-0.20500
3616666;-0.19000
3619443;-0.21000
3622221;-0.22000
3624999;-0.24000
3627777;-0.25000
3630555;-0.25000
3633332;-0.25500
3636110;-0.27000
3638888;-0.28000
3641666;-0.28500
3644443;-0.28000
3647221;-0.27000
3649999;-0.27500
3652777;-0.27500
3655555;-0.27500
3658332;-0.28500
3661110;-0.29000
3663888;-0.27000
3666666;-0.27000
3669443;-0.28500
3672221;-0.28500
3674999;-0.29500
3677777;-0.30500
3680555;-0.28000
3683332;-0.27500
3686110;-0.29500
3688888;-0.29500
3691666;-0.30500
3694443;-0.30000
3697221;-0.29000
3699999;-0.30000
3702777;-0.32500
3705555;-0.35500
3708332;-0.40000
3711110;-0.42500
3713888;-0.43500
3716666;-0.46000
3719443;-0.49500
3722221;-0.46000
3724999;-0.38500
3727777;-0.26000
3730555;-0.09500
3733332;0.08000
3736110;0.30000
3738888;0.57500
3741666;0.77500
3744443;0.90500
3747221;0.94000
3749999;0.77500
3752777;0.42500
3755555;0.01000
3758332;-0.32500
3761110;-0.47000
3763888;-0.46500
3766666;-0.41000
3769443;-0.36000
3772221;-0.32500
3774999;-0.34000
3777777;-0.34000
3780554;-0.33000
3783332;-0.32500
3786110;-0.32500
3788888;-0.33500
3791666;-0.34500
3794443;-0.34500
3797221;-0.32500
3799999;-0.32500
3802777;-0.32000
3805554;-0.32000
3808332;-0.33500
3811110;-0.35000
3813888;-0.34000
3816666;-0.32000
3819443;-0.34000
3822221;-0.34000
3824999;-0.33500
3827777;-0.35000
3830554;-0.33500
3833332;-0.32000
3836110;-0.33500
3838888;-0.34500
3841666;-0.34000
3844443;-0.35000
3847221;-0.34000
3849999;-0.33500
3852777;-0.34500
3855554;-0.35000
3858332;-0.34500
3861110;-0.35000
3863888;-0.34000
3866666;-0.32500
3869443;-0.34000
3872221;-0.33000
3874999;-0.33500
3877777;-0.35500
3880554;-0.34500
3883332;-0.32500
3886110;-0.32000
3888888;-0.34500
3891666;-0.34500
3894443;-0.33500
3897221;-0.33500
3899999;-0.31500
3902777;-0.33500
3905554;-0.33500
3908332;-0.34000
3911110;-0.35000
3913888;-0.33000
3916666;-0.34000
3919443;-0.33000
3922221;-0.32500
3924999;-0.35000
3927777;-0.33500
3930554;-0.32000
3933332;-0.31500
3936110;-0.33000
3938888;-0.32500
3941666;-0.32500
3944443;-0.34000
3947221;-0.33000
3949999;-0.32000
3952777;-0.31500
3955554;-0.32000
3958332;-0.32500
3961110;-0.33500
3963888;-0.33000
3966666;-0.31000
3969443;-0.31000
3972221;-0.33000
3974999;-0.33000
3977777;-0.32500
3980554;-0.32500
3983332;-0.31500
3986110;-0.32000
3988888;-0.32500
3991666;-0.33500
3994443;-0.33000
3997221;-0.32500
3999999;-0.32000
4002777;-0.31000
4005554;-0.32000
4008332;-0.32500
4011110;-0.33000
4013888;-0.32500
4016666;-0.31000
4019443;-0.31500
4022221;-0.32000
4024999;-0.32000
4027777;-0.33000
4030554;-0.31500
4033332;-0.30500
4036110;-0.31500
4038888;-0.32000
4041666;-0.30000
4044443;-0.30000
4047221;-0.29000
4049999;-0.27000
4052777;-0.27000
4055554;-0.27500
4058332;-0.27000
4061110;-0.26500
4063888;-0.24000
4066666;-0.23500
4069443;-0.23500
4072221;-0.24000
4074999;-0.23500
4077777;-0.24000
4080554;-0.23000
4083332;-0.22000
4086110;-0.22500
4088888;-0.21500
4091666;-0.24000
4094443;-0.24000
4097221;-0.22000
4099999;-0.21500
4102777;-0.23000
4105554;-0.23500
4108332;-0.23500
4111110;-0.23500
4113888;-0.23000
4116666;-0.22000
4119443;-0.23000
4122221;-0.24500
4124999;-0.24500
4127777;-0.25000
4130554;-0.23000
4133332;-0.23000
4136110;-0.23000
4138888;-0.23500
4141666;-0.25000
4144443;-0.24000
4147221;-0.23000
4149999;-0.23000
4152777;-0.23500
4155554;-0.23000
4158332;-0.23500
4161110;-0.24500
4163888;-0.23500
4166666;-0.23000
4169443;-0.24500
4172221;-0.23500
4174999;-0.24500
4177777;-0.25500
4180554;-0.24000
4183332;-0.23500
4186110;-0.24000
4188888;-0.24500
4191665;-0.26000
4194443;-0.26500
4197221;-0.25000
4199999;-0.24500
4202777;-0.26000
4205554;-0.27000
4208332;-0.28000
4211110;-0.27500
4213888;-0.26500
4216665;-0.26000
4219443;-0.26500
4222221;-0.26500
4224999;-0.27000
4227777;-0.27500
4230554;-0.27000
4233332;-0.26000
4236110;-0.26500
4238888;-0.28000
4241665;-0.27500
4244443;-0.27500
4247221;-0.26500
4249999;-0.25500
4252777;-0.26500
4255554;-0.27000
4258332;-0.28500
4261110;-0.28000
4263888;-0.28500
4266665;-0.26500
4269443;-0.27500
4272221;-0.29500
4274999;-0.28500
4277777;-0.28500
4280554;-0.27500
4283332;-0.26000
4286110;-0.27000
4288888;-0.27500
4291665;-0.28000
4294443;-0.28000
4297221;-0.26500
4299999;-0.25000
4302777;-0.25500
4305554;-0.25500
4308332;-0.26000
4311110;-0.25000
4313888;-0.24500
4316665;-0.21500
4319443;-0.21500
4322221;-0.22000
4324999;-0.22500
4327777;-0.22500
4330554;-0.20500
4333332;-0.19000
4336110;-0.20000
4338888;-0.20000
4341665;-0.19000
4344443;-0.18500
4347221;-0.17000
4349999;-0.14000
4352777;-0.13000
4355554;-0.14500
4358332;-0.15000
4361110;-0.15000
4363888;-0.15000
4366665;-0.14500
4369443;-0.16000
4372221;-0.16000
4374999;-0.15500
4377777;-0.16000
4380554;-0.14500
4383332;-0.14000
4386110;-0.14500
4388888;-0.13000
4391665;-0.13500
4394443;-0.15000
4397221;-0.17500
4399999;-0.20000
4402777;-0.22000
4405554;-0.21500
4408332;-0.22500
4411110;-0.25000
4413888;-0.27000
4416665;-0.25000
4419443;-0.27500
4422221;-0.29000
4424999;-0.29000
4427777;-0.29500
4430554;-0.28500
4433332;-0.28500
4436110;-0.29000
4438888;-0.29000
4441665;-0.30000
4444443;-0.32000
4447221;-0.31500
4449999;-0.30500
4452777;-0.31000
4455554;-0.32000
4458332;-0.32000
4461110;-0.32000
4463888;-0.31500
4466665;-0.30500
4469443;-0.30000
4472221;-0.31500
4474999;-0.31500
4477777;-0.32000
4480554;-0.31000
4483332;-0.31000
4486110;-0.32500
4488888;-0.34000
4491665;-0.37000
4494443;-0.41000
4497221;-0.42500
4499999;-0.42500
4502777;-0.46000
4505554;-0.51000
4508332;-0.55000
4511110;-0.49500
4513888;-0.39000
4516665;-0.25000
4519443;-0.11000
4522221;0.09000
4524999;0.35500
4527777;0.64500
4530554;0.82500
4533332;0.88500
4536110;0.74500
4538888;0.42500
4541665;0.00500
4544443;-0.34000
4547221;-0.49000
4549999;-0.48000
4552777;-0.41500
4555554;-0.37500
4558332;-0.37500
4561110;-0.38500
4563888;-0.37500
4566665;-0.35000
4569443;-0.36000
4572221;-0.37000
4574999;-0.38000
4577776;-0.37000
4580554;-0.36500
4583332;-0.37500
4586110;-0.37000
4588888;-0.38000
4591665;-0.37500
4594443;-0.36500
4597221;-0.35000
4599999;-0.33000
4602776;-0.34000
4605554;-0.35500
4608332;-0.36500
4611110;-0.36500
4613888;-0.36500
4616665;-0.36000
4619443;-0.36500
4622221;-0.37000
4624999;-0.37000
4627776;-0.37500
4630554;-0.37000
4633332;-0.36500
4636110;-0.38000
4638888;-0.37500
4641665;-0.39000
4644443;-0.38000
4647221;-0.37500
4649999;-0.36500
4652776;-0.37500
4655554;-0.37500
4658332;-0.37000
4661110;-0.36500
4663888;-0.37000
4666665;-0.35000
4669443;-0.37500
4672221;-0.37500
4674999;-0.38000
4677776;-0.38500
4680554;-0.36000
4683332;-0.35500
4686110;-0.36500
4688888;-0.37000
4691665;-0.37500
4694443;-0.37500
4697221;-0.36000
4699999;-0.35000
4702776;-0.36000
4705554;-0.36000
4708332;-0.37500
4711110;-0.38500
4713888;-0.37000
4716665;-0.36000
4719443;-0.36500
4722221;-0.37500
4724999;-0.38000
4727776;-0.38000
4730554;-0.36500
4733332;-0.36000
4736110;-0.37000
4738888;-0.36000
4741665;-0.37000
4744443;-0.36500
4747221;-0.36000
4749999;-0.35000
4752776;-0.35500
4755554;-0.35500
4758332;-0.37000
4761110;-0.38000
4763888;-0.37000
4766665;-0.36000
4769443;-0.37000
4772221;-0.37000
4774999;-0.38500
4777776;-0.38500
4780554;-0.37500
4783332;-0.37000
4786110;-0.38000
4788888;-0.38500
4791665;-0.38500
4794443;-0.38500
4797221;-0.36500
4799999;-0.36500
4802776;-0.36000
4805554;-0.36000
4808332;-0.36000
4811110;-0.35500
4813888;-0.34000
4816665;-0.32500
4819443;-0.32500
4822221;-0.32500
4824999;-0.32000
4827776;-0.32500
4830554;-0.30500
4833332;-0.28500
4836110;-0.29000
4838888;-0.29500
4841665;-0.30000
4844443;-0.31500
4847221;-0.30500
4849999;-0.29000
4852776;-0.30000
4855554;-0.30500
4858332;-0.31500
4861110;-0.30500
4863888;-0.30500
4866665;-0.27500
4869443;-0.28000
4872221;-0.28500
4874999;-0.30000
4877776;-0.30500
4880554;-0.28500
4883332;-0.28000
4886110;-0.30000
4888888;-0.30500
4891665;-0.30500
4894443;-0.31000
4897221;-0.30000
4899999;-0.28500
4902776;-0.29500
4905554;-0.30500
4908332;-0.31500
4911110;-0.32000
4913888;-0.31500
4916665;-0.30500
4919443;-0.31000
4922221;-0.31000
4924999;-0.32000
4927776;-0.33000
4930554;-0.32500
4933332;-0.31000
4936110;-0.31500
4938888;-0.33500
4941665;-0.33500
4944443;-0.33500
4947221;-0.32500
4949999;-0.32000
4952776;-0.32000
4955554;-0.32500
4958332;-0.33500
4961110;-0.34000
4963887;-0.33500
4966665;-0.32000
4969443;-0.33000
4972221;-0.33000
4974999;-0.35500
4977776;-0.36500
4980554;-0.35500
4983332;-0.34500
4986110;-0.35000
4988887;-0.35000
4991665;-0.36500
4994443;-0.36000
4997221;-0.35000
4999999;-0.33500
5002776;-0.34000
5005554;-0.35000
5008332;-0.35500
5011110;-0.36500
5013887;-0.34000
5016665;-0.33000
5019443;-0.34500
5022221;-0.35500
5024999;-0.37500
5027776;-0.37000
5030554;-0.36000
5033332;-0.35500
5036110;-0.35000
5038887;-0.34500
5041665;-0.36000
5044443;-0.36500
5047221;-0.36000
5049999;-0.36000
5052776;-0.36500
5055554;-0.37000
5058332;-0.39000
5061110;-0.37500
5063887;-0.36500
5066665;-0.35000
5069443;-0.35500
5072221;-0.36000
5074999;-0.37000
5077776;-0.36500
5080554;-0.35000
5083332;-0.33500
5086110;-0.33000
5088887;-0.32000
5091665;-0.32500
5094443;-0.33500
5097221;-0.31000
5099999;-0.30500
5102776;-0.29500
5105554;-0.29500
5108332;-0.30000
5111110;-0.29500
5113887;-0.28500
5116665;-0.27500
5119443;-0.26500
5122221;-0.28500
5124999;-0.26500
5127776;-0.26500
5130554;-0.25500
5133332;-0.24500
5136110;-0.24500
5138887;-0.25000
5141665;-0.27500
5144443;-0.27000
5147221;-0.26500
5149999;-0.25500
5152776;-0.25500
5155554;-0.26500
5158332;-0.25500
5161110;-0.24500
5163887;-0.24000
5166665;-0.24500
5169443;-0.28000
5172221;-0.30000
5174999;-0.31500
5177776;-0.31500
5180554;-0.33000
5183332;-0.33500
5186110;-0.34000
5188887;-0.36500
5191665;-0.38500
5194443;-0.40000
5197221;-0.39500
5199999;-0.37500
5202776;-0.38000
5205554;-0.37500
5208332;-0.38500
5211110;-0.40500
5213887;-0.39500
5216665;-0.39000
5219443;-0.40000
5222221;-0.40500
5224999;-0.41000
5227776;-0.41500
5230554;-0.40500
5233332;-0.39500
5236110;-0.39500
5238887;-0.40000
5241665;-0.41500
5244443;-0.42000
5247221;-0.41500
5249999;-0.40500
5252776;-0.42500
5255554;-0.44500
5258332;-0.47500
5261110;-0.51000
5263887;-0.52000
5266665;-0.52500
5269443;-0.56500
5272221;-0.62500
5274999;-0.63000
5277776;-0.57000
5280554;-0.45000
5283332;-0.33500
5286110;-0.22000
5288887;-0.02000
5291665;0.22500
5294443;0.51000
5297221;0.72000
5299999;0.81000
5302776;0.73500
5305554;0.46000
5308332;0.07000
5311110;-0.30000
5313887;-0.51000
5316665;-0.58000
5319443;-0.56500
5322221;-0.52000
5324999;-0.48500
5327776;-0.47500
5330554;-0.46500
5333332;-0.45000
5336110;-0.45000
5338887;-0.45500
5341665;-0.46000
5344443;-0.45500
5347221;-0.45500
5349999;-0.45000
5352776;-0.46000
5355554;-0.46500
5358332;-0.49000
5361110;-0.48000
5363887;-0.47500
5366665;-0.45500
5369443;-0.46500
5372221;-0.46500
5374998;-0.47000
5377776;-0.47500
5380554;-0.47000
5383332;-0.46500
5386110;-0.47000
5388887;-0.47500
5391665;-0.48000
5394443;-0.48000
5397221;-0.46500
5399998;-0.45500
5402776;-0.46000
5405554;-0.47500
5408332;-0.49000
5411110;-0.49500
5413887;-0.49000
5416665;-0.47000
5419443;-0.47000
5422221;-0.49000
5424998;-0.48000
5427776;-0.48500
5430554;-0.46500
5433332;-0.47500
5436110;-0.46500
5438887;-0.46500
5441665;-0.47500
5444443;-0.49000
5447221;-0.47500
5449998;-0.47500
5452776;-0.48000
5455554;-0.49000
5458332;-0.49000
5461110;-0.47500
5463887;-0.45500
5466665;-0.46000
5469443;-0.47500
5472221;-0.47500
5474998;-0.48500
5477776;-0.49500
5480554;-0.47000
5483332;-0.45500
5486110;-0.45500
5488887;-0.45500
5491665;-0.46500
5494443;-0.46500
5497221;-0.46500
5499998;-0.46500
5502776;-0.46500
5505554;-0.48500
5508332;-0.48500
5511110;-0.49000
5513887;-0.47500
5516665;-0.46500
5519443;-0.46500
5522221;-0.46000
5524998;-0.47500
5527776;-0.48500
5530554;-0.49000
5533332;-0.48000
5536110;-0.48500
5538887;-0.49500
5541665;-0.50500
5544443;-0.49500
5547221;-0.50500
5549998;-0.48500
5552776;-0.49500
5555554;-0.50000
5558332;-0.51000
5561110;-0.52000
5563887;-0.51000
5566665;-0.48500
5569443;-0.48500
5572221;-0.49500
5574998;-0.48500
5577776;-0.47500
5580554;-0.44000
5583332;-0.42500
5586110;-0.41500
5588887;-0.40500
5591665;-0.40500
5594443;-0.40000
5597221;-0.37500
5599998;-0.37500
5602776;-0.37000
5605554;-0.37500
5608332;-0.37500
5611110;-0.36000
5613887;-0.34000
5616665;-0.34000
5619443;-0.34500
5622221;-0.34000
5624998;-0.34500
5627776;-0.36000
5630554;-0.35000
5633332;-0.33000
5636110;-0.34500
5638887;-0.35000
5641665;-0.36000
5644443;-0.36000
5647221;-0.34500
5649998;-0.33000
5652776;-0.34000
5655554;-0.35500
5658332;-0.36500
5661110;-0.35500
5663887;-0.34000
5666665;-0.34000
5669443;-0.34500
5672221;-0.35000
5674998;-0.35000
5677776;-0.34500
5680554;-0.34000
5683332;-0.33000
5686110;-0.33000
5688887;-0.34500
5691665;-0.35500
5694443;-0.36000
5697221;-0.35000
5699998;-0.34500
5702776;-0.35500
5705554;-0.34500
5708332;-0.36000
5711110;-0.35000
5713887;-0.35000
5716665;-0.34500
5719443;-0.36500
5722221;-0.36500
5724998;-0.36000
5727776;-0.36500
5730554;-0.36500
5733332;-0.36000
5736110;-0.36500
5738887;-0.37500
5741665;-0.37500
5744443;-0.38000
5747221;-0.37500
5749998;-0.35500
5752776;-0.36000
5755554;-0.37000
5758332;-0.37000
5761109;-0.39000
5763887;-0.38000
5766665;-0.36000
5769443;-0.37000
5772221;-0.36500
5774998;-0.37500
5777776;-0.39000
5780554;-0.37500
5783332;-0.37500
5786109;-0.37500
5788887;-0.38000
5791665;-0.38500
5794443;-0.39000
5797221;-0.37500
5799998;-0.36000
5802776;-0.37000
5805554;-0.36500
5808332;-0.37500
5811109;-0.36500
5813887;-0.35500
5816665;-0.33500
5819443;-0.35500
5822221;-0.35000
5824998;-0.37000
5827776;-0.37000
5830554;-0.34500
5833332;-0.33000
5836109;-0.35000
5838887;-0.35000
5841665;-0.35500
5844443;-0.35500
5847221;-0.34500
5849998;-0.34500
5852776;-0.34500
5855554;-0.32500
5858332;-0.33000
5861109;-0.33500
5863887;-0.32500
5866665;-0.30500
5869443;-0.30500
5872221;-0.29000
5874998;-0.29000
5877776;-0.28500
5880554;-0.27500
5883332;-0.25500
5886109;-0.25500
5888887;-0.25000
5891665;-0.26500
5894443;-0.25000
5897221;-0.23500
5899998;-0.21000
5902776;-0.23000
5905554;-0.22500
5908332;-0.23000
5911109;-0.25000
5913887;-0.22500
5916665;-0.22000
5919443;-0.22000
5922221;-0.22500
5924998;-0.23500
5927776;-0.23500
5930554;-0.21500
5933332;-0.19500
5936109;-0.24000
5938887;-0.26500
5941665;-0.30000
5944443;-0.30000
5947221;-0.30000
5949998;-0.29500
5952776;-0.32000
5955554;-0.33000
5958332;-0.34500
5961109;-0.35500
5963887;-0.35000
5966665;-0.34000
5969443;-0.33500
5972221;-0.34500
5974998;-0.35000
5977776;-0.35000
5980554;-0.35000
5983332;-0.35000
5986109;-0.35500
5988887;-0.35500
5991665;-0.37000
5994443;-0.36000
5997221;-0.37000
5999998;-0.36000
6002776;-0.36500
6005554;-0.36000
6008332;-0.35500
6011109;-0.38000
6013887;-0.35500
6016665;-0.35500
6019443;-0.35500
6022221;-0.36500
6024998;-0.37500
6027776;-0.38000
6030554;-0.36500
6033332;-0.40500
6036109;-0.43500
6038887;-0.47000
6041665;-0.50500
6044443;-0.53000
6047221;-0.55000
6049998;-0.53500
6052776;-0.46500
6055554;-0.34000
6058332;-0.20000
6061109;-0.03000
6063887;0.24500
6066665;0.52500
6069443;0.74000
6072221;0.86000
6074998;0.81000
6077776;0.56000
6080554;0.17000
6083332;-0.21000
6086109;-0.45500
6088887;-0.55000
6091665;-0.57000
6094443;-0.51500
6097221;-0.45500
6099998;-0.41000
6102776;-0.40000
6105554;-0.40000
6108332;-0.41500
6111109;-0.42500
6113887;-0.40500
6116665;-0.38000
6119443;-0.38000
6122221;-0.39500
6124998;-0.41000
6127776;-0.41000
6130554;-0.39500
6133332;-0.38500
6136109;-0.39000
6138887;-0.40000
6141665;-0.40500
6144443;-0.40500
6147221;-0.39500
6149998;-0.38500
6152776;-0.39500
6155554;-0.39000
6158332;-0.40500
6161109;-0.41500
6163887;-0.40500
6166665;-0.39000
6169443;-0.39500
6172220;-0.39000
6174998;-0.40000
6177776;-0.40000
6180554;-0.39000
6183332;-0.38500
6186109;-0.37500
6188887;-0.39000
6191665;-0.39500
6194443;-0.40000
6197220;-0.39000
6199998;-0.38500
6202776;-0.40000
6205554;-0.39000
6208332;-0.39500
6211109;-0.40500
6213887;-0.39000
6216665;-0.38500
6219443;-0.40000
6222220;-0.39000
6224998;-0.40000
6227776;-0.40500
6230554;-0.40000
6233332;-0.37500
6236109;-0.38000
6238887;-0.39000
6241665;-0.40000
6244443;-0.39000
6247220;-0.38500
6249998;-0.37500
6252776;-0.37500
6255554;-0.37500
6258332;-0.39500
6261109;-0.38500
6263887;-0.38000
6266665;-0.36500
6269443;-0.36500
6272220;-0.38500
6274998;-0.38500
6277776;-0.38500
6280554;-0.37500
6283332;-0.38000
6286109;-0.38000
6288887;-0.38500
6291665;-0.39500
6294443;-0.40500
6297220;-0.40000
6299998;-0.38500
6302776;-0.39000
6305554;-0.39500
6308332;-0.40000
6311109;-0.40500
6313887;-0.39500
6316665;-0.39000
6319443;-0.39000
6322220;-0.39500
6324998;-0.40500
6327776;-0.40500
6330554;-0.40000
6333332;-0.39500
6336109;-0.39500
6338887;-0.40000
6341665;-0.40000
6344443;-0.39500
6347220;-0.37000
6349998;-0.35500
6352776;-0.34500
6355554;-0.33000
6358332;-0.33500
6361109;-0.33500
6363887;-0.30000
6366665;-0.30500
6369443;-0.30000
6372220;-0.29000
6374998;-0.29000
6377776;-0.28500
6380554;-0.27000
6383332;-0.26500
6386109;-0.26000
6388887;-0.26500
6391665;-0.26500
6394443;-0.27000
6397220;-0.26000
6399998;-0.25500
6402776;-0.25500
6405554;-0.25500
6408332;-0.27000
6411109;-0.27000
6413887;-0.26000
6416665;-0.24500
6419443;-0.25000
6422220;-0.25000
6424998;-0.26000
6427776;-0.27000
6430554;-0.26000
6433332;-0.25500
6436109;-0.26500
6438887;-0.25000
6441665;-0.26000
6444443;-0.27500
6447220;-0.25000
6449998;-0.24500
6452776;-0.26000
6455554;-0.28500
6458332;-0.26000
6461109;-0.27000
6463887;-0.27000
6466665;-0.24500
6469443;-0.26500
6472220;-0.27000
6474998;-0.27500
6477776;-0.28000
6480554;-0.27500
6483332;-0.28000
6486109;-0.28500
6488887;-0.29500
6491665;-0.30000
6494443;-0.30500
6497220;-0.29000
6499998;-0.27000
6502776;-0.29500
6505554;-0.29000
6508332;-0.30000
6511109;-0.29500
6513887;-0.29000
6516665;-0.28000
6519443;-0.28500
6522220;-0.28500
6524998;-0.30000
6527776;-0.30500
6530554;-0.29000
6533332;-0.28000
6536109;-0.28500
6538887;-0.28500
6541665;-0.30500
6544443;-0.30500
6547220;-0.30500
6549998;-0.29000
6552776;-0.30000
6555554;-0.30000
6558331;-0.30500
6561109;-0.31000
6563887;-0.29000
6566665;-0.28500
6569443;-0.29500
6572220;-0.29000
6574998;-0.29500
6577776;-0.29500
6580554;-0.28500
6583331;-0.27500
6586109;-0.27500
6588887;-0.28000
6591665;-0.29000
6594443;-0.27500
6597220;-0.26500
6599998;-0.25000
6602776;-0.25000
6605554;-0.25000
6608331;-0.24500
6611109;-0.25000
6613887;-0.22500
6616665;-0.21500
6619443;-0.22000
6622220;-0.22000
6624998;-0.22500
6627776;-0.21000
6630554;-0.19500
6633331;-0.18000
6636109;-0.18000
6638887;-0.17500
6641665;-0.19000
6644443;-0.18000
6647220;-0.17000
6649998;-0.17000
6652776;-0.17500
6655554;-0.19000
6658331;-0.19500
6661109;-0.19500
6663887;-0.18000
6666665;-0.16500
6669443;-0.15500
6672220;-0.14000
6674998;-0.13500
6677776;-0.18000
6680554;-0.20000
6683331;-0.22000
6686109;-0.24000
6688887;-0.25000
6691665;-0.27000
6694443;-0.27000
6697220;-0.28000
6699998;-0.26000
6702776;-0.28000
6705554;-0.28500
6708331;-0.30500
6711109;-0.32000
6713887;-0.31000
6716665;-0.30500
6719443;-0.30500
6722220;-0.30500
6724998;-0.30500
6727776;-0.31500
6730554;-0.30000
6733331;-0.30000
6736109;-0.31500
6738887;-0.32000
6741665;-0.32500
6744443;-0.34000
6747220;-0.32000
6749998;-0.31500
6752776;-0.33500
6755554;-0.34000
6758331;-0.35000
6761109;-0.33500
6763887;-0.34000
6766665;-0.33000
6769443;-0.32500
6772220;-0.33000
6774998;-0.34000
6777776;-0.34000
6780554;-0.35000
6783331;-0.36500
6786109;-0.40000
6788887;-0.44000
6791665;-0.45500
6794443;-0.49000
6797220;-0.52000
6799998;-0.52000
6802776;-0.47000
6805554;-0.36000
6808331;-0.23500
6811109;-0.08000
6813887;0.13000
6816665;0.40500
6819443;0.64500
6822220;0.81000
6824998;0.86500
6827776;0.77500
6830554;0.53500
6833331;0.16000
6836109;-0.20500
6838887;-0.44000
6841665;-0.52500
6844443;-0.47000
6847220;-0.42000
6849998;-0.36500
6852776;-0.37000
6855554;-0.37500
6858331;-0.38500
6861109;-0.37500
6863887;-0.37000
6866665;-0.34500
6869443;-0.36000
6872220;-0.36000
6874998;-0.38000
6877776;-0.38500
6880554;-0.37000
6883331;-0.36000
6886109;-0.37500
6888887;-0.37500
6891665;-0.39000
6894443;-0.38500
6897220;-0.37000
6899998;-0.36000
6902776;-0.37000
6905554;-0.37500
6908331;-0.38000
6911109;-0.37000
6913887;-0.36500
6916665;-0.35000
6919443;-0.36000
6922220;-0.36000
6924998;-0.36500
6927776;-0.37000
6930554;-0.37000
6933331;-0.35000
6936109;-0.35000
6938887;-0.36000
6941665;-0.37000
6944442;-0.37500
6947220;-0.36000
6949998;-0.35500
6952776;-0.36000
6955554;-0.37000
6958331;-0.38000
6961109;-0.37500
6963887;-0.37000
6966665;-0.35500
6969442;-0.35000
6972220;-0.36000
6974998;-0.36500
6977776;-0.36500
6980554;-0.35000
6983331;-0.34500
6986109;-0.35500
6988887;-0.36500
6991665;-0.35500
6994442;-0.35000
6997220;-0.34500
6999998;-0.33000
7002776;-0.33000
7005554;-0.33000
7008331;-0.34500
7011109;-0.36500
7013887;-0.35000
7016665;-0.34000
7019442;-0.33500
7022220;-0.34500
7024998;-0.35500
7027776;-0.35500
7030554;-0.34500
7033331;-0.33000
7036109;-0.33500
7038887;-0.35000
7041665;-0.35500
7044442;-0.36000
7047220;-0.34500
7049998;-0.34500
7052776;-0.34500
7055554;-0.35500
7058331;-0.36000
7061109;-0.35500
7063887;-0.34500
7066665;-0.33500
7069442;-0.35000
7072220;-0.33500
7074998;-0.35000
7077776;-0.35500
7080554;-0.35000
7083331;-0.34500
7086109;-0.34000
7088887;-0.35500
7091665;-0.35500
7094442;-0.36000
7097220;-0.34500
7099998;-0.33000
7102776;-0.32000
7105554;-0.32500
7108331;-0.32500
7111109;-0.32500
7113887;-0.31000
7116665;-0.29500
7119442;-0.29000
7122220;-0.29500
7124998;-0.29500
7127776;-0.29000
7130554;-0.28000
7133331;-0.25500
7136109;-0.25500
7138887;-0.26500
7141665;-0.26000
7144442;-0.26000
7147220;-0.24500
7149998;-0.24500
7152776;-0.24000
7155554;-0.24000
7158331;-0.25500
7161109;-0.26000
7163887;-0.24500
7166665;-0.24000
7169442;-0.24500
7172220;-0.24500
7174998;-0.25000
7177776;-0.26000
7180554;-0.24500
7183331;-0.24000
7186109;-0.25000
7188887;-0.26000
7191665;-0.26000
7194442;-0.26500
7197220;-0.26500
7199998;-0.25500
7202776;-0.25000
7205554;-0.25000
7208331;-0.26500
7211109;-0.25000
7213887;-0.24500
7216665;-0.24000
7219442;-0.25500
7222220;-0.25500
7224998;-0.26000
7227776;-0.26000
7230554;-0.25000
7233331;-0.24000
7236109;-0.24000
7238887;-0.26500
7241665;-0.27000
7244442;-0.26500
7247220;-0.26500
7249998;-0.25500
7252776;-0.25500
7255554;-0.27500
7258331;-0.28000
7261109;-0.27500
7263887;-0.27000
7266665;-0.27000
7269442;-0.27500
7272220;-0.29000
7274998;-0.30000
7277776;-0.31000
7280554;-0.29500
7283331;-0.29000
7286109;-0.28500
7288887;-0.29000
7291665;-0.29500
7294442;-0.29500
7297220;-0.28000
7299998;-0.26500
7302776;-0.28000
7305554;-0.28000
7308331;-0.29000
7311109;-0.30000
7313887;-0.27500
7316665;-0.26500
7319442;-0.27500
7322220;-0.27500
7324998;-0.28000
7327776;-0.28500
7330554;-0.28000
7333331;-0.26000
7336109;-0.27500
7338887;-0.29000
7341665;-0.29000
7344442;-0.30000
7347220;-0.28000
7349998;-0.27000
7352776;-0.27000
7355553;-0.27000
7358331;-0.28500
7361109;-0.29500
7363887;-0.27000
7366665;-0.26000
7369442;-0.26500
7372220;-0.25000
7374998;-0.25500
7377776;-0.25500
7380553;-0.23000
7383331;-0.23000
7386109;-0.22000
7388887;-0.22000
7391665;-0.21500
7394442;-0.23000
7397220;-0.20500
7399998;-0.19500
7402776;-0.19000
7405553;-0.19000
7408331;-0.19500
7411109;-0.18500
7413887;-0.16500
7416665;-0.16000
7419442;-0.16500
7422220;-0.17500
7424998;-0.18000
7427776;-0.19500
7430553;-0.18500
7433331;-0.16500
7436109;-0.15500
7438887;-0.16500
7441665;-0.17000
7444442;-0.17000
7447220;-0.12500
7449998;-0.12500
7452776;-0.15000
7455553;-0.20000
7458331;-0.24500
7461109;-0.25000
7463887;-0.24500
7466665;-0.24500
7469442;-0.26000
7472220;-0.28500
7474998;-0.29000
7477776;-0.31000
7480553;-0.32000
7483331;-0.30000
7486109;-0.30000
7488887;-0.30500
7491665;-0.32000
7494442;-0.32000
7497220;-0.31000
7499998;-0.29500
7502776;-0.31000
7505553;-0.31000
7508331;-0.32000
7511109;-0.32000
7513887;-0.33000
7516665;-0.31500
7519442;-0.30500
7522220;-0.32000
7524998;-0.32500
7527776;-0.33000
7530553;-0.32000
7533331;-0.32500
7536109;-0.31000
7538887;-0.32000
7541665;-0.33500
7544442;-0.33500
7547220;-0.33000
7549998;-0.34500
7552776;-0.38500
7555553;-0.42500
7558331;-0.45500
7561109;-0.48500
7563887;-0.53000
7566665;-0.52000
7569442;-0.47000
7572220;-0.36500
7574998;-0.24500
7577776;-0.10500
7580553;0.13000
7583331;0.39500
7586109;0.62500
7588887;0.77000
7591665;0.82000
7594442;0.74000
7597220;0.51500
7599998;0.19000
7602776;-0.16500
7605553;-0.43000
7608331;-0.51500
7611109;-0.49500
7613887;-0.42500
7616665;-0.37000
7619442;-0.37000
7622220;-0.38500
7624998;-0.40000
7627776;-0.40000
7630553;-0.39000
7633331;-0.37500
7636109;-0.39000
7638887;-0.39500
7641665;-0.39500
7644442;-0.40500
7647220;-0.40000
7649998;-0.38500
7652776;-0.39000
7655553;-0.37500
7658331;-0.37500
7661109;-0.38500
7663887;-0.38500
7666665;-0.36500
7669442;-0.38000
7672220;-0.38500
7674998;-0.40000
7677776;-0.39500
7680553;-0.38000
7683331;-0.37500
7686109;-0.37000
7688887;-0.37500
7691665;-0.38500
7694442;-0.38500
7697220;-0.37500
7699998;-0.37000
7702776;-0.39000
7705553;-0.39000
7708331;-0.40000
7711109;-0.40000
7713887;-0.38500
7716665;-0.38000
7719442;-0.38500
7722220;-0.40000
7724998;-0.39500
7727776;-0.40500
7730553;-0.40000
7733331;-0.39500
7736109;-0.39500
7738887;-0.38000
7741664;-0.39500
7744442;-0.39500
7747220;-0.38000
7749998;-0.36500
7752776;-0.37500
7755553;-0.37500
7758331;-0.38500
7761109;-0.40000
7763887;-0.38500
7766664;-0.38000
7769442;-0.38000
7772220;-0.37500
7774998;-0.38500
7777776;-0.39500
7780553;-0.39500
7783331;-0.39000
7786109;-0.38000
7788887;-0.39000
7791664;-0.39000
7794442;-0.40000
7797220;-0.37500
7799998;-0.37500
7802776;-0.37500
7805553;-0.38000
7808331;-0.39500
7811109;-0.39000
7813887;-0.38000
7816664;-0.37000
7819442;-0.38000
7822220;-0.37500
7824998;-0.39000
7827776;-0.40000
7830553;-0.39500
7833331;-0.37000
7836109;-0.38500
7838887;-0.39500
7841664;-0.39000
7844442;-0.40000
7847220;-0.39500
7849998;-0.37500
7852776;-0.37500
7855553;-0.38000
7858331;-0.40000
7861109;-0.40500
7863887;-0.39000
7866664;-0.39500
7869442;-0.39500
7872220;-0.39000
7874998;-0.41000
7877776;-0.41500
7880553;-0.42000
7883331;-0.39000
7886109;-0.38000
7888887;-0.38000
7891664;-0.37500
7894442;-0.36500
7897220;-0.34000
7899998;-0.33000
7902776;-0.33000
7905553;-0.32500
7908331;-0.32500
7911109;-0.32500
7913887;-0.31500
7916664;-0.30000
7919442;-0.30500
7922220;-0.30000
7924998;-0.30500
7927776;-0.30500
7930553;-0.30000
7933331;-0.29500
7936109;-0.29000
7938887;-0.29000
7941664;-0.30000
7944442;-0.29500
7947220;-0.28000
7949998;-0.28500
7952776;-0.29500
7955553;-0.29500
7958331;-0.30000
7961109;-0.30000
7963887;-0.30000
7966664;-0.29000
7969442;-0.29500
7972220;-0.30500
7974998;-0.31500
7977776;-0.31000
7980553;-0.31000
7983331;-0.29000
7986109;-0.30000
7988887;-0.31000
7991664;-0.31000
7994442;-0.30500
7997220;-0.30500
7999998;-0.29000
8002776;-0.30000
8005553;-0.30500
8008331;-0.30500
8011109;-0.31500
8013887;-0.32000
8016664;-0.31500
8019442;-0.31000
8022220;-0.32500
8024998;-0.33000
8027776;-0.34000
8030553;-0.34000
8033331;-0.32500
8036109;-0.32000
8038887;-0.34000
8041664;-0.34000
8044442;-0.33500
8047220;-0.33000
8049998;-0.32500
8052776;-0.33500
8055553;-0.35000
8058331;-0.35000
8061109;-0.35000
8063887;-0.34500
8066664;-0.32500
8069442;-0.33500
8072220;-0.34000
8074998;-0.36000
8077776;-0.35500
8080553;-0.34000
8083331;-0.34000
8086109;-0.34000
8088887;-0.35500
8091664;-0.36000
8094442;-0.37000
8097220;-0.36000
8099998;-0.34500
8102776;-0.34500
8105553;-0.35000
8108331;-0.36500
8111109;-0.37500
8113887;-0.35000
8116664;-0.35500
8119442;-0.34500
8122220;-0.34500
8124998;-0.35500
8127776;-0.35000
8130553;-0.35500
8133331;-0.35000
8136109;-0.35000
8138887;-0.35500
8141664;-0.36500
8144442;-0.35500
8147220;-0.34000
8149998;-0.33500
8152775;-0.32000
8155553;-0.34000
8158331;-0.34000
8161109;-0.34500
8163887;-0.34500
8166664;-0.35000
8169442;-0.35000
8172220;-0.36000
8174998;-0.38000
8177775;-0.36000
8180553;-0.34500
8183331;-0.33500
8186109;-0.32500
8188887;-0.32000
8191664;-0.30500
8194442;-0.31000
8197220;-0.30000
8199998;-0.29000
8202775;-0.28500
8205553;-0.29000
8208331;-0.28500
8211109;-0.29000
8213887;-0.27000
8216664;-0.26000
8219442;-0.25500
8222220;-0.25000
8224998;-0.25000
8227775;-0.25000
8230553;-0.23000
8233331;-0.22500
8236109;-0.23500
8238887;-0.23500
8241664;-0.25500
8244442;-0.26500
8247220;-0.23500
8249998;-0.22000
8252775;-0.23000
8255553;-0.24000
8258331;-0.26500
8261109;-0.24500
8263887;-0.23500
8266664;-0.23000
8269442;-0.25500
8272220;-0.28500
8274998;-0.30500
8277775;-0.32000
8280553;-0.33000
8283331;-0.32500
8286109;-0.34000
8288887;-0.34500
8291664;-0.35500
8294442;-0.36000
8297220;-0.35000
8299998;-0.34500
8302775;-0.35000
8305553;-0.35500
8308331;-0.37000
8311109;-0.37000
8313887;-0.37500
8316664;-0.36000
8319442;-0.37000
8322220;-0.38000
8324998;-0.39500
8327775;-0.40000
8330553;-0.40000
8333331;-0.39000
8336109;-0.40000
8338887;-0.38500
8341664;-0.39500
8344442;-0.40500
8347220;-0.39500
8349998;-0.38500
8352775;-0.38500
8355553;-0.39000
8358331;-0.38500
8361109;-0.37500
8363887;-0.37500
8366664;-0.38000
8369442;-0.38500
8372220;-0.40000
8374998;-0.44000
8377775;-0.46500
8380553;-0.48500
8383331;-0.50500
8386109;-0.53000
8388887;-0.58500
8391664;-0.59000
8394442;-0.54000
8397220;-0.41500
8399998;-0.28500
8402775;-0.14000
8405553;0.05000
8408331;0.27500
8411109;0.52500
8413887;0.72500
8416664;0.82500
8419442;0.80500
8422220;0.59000
8424998;0.23500
8427775;-0.11500
8430553;-0.37500
8433331;-0.51500
8436109;-0.55000
8438887;-0.54000
8441664;-0.49000
8444442;-0.46500
8447220;-0.45000
8449998;-0.43000
8452775;-0.44000
8455553;-0.43500
8458331;-0.43500
8461109;-0.44500
8463887;-0.43500
8466664;-0.42500
8469442;-0.43500
8472220;-0.43500
8474998;-0.44500
8477775;-0.44500
8480553;-0.44000
8483331;-0.43000
8486109;-0.42500
8488887;-0.44500
8491664;-0.43500
8494442;-0.44500
8497220;-0.43000
8499998;-0.41500
8502775;-0.42500
8505553;-0.43500
8508331;-0.44500
8511109;-0.44000
8513887;-0.43500
8516664;-0.41500
8519442;-0.43000
8522220;-0.43500
8524998;-0.43500
8527775;-0.44500
8530553;-0.42500
8533331;-0.42500
8536109;-0.42500
8538886;-0.42500
8541664;-0.41000
8544442;-0.42000
8547220;-0.40500
8549998;-0.40500
8552775;-0.40000
8555553;-0.41000
8558331;-0.43000
8561109;-0.43000
8563886;-0.43000
8566664;-0.42000
8569442;-0.41500
8572220;-0.42500
8574998;-0.42500
8577775;-0.44000
8580553;-0.43000
8583331;-0.41500
8586109;-0.41500
8588886;-0.42000
8591664;-0.43000
8594442;-0.43000
8597220;-0.43000
8599998;-0.43000
8602775;-0.41500
8605553;-0.43000
8608331;-0.43500
8611109;-0.43500
8613886;-0.42000
8616664;-0.41500
8619442;-0.40500
8622220;-0.41500
8624998;-0.42500
8627775;-0.41500
8630553;-0.41000
8633331;-0.40500
8636109;-0.40000
8638886;-0.41000
8641664;-0.42500
8644442;-0.43000
8647220;-0.42000
8649998;-0.41500
8652775;-0.42000
8655553;-0.43000
8658331;-0.43000
8661109;-0.44000
8663886;-0.43500
8666664;-0.43500
8669442;-0.43500
8672220;-0.45000
8674998;-0.46500
8677775;-0.45500
8680553;-0.46000
8683331;-0.44500
8686109;-0.44500
8688886;-0.45000
8691664;-0.47000
8694442;-0.47000
8697220;-0.46500
8699998;-0.46000
8702775;-0.45500
8705553;-0.45500
8708331;-0.46000
8711109;-0.45500
8713886;-0.45000
8716664;-0.44000
8719442;-0.44000
8722220;-0.44500
8724998;-0.44000
8727775;-0.43500
8730553;-0.41000
8733331;-0.40000
8736109;-0.39000
8738886;-0.38000
8741664;-0.38500
8744442;-0.39000
8747220;-0.37500
8749998;-0.34500
8752775;-0.33500
8755553;-0.33500
8758331;-0.35000
8761109;-0.35000
8763886;-0.33500
8766664;-0.31000
8769442;-0.30500
8772220;-0.30000
8774998;-0.30500
8777775;-0.30000
8780553;-0.29500
8783331;-0.29000
8786109;-0.28000
8788886;-0.28500
8791664;-0.30000
8794442;-0.30000
8797220;-0.28500
8799998;-0.29500
8802775;-0.28000
8805553;-0.29500
8808331;-0.29500
8811109;-0.30500
8813886;-0.29500
8816664;-0.29000
8819442;-0.27500
8822220;-0.28000
8824998;-0.30000
8827775;-0.29500
8830553;-0.28500
8833331;-0.29000
8836109;-0.29000
8838886;-0.29500
8841664;-0.30500
8844442;-0.30000
8847220;-0.29500
8849998;-0.28500
8852775;-0.29000
8855553;-0.28500
8858331;-0.30000
8861109;-0.30500
8863886;-0.29500
8866664;-0.29500
8869442;-0.29500
8872220;-0.30000
8874998;-0.31000
8877775;-0.31000
8880553;-0.31000
8883331;-0.30500
8886109;-0.30000
8888886;-0.32000
8891664;-0.31500
8894442;-0.31500
8897220;-0.31500
8899998;-0.30000
8902775;-0.30000
8905553;-0.30000
8908331;-0.30500
8911109;-0.31000
8913886;-0.30500
8916664;-0.29500
8919442;-0.29500
8922220;-0.30500
8924998;-0.33000
8927775;-0.32000
8930553;-0.30500
8933331;-0.30000
8936109;-0.29500
8938886;-0.29500
8941664;-0.32000
8944442;-0.33500
8947220;-0.31000
8949997;-0.30500
8952775;-0.30500
8955553;-0.31500
8958331;-0.31500
8961109;-0.31500
8963886;-0.30000
8966664;-0.29500
8969442;-0.29000
8972220;-0.30000
8974997;-0.30000
8977775;-0.30500
8980553;-0.29500
8983331;-0.28500
8986109;-0.29000
8988886;-0.29500
8991664;-0.30000
8994442;-0.30000
8997220;-0.28000
8999997;-0.30000
9002775;-0.29000
9005553;-0.28500
9008331;-0.29000
9011109;-0.29000
9013886;-0.27000
9016664;-0.25500
9019442;-0.26000
9022220;-0.26500
9024997;-0.26500
9027775;-0.26000
9030553;-0.25000
9033331;-0.23500
9036109;-0.23500
9038886;-0.22500
9041664;-0.23000
9044442;-0.23000
9047220;-0.22500
9049997;-0.21000
9052775;-0.20000
9055553;-0.19500
9058331;-0.19000
9061109;-0.18500
9063886;-0.17500
9066664;-0.16000
9069442;-0.16500
9072220;-0.18000
9074997;-0.19500
9077775;-0.19500
9080553;-0.18500
9083331;-0.16500
9086109;-0.16500
9088886;-0.18000
9091664;-0.18000
9094442;-0.17500
9097220;-0.15000
9099997;-0.15000
9102775;-0.18000
9105553;-0.21500
9108331;-0.24000
9111109;-0.23500
9113886;-0.24500
9116664;-0.25000
9119442;-0.26500
9122220;-0.28500
9124997;-0.29500
9127775;-0.31000
9130553;-0.30000
9133331;-0.29000
9136109;-0.29000
9138886;-0.29500
9141664;-0.31000
9144442;-0.31500
9147220;-0.31000
9149997;-0.30500
9152775;-0.29500
9155553;-0.31000
9158331;-0.31500
9161109;-0.32500
9163886;-0.32500
9166664;-0.31000
9169442;-0.32000
9172220;-0.31000
9174997;-0.32500
9177775;-0.33000
9180553;-0.31500
9183331;-0.31000
9186109;-0.32000
9188886;-0.32500
9191664;-0.35500
9194442;-0.38000
9197220;-0.41500
9199997;-0.43500
9202775;-0.44000
9205553;-0.48500
9208331;-0.54000
9211109;-0.54500
9213886;-0.50000
9216664;-0.42000
9219442;-0.33500
9222220;-0.27000
9224997;-0.25000
9227775;-0.20500
9230553;-0.13500
9233331;-0.04000
9236109;0.07500
9238886;0.24500
9241664;0.46500
9244442;0.66000
9247220;0.83500
9249997;0.92000
9252775;0.88000
9255553;0.67000
9258331;0.30000
9261109;-0.09000
9263886;-0.37000
9266664;-0.47000
9269442;-0.46500
9272220;-0.42500
9274997;-0.39000
9277775;-0.37000
9280553;-0.37000
9283331;-0.36500
9286109;-0.35500
9288886;-0.37000
9291664;-0.37500
9294442;-0.37000
9297220;-0.37000
9299997;-0.37500
9302775;-0.36500
9305553;-0.37500
9308331;-0.38000
9311109;-0.39000
9313886;-0.38000
9316664;-0.36000
9319442;-0.37000
9322220;-0.38000
9324997;-0.38000
9327775;-0.37500
9330553;-0.36000
9333331;-0.36000
9336108;-0.35500
9338886;-0.36000
9341664;-0.37000
9344442;-0.37000
9347220;-0.35500
9349997;-0.34000
9352775;-0.35000
9355553;-0.36500
9358331;-0.37000
9361108;-0.37500
9363886;-0.36000
9366664;-0.35500
9369442;-0.35500
9372220;-0.36500
9374997;-0.37000
9377775;-0.36000
9380553;-0.37000
9383331;-0.35500
9386108;-0.37000
9388886;-0.37500
9391664;-0.37000
9394442;-0.38000
9397220;-0.37000
9399997;-0.36000
9402775;-0.35000
9405553;-0.35000
9408331;-0.36500
9411108;-0.36000
9413886;-0.36500
9416664;-0.34500
9419442;-0.34000
9422220;-0.36500
9424997;-0.36000
9427775;-0.36500
9430553;-0.35500
9433331;-0.34500
9436108;-0.34000
9438886;-0.34500
9441664;-0.36500
9444442;-0.37000
9447220;-0.35000
9449997;-0.34500
9452775;-0.34000
9455553;-0.35500
9458331;-0.36000
9461108;-0.37000
9463886;-0.35000
9466664;-0.34500
9469442;-0.34500
9472220;-0.35500
9474997;-0.35000
9477775;-0.36000
9480553;-0.35000
9483331;-0.34000
9486108;-0.34500
9488886;-0.34500
9491664;-0.35500
9494442;-0.36000
9497220;-0.35000
9499997;-0.34000
9502775;-0.34000
9505553;-0.35500
9508331;-0.36000
9511108;-0.37500
9513886;-0.35500
9516664;-0.35000
9519442;-0.35000
9522220;-0.34500
9524997;-0.36000
9527775;-0.36500
9530553;-0.35500
9533331;-0.34000
9536108;-0.34000
9538886;-0.33500
9541664;-0.34000
9544442;-0.32500
9547220;-0.31000
9549997;-0.29000
9552775;-0.29000
9555553;-0.27500
9558331;-0.27500
9561108;-0.27500
9563886;-0.26000
9566664;-0.25000
9569442;-0.24500
9572220;-0.25000
9574997;-0.25500
9577775;-0.25500
9580553;-0.24500
9583331;-0.24000
9586108;-0.24000
9588886;-0.23500
9591664;-0.25500
9594442;-0.24500
9597220;-0.24000
9599997;-0.23500
9602775;-0.23000
9605553;-0.23500
9608331;-0.24500
9611108;-0.25500
9613886;-0.25000
9616664;-0.24000
9619442;-0.24000
9622220;-0.24500
9624997;-0.25500
9627775;-0.26000
9630553;-0.25000
9633331;-0.24000
9636108;-0.24500
9638886;-0.25000
9641664;-0.25000
9644442;-0.25500
9647220;-0.24500
9649997;-0.24000
9652775;-0.23500
9655553;-0.25000
9658331;-0.25000
9661108;-0.26500
9663886;-0.24500
9666664;-0.24500
9669442;-0.23500
9672220;-0.24500
9674997;-0.26000
9677775;-0.26000
9680553;-0.26500
9683331;-0.25000
9686108;-0.26000
9688886;-0.26000
9691664;-0.26500
9694442;-0.28000
9697220;-0.27000
9699997;-0.26500
9702775;-0.26500
9705553;-0.28000
9708331;-0.29000
9711108;-0.29000
9713886;-0.28500
9716664;-0.27000
9719442;-0.27000
9722220;-0.27500
9724997;-0.28500
9727775;-0.29500
9730553;-0.28500
9733331;-0.27500
9736108;-0.28000
9738886;-0.28000
9741664;-0.28500
9744442;-0.29500
9747219;-0.28000
9749997;-0.28000
9752775;-0.28500
9755553;-0.29000
9758331;-0.29500
9761108;-0.31000
9763886;-0.30000
9766664;-0.29000
9769442;-0.28500
9772219;-0.28500
9774997;-0.30000
9777775;-0.29500
9780553;-0.29000
9783331;-0.28000
9786108;-0.27500
9788886;-0.28500
9791664;-0.29000
9794442;-0.28500
9797219;-0.27500
9799997;-0.27500
9802775;-0.25500
9805553;-0.26500
9808331;-0.26500
9811108;-0.25500
9813886;-0.23500
9816664;-0.23000
9819442;-0.22000
9822219;-0.23000
9824997;-0.22500
9827775;-0.23000
9830553;-0.22500
9833331;-0.20500
9836108;-0.20000
9838886;-0.19500
9841664;-0.18500
9844442;-0.19000
9847219;-0.16500
9849997;-0.15500
9852775;-0.15000
9855553;-0.16000
9858331;-0.17000
9861108;-0.18000
9863886;-0.18500
9866664;-0.17500
9869442;-0.16000
9872219;-0.16500
9874997;-0.18000
9877775;-0.17000
9880553;-0.16500
9883331;-0.15500
9886108;-0.14000
9888886;-0.13000
9891664;-0.15000
9894442;-0.17000
9897219;-0.19000
9899997;-0.20000
9902775;-0.23000
9905553;-0.23500
9908331;-0.26000
9911108;-0.26500
9913886;-0.28000
9916664;-0.28500
9919442;-0.28500
9922219;-0.31000
9924997;-0.32000
9927775;-0.31500
9930553;-0.30000
9933331;-0.29500
9936108;-0.29500
9938886;-0.30500
9941664;-0.31000
9944442;-0.32500
9947219;-0.31000
9949997;-0.31500
9952775;-0.31000
9955553;-0.31000
9958331;-0.32500
9961108;-0.32500
9963886;-0.32500
9966664;-0.31500
9969442;-0.31500
9972219;-0.32500
9974997;-0.32500
9977775;-0.33000
9980553;-0.32500
9983331;-0.32500
9986108;-0.35000
9988886;-0.39000
9991664;-0.42500
9994442;-0.44000
9997219;-0.44500
9999997;-0.45500
10002775;-0.50500
10005553;-0.52000
10008331;-0.47500
10011108;-0.36000
10013886;-0.22000
10016664;-0.05500
10019442;0.16000
10022219;0.42500
10024997;0.65000
10027775;0.77500
10030553;0.82000
10033331;0.70500
10036108;0.40000
10038886;0.00000
10041664;-0.32500
10044442;-0.50500
10047219;-0.51000
10049997;-0.43500
10052775;-0.38000
10055553;-0.37000
10058331;-0.37000
10061108;-0.38000
10063886;-0.37000
10066664;-0.36000
10069442;-0.35500
10072219;-0.34500
10074997;-0.36000
10077775;-0.37000
10080553;-0.36500
10083331;-0.36000
10086108;-0.36500
10088886;-0.36500
10091664;-0.38500
10094442;-0.37000
10097219;-0.37000
10099997;-0.36500
10102775;-0.36500
10105553;-0.36500
10108331;-0.37000
10111108;-0.39000
10113886;-0.37000
10116664;-0.36000
10119442;-0.35000
10122219;-0.36000
10124997;-0.36000
10127775;-0.37500
10130553;-0.37000
10133330;-0.34500
10136108;-0.36000
10138886;-0.35500
10141664;-0.37500
10144442;-0.37500
10147219;-0.35500
10149997;-0.34500
10152775;-0.36000
10155553;-0.36500
10158330;-0.36000
10161108;-0.37000
10163886;-0.35000
10166664;-0.35500
10169442;-0.36000
10172219;-0.35500
10174997;-0.36500
10177775;-0.37000
10180553;-0.36500
10183330;-0.36000
10186108;-0.36500
10188886;-0.36500
10191664;-0.37000
10194442;-0.37500
10197219;-0.37000
10199997;-0.36500
10202775;-0.35000
10205553;-0.37000
10208330;-0.37000
10211108;-0.37500
10213886;-0.37000
10216664;-0.35000
10219442;-0.34500
10222219;-0.35000
10224997;-0.36000
10227775;-0.37500
10230553;-0.34500
10233330;-0.34500
10236108;-0.34500
10238886;-0.36000
10241664;-0.36000
10244442;-0.36500
10247219;-0.36000
10249997;-0.35000
10252775;-0.36500
10255553;-0.36500
10258330;-0.38500
10261108;-0.37500
10263886;-0.37000
10266664;-0.37500
10269442;-0.36000
10272219;-0.36000
10274997;-0.36500
10277775;-0.37000
10280553;-0.37000
10283330;-0.35500
10286108;-0.36500
10288886;-0.36500
10291664;-0.37000
10294442;-0.37000
10297219;-0.35000
10299997;-0.35000
10302775;-0.34000
10305553;-0.35000
10308330;-0.34000
10311108;-0.34500
10313886;-0.33000
10316664;-0.31500
10319442;-0.31500
10322219;-0.31000
10324997;-0.30500
10327775;-0.31500
10330553;-0.30000
10333330;-0.28000
10336108;-0.27000
10338886;-0.27500
10341664;-0.27500
10344442;-0.27500
10347219;-0.27000
10349997;-0.26000
10352775;-0.26500
10355553;-0.26500
10358330;-0.26500
10361108;-0.26500
10363886;-0.26000
10366664;-0.24000
10369442;-0.25000
10372219;-0.25500
10374997;-0.26500
10377775;-0.27500
10380553;-0.26500
10383330;-0.26000
10386108;-0.25500
10388886;-0.27000
10391664;-0.26000
10394442;-0.28500
10397219;-0.28000
10399997;-0.27000
10402775;-0.26500
10405553;-0.27000
10408330;-0.28500
10411108;-0.29000
10413886;-0.27500
10416664;-0.27000
10419442;-0.28000
10422219;-0.27500
10424997;-0.29500
10427775;-0.30000
10430553;-0.29000
10433330;-0.27500
10436108;-0.28000
10438886;-0.28500
10441664;-0.30000
10444442;-0.30000
10447219;-0.29000
10449997;-0.28500
10452775;-0.29000
10455553;-0.29500
10458330;-0.31500
10461108;-0.32000
10463886;-0.30000
10466664;-0.29500
10469442;-0.30000
10472219;-0.30500
10474997;-0.31500
10477775;-0.32000
10480553;-0.30500
10483330;-0.30500
10486108;-0.30500
10488886;-0.29500
10491664;-0.31500
10494442;-0.31500
10497219;-0.30000
10499997;-0.30000
10502775;-0.30000
10505553;-0.30500
10508330;-0.30500
10511108;-0.32000
10513886;-0.31000
10516664;-0.30000
10519441;-0.30000
10522219;-0.30000
10524997;-0.32000
10527775;-0.33500
10530553;-0.32500
10533330;-0.31000
10536108;-0.32000
10538886;-0.31500
10541664;-0.32500
10544441;-0.33500
10547219;-0.32000
10549997;-0.31000
10552775;-0.30000
10555553;-0.31000
10558330;-0.33000
10561108;-0.32000
10563886;-0.30500
10566664;-0.30000
10569441;-0.30000
10572219;-0.30500
10574997;-0.30000
10577775;-0.31000
10580553;-0.28500
10583330;-0.26500
10586108;-0.26500
10588886;-0.27000
10591664;-0.26000
10594441;-0.25500
10597219;-0.25500
10599997;-0.24000
10602775;-0.24000
10605553;-0.23500
10608330;-0.23500
10611108;-0.22500
10613886;-0.22000
10616664;-0.21000
10619441;-0.19500
10622219;-0.20000
10624997;-0.21500
10627775;-0.21500
10630553;-0.23000
10633330;-0.21500
10636108;-0.20500
10638886;-0.20500
10641664;-0.20000
10644441;-0.21000
10647219;-0.19500
10649997;-0.18000
10652775;-0.16500
10655553;-0.17500
10658330;-0.22000
10661108;-0.24500
10663886;-0.26000
10666664;-0.25500
10669441;-0.28500
10672219;-0.29500
10674997;-0.30000
10677775;-0.31500
10680553;-0.32500
10683330;-0.33000
10686108;-0.33500
10688886;-0.34000
10691664;-0.35500
10694441;-0.36000
10697219;-0.34000
10699997;-0.33500
10702775;-0.34500
10705553;-0.35000
10708330;-0.36500
10711108;-0.35500
10713886;-0.36500
10716664;-0.35500
10719441;-0.35500
10722219;-0.37000
10724997;-0.37000
10727775;-0.37500
10730553;-0.35500
10733330;-0.34500
10736108;-0.35500
10738886;-0.35500
10741664;-0.37500
10744441;-0.37500
10747219;-0.37500
10749997;-0.37500
10752775;-0.39000
10755553;-0.44000
10758330;-0.47000
10761108;-0.49500
10763886;-0.51500
10766664;-0.55500
10769441;-0.56500
10772219;-0.52000
10774997;-0.42500
10777775;-0.29500
10780553;-0.13500
10783330;0.08500
10786108;0.36000
10788886;0.59500
10791664;0.73000
10794441;0.74000
10797219;0.59000
10799997;0.25500
10802775;-0.11500
10805553;-0.42500
10808330;-0.54500
10811108;-0.54000
10813886;-0.47500
10816664;-0.42500
10819441;-0.41500
10822219;-0.42500
10824997;-0.42500
10827775;-0.43000
10830553;-0.41000
10833330;-0.39000
10836108;-0.40000
10838886;-0.40500
10841664;-0.42000
10844441;-0.43000
10847219;-0.42500
10849997;-0.42000
10852775;-0.42000
10855553;-0.42500
10858330;-0.43000
10861108;-0.43500
10863886;-0.42500
10866664;-0.41500
10869441;-0.42000
10872219;-0.42000
10874997;-0.43000
10877775;-0.43000
10880553;-0.41500
10883330;-0.41000
10886108;-0.39500
10888886;-0.42000
10891664;-0.42000
10894441;-0.43000
10897219;-0.43500
10899997;-0.42000
10902775;-0.41000
10905553;-0.41500
10908330;-0.43000
10911108;-0.44500
10913886;-0.44000
10916664;-0.43500
10919441;-0.42500
10922219;-0.42000
10924997;-0.42000
10927775;-0.43000
10930552;-0.42000
10933330;-0.42000
10936108;-0.42000
10938886;-0.42500
10941664;-0.42500
10944441;-0.43000
10947219;-0.41500
10949997;-0.41000
10952775;-0.41500
10955552;-0.42000
10958330;-0.42500
10961108;-0.44000
10963886;-0.43000
10966664;-0.40500
10969441;-0.41000
10972219;-0.41000
10974997;-0.42500
10977775;-0.43500
10980552;-0.43500
10983330;-0.42500
10986108;-0.43000
10988886;-0.42500
10991664;-0.43000
10994441;-0.42000
10997219;-0.40500
10999997;-0.40000
11002775;-0.40500
11005552;-0.41500
11008330;-0.41000
11011108;-0.41500
11013886;-0.41000
11016664;-0.40000
11019441;-0.40000
11022219;-0.43000
11024997;-0.44000
11027775;-0.45000
11030552;-0.44000
11033330;-0.44000
11036108;-0.43500
11038886;-0.44000
11041664;-0.45000
11044441;-0.46000
11047219;-0.45000
11049997;-0.45500
11052775;-0.45500
11055552;-0.45500
11058330;-0.45500
11061108;-0.45500
11063886;-0.43000
11066664;-0.43000
11069441;-0.42000
11072219;-0.40500
11074997;-0.39500
11077775;-0.41500
11080552;-0.39000
11083330;-0.37000
11086108;-0.35500
11088886;-0.35500
11091664;-0.35000
11094441;-0.35500
11097219;-0.34500
11099997;-0.33500
11102775;-0.33000
11105552;-0.33500
11108330;-0.34500
11111108;-0.35500
11113886;-0.33500
11116664;-0.32500
11119441;-0.32000
11122219;-0.33000
11124997;-0.33500
11127775;-0.34000
11130552;-0.32500
11133330;-0.31500
11136108;-0.31000
11138886;-0.32500
11141664;-0.32500
11144441;-0.32500
11147219;-0.33000
11149997;-0.31500
11152775;-0.32500
11155552;-0.33000
11158330;-0.34500
11161108;-0.36000
11163886;-0.34500
11166664;-0.32500
11169441;-0.33000
11172219;-0.32500
11174997;-0.34500
11177775;-0.34500
11180552;-0.34500
11183330;-0.34500
11186108;-0.33500
11188886;-0.35000
11191664;-0.35000
11194441;-0.35000
11197219;-0.35000
11199997;-0.35500
11202775;-0.36000
11205552;-0.38000
11208330;-0.37500
11211108;-0.37500
11213886;-0.36500
11216664;-0.34500
11219441;-0.34000
11222219;-0.35000
11224997;-0.36000
11227775;-0.36500
11230552;-0.36000
11233330;-0.35000
11236108;-0.36000
11238886;-0.36500
11241664;-0.38500
11244441;-0.39000
11247219;-0.37500
11249997;-0.37500
11252775;-0.38000
11255552;-0.38000
11258330;-0.40000
11261108;-0.39500
11263886;-0.38500
11266664;-0.37000
11269441;-0.36500
11272219;-0.36500
11274997;-0.37500
11277775;-0.38000
11280552;-0.37000
11283330;-0.37000
11286108;-0.38000
11288886;-0.38000
11291664;-0.38500
11294441;-0.38000
11297219;-0.37000
11299997;-0.37000
11302775;-0.38500
11305552;-0.37500
11308330;-0.38500
11311108;-0.39000
11313886;-0.37000
11316663;-0.37000
11319441;-0.36500
11322219;-0.37500
11324997;-0.37500
11327775;-0.38500
11330552;-0.37500
11333330;-0.35000
11336108;-0.36000
11338886;-0.37000
11341663;-0.36000
11344441;-0.35500
11347219;-0.34500
11349997;-0.33500
11352775;-0.33000
11355552;-0.33000
11358330;-0.32500
11361108;-0.32500
11363886;-0.31500
11366663;-0.31000
11369441;-0.31000
11372219;-0.31000
11374997;-0.31500
11377775;-0.31000
11380552;-0.30000
11383330;-0.27500
11386108;-0.26000
11388886;-0.25500
11391663;-0.26500
11394441;-0.27000
11397219;-0.27500
11399997;-0.26500
11402775;-0.26500
11405552;-0.27000
11408330;-0.27000
11411108;-0.27000
11413886;-0.26000
11416663;-0.26000
11419441;-0.24000
11422219;-0.24000
11424997;-0.25500
11427775;-0.29500
11430552;-0.31500
11433330;-0.31500
11436108;-0.32500
11438886;-0.35500
11441663;-0.36500
11444441;-0.38500
11447219;-0.39500
11449997;-0.40000
11452775;-0.38500
11455552;-0.39500
11458330;-0.39000
11461108;-0.39500
11463886;-0.39500
11466663;-0.38500
11469441;-0.39000
11472219;-0.37500
11474997;-0.38000
11477775;-0.39000
11480552;-0.37500
11483330;-0.37500
11486108;-0.37500
11488886;-0.38500
11491663;-0.40500
11494441;-0.40000
11497219;-0.40000
11499997;-0.40000
11502775;-0.40000
11505552;-0.40500
11508330;-0.41000
11511108;-0.42000
11513886;-0.41000
11516663;-0.40500
11519441;-0.42000
11522219;-0.44000
11524997;-0.47500
11527775;-0.51500
11530552;-0.53000
11533330;-0.54000
11536108;-0.59000
11538886;-0.61500
11541663;-0.56500
11544441;-0.44000
11547219;-0.27000
11549997;-0.07500
11552775;0.18500
11555552;0.46500
11558330;0.70000
11561108;0.82000
11563886;0.76000
11566663;0.49500
11569441;0.07000
11572219;-0.30500
11574997;-0.53000
11577775;-0.60500
11580552;-0.58000
11583330;-0.52000
11586108;-0.48000
11588886;-0.47000
11591663;-0.47500
11594441;-0.47500
11597219;-0.45500
11599997;-0.45000
11602775;-0.44500
11605552;-0.45500
11608330;-0.46500
11611108;-0.48000
11613886;-0.45000
11616663;-0.45000
11619441;-0.45000
11622219;-0.46000
11624997;-0.46500
11627775;-0.47000
11630552;-0.45500
11633330;-0.44500
11636108;-0.46500
11638886;-0.46000
11641663;-0.46000
11644441;-0.47000
11647219;-0.45500
11649997;-0.45500
11652775;-0.44500
11655552;-0.45000
11658330;-0.45500
11661108;-0.47000
11663886;-0.44500
11666663;-0.44500
11669441;-0.44500
11672219;-0.45000
11674997;-0.46000
11677775;-0.46000
11680552;-0.44500
11683330;-0.44500
11686108;-0.44000
11688886;-0.44000
11691663;-0.45000
11694441;-0.45500
11697219;-0.43500
11699997;-0.44000
11702775;-0.45000
11705552;-0.44500
11708330;-0.46000
11711108;-0.47000
11713886;-0.45500
11716663;-0.44000
11719441;-0.43500
11722219;-0.43500
11724997;-0.45000
11727774;-0.45000
11730552;-0.44500
11733330;-0.44000
11736108;-0.43000
11738886;-0.43500
11741663;-0.43500
11744441;-0.44500
11747219;-0.43500
11749997;-0.43000
11752774;-0.44000
11755552;-0.43500
11758330;-0.44000
11761108;-0.44500
11763886;-0.44500
11766663;-0.44500
11769441;-0.44500
11772219;-0.44500
11774997;-0.46000
11777774;-0.46500
11780552;-0.46000
11783330;-0.46000
11786108;-0.46000
11788886;-0.46500
11791663;-0.47500
11794441;-0.48500
11797219;-0.47500
11799997;-0.48500
11802774;-0.47500
11805552;-0.48500
11808330;-0.49000
11811108;-0.50000
11813886;-0.48500
11816663;-0.46500
11819441;-0.47500
11822219;-0.46500
11824997;-0.47500
11827774;-0.46000
11830552;-0.43500
11833330;-0.42500
11836108;-0.40500
11838886;-0.40000
11841663;-0.40500
11844441;-0.39000
11847219;-0.37500
11849997;-0.36500
11852774;-0.34500
11855552;-0.34500
11858330;-0.34000
11861108;-0.34500
11863886;-0.34000
11866663;-0.31500
11869441;-0.31000
11872219;-0.31000
11874997;-0.32000
11877774;-0.31000
11880552;-0.30500
11883330;-0.29000
11886108;-0.29500
11888886;-0.28500
11891663;-0.30500
11894441;-0.31000
11897219;-0.30000
11899997;-0.29500
11902774;-0.29000
11905552;-0.29500
11908330;-0.29500
11911108;-0.30500
11913886;-0.29500
11916663;-0.28000
11919441;-0.29000
11922219;-0.30000
11924997;-0.31000
11927774;-0.31000
11930552;-0.30500
11933330;-0.29000
11936108;-0.29000
11938886;-0.29500
11941663;-0.30500
11944441;-0.30000
11947219;-0.30500
11949997;-0.28500
11952774;-0.30500
11955552;-0.30000
11958330;-0.30000
11961108;-0.31000
11963886;-0.29500
11966663;-0.30000
11969441;-0.29500
11972219;-0.29500
11974997;-0.31000
11977774;-0.31000
11980552;-0.30000
11983330;-0.29500
11986108;-0.31500
11988886;-0.30500
11991663;-0.31500
11994441;-0.32500
11997219;-0.31500
11999997;-0.31000
12002774;-0.31000
12005552;-0.31000
12008330;-0.33000
12011108;-0.33500
12013886;-0.32000
12016663;-0.31000
12019441;-0.31000
12022219;-0.32000
12024997;-0.33000
12027774;-0.34500
12030552;-0.33000
12033330;-0.33000
12036108;-0.31500
12038886;-0.31500
12041663;-0.34000
12044441;-0.34000
12047219;-0.33000
12049997;-0.32000
12052774;-0.31500
12055552;-0.31500
12058330;-0.32500
12061108;-0.32500
12063886;-0.31500
12066663;-0.31000
12069441;-0.31000
12072219;-0.30500
12074997;-0.30500
12077774;-0.31000
12080552;-0.30000
12083330;-0.27500
12086108;-0.27500
12088886;-0.27000
12091663;-0.27000
12094441;-0.28000
12097219;-0.25000
12099997;-0.24000
12102774;-0.23500
12105552;-0.24000
12108330;-0.24000
12111108;-0.23500
12113885;-0.22000
12116663;-0.20500
12119441;-0.18500
12122219;-0.18500
12124997;-0.19500
12127774;-0.20000
12130552;-0.19000
12133330;-0.18000
12136108;-0.18000
12138885;-0.19500
12141663;-0.21500
12144441;-0.22500
12147219;-0.23000
12149997;-0.24000
12152774;-0.23500
12155552;-0.23000
12158330;-0.23500
12161108;-0.23000
12163885;-0.23000
12166663;-0.21000
12169441;-0.21000
12172219;-0.22000
12174997;-0.26000
12177774;-0.29000
12180552;-0.30500
12183330;-0.29500
12186108;-0.29500
12188885;-0.29500
12191663;-0.30500
12194441;-0.31500
12197219;-0.30000
12199997;-0.29500
12202774;-0.30000
12205552;-0.31000
12208330;-0.32000
12211108;-0.33000
12213885;-0.33000
12216663;-0.31500
12219441;-0.31500
12222219;-0.31500
12224997;-0.32000
12227774;-0.33000
12230552;-0.32500
12233330;-0.31000
12236108;-0.30500
12238885;-0.31500
12241663;-0.33500
12244441;-0.32500
12247219;-0.32500
12249997;-0.30500
12252774;-0.31500
12255552;-0.32000
12258330;-0.33500
12261108;-0.35500
12263885;-0.38500
12266663;-0.41000
12269441;-0.43500
12272219;-0.46000
12274997;-0.51000
12277774;-0.54000
12280552;-0.56500
12283330;-0.53500
12286108;-0.48500
12288885;-0.41000
12291663;-0.32000
12294441;-0.21000
12297219;-0.07500
12299997;0.13500
12302774;0.40000
12305552;0.66500
12308330;0.84500
12311108;0.89000
12313885;0.79000
12316663;0.49500
12319441;0.06500
12322219;-0.31500
12324997;-0.50000
12327774;-0.51500
12330552;-0.44500
12333330;-0.38000
12336108;-0.35000
12338885;-0.36000
12341663;-0.38000
12344441;-0.38000
12347219;-0.37500
12349997;-0.37500
12352774;-0.35500
12355552;-0.36500
12358330;-0.37500
12361108;-0.37000
12363885;-0.36000
12366663;-0.35500
12369441;-0.34500
12372219;-0.35500
12374997;-0.36000
12377774;-0.36500
12380552;-0.36000
12383330;-0.34500
12386108;-0.35500
12388885;-0.36000
12391663;-0.35500
12394441;-0.36500
12397219;-0.35500
12399997;-0.35000
12402774;-0.34500
12405552;-0.35000
12408330;-0.36000
12411108;-0.36500
12413885;-0.35500
12416663;-0.35500
12419441;-0.35000
12422219;-0.35000
12424997;-0.36000
12427774;-0.37000
12430552;-0.35500
12433330;-0.34500
12436108;-0.34000
12438885;-0.35500
12441663;-0.34500
12444441;-0.36000
12447219;-0.34000
12449997;-0.33000
12452774;-0.34500
12455552;-0.33500
12458330;-0.33500
12461108;-0.34000
12463885;-0.34000
12466663;-0.32500
12469441;-0.33000
12472219;-0.32500
12474997;-0.33500
12477774;-0.33500
12480552;-0.33500
12483330;-0.32500
12486108;-0.33500
12488885;-0.33500
12491663;-0.34500
12494441;-0.35000
12497219;-0.33500
12499996;-0.33000
12502774;-0.33000
12505552;-0.34000
12508330;-0.34500
12511108;-0.35500
12513885;-0.34000
12516663;-0.33000
12519441;-0.32500
12522219;-0.34000
12524996;-0.34500
12527774;-0.34000
12530552;-0.35000
12533330;-0.32500
12536108;-0.32500
12538885;-0.33000
12541663;-0.34000
12544441;-0.35500
12547219;-0.35000
12549996;-0.33000
12552774;-0.34500
12555552;-0.34000
12558330;-0.36500
12561108;-0.37000
12563885;-0.34500
12566663;-0.33500
12569441;-0.34000
12572219;-0.34000
12574996;-0.35000
12577774;-0.34000
12580552;-0.33000
12583330;-0.31000
12586108;-0.31000
12588885;-0.30000
12591663;-0.30500
12594441;-0.31000
12597219;-0.30500
12599996;-0.29000
12602774;-0.26500
12605552;-0.26500
12608330;-0.28000
12611108;-0.26500
12613885;-0.27000
12616663;-0.25500
12619441;-0.25500
12622219;-0.25500
12624996;-0.26000
12627774;-0.26500
12630552;-0.25500
12633330;-0.24000
12636108;-0.23500
12638885;-0.24500
12641663;-0.25500
12644441;-0.25500
12647219;-0.24000
12649996;-0.23500
12652774;-0.24500
12655552;-0.24000
12658330;-0.24500
12661108;-0.25000
12663885;-0.24500
12666663;-0.24500
12669441;-0.23000
12672219;-0.23500
12674996;-0.25500
12677774;-0.25500
12680552;-0.25000
12683330;-0.23500
12686108;-0.23500
12688885;-0.24500
12691663;-0.25500
12694441;-0.27000
12697219;-0.26500
12699996;-0.25500
12702774;-0.25000
12705552;-0.26000
12708330;-0.27000
12711108;-0.28000
12713885;-0.27000
12716663;-0.25500
12719441;-0.26500
12722219;-0.26000
12724996;-0.27000
12727774;-0.27000
12730552;-0.27000
12733330;-0.26500
12736108;-0.27000
12738885;-0.27000
12741663;-0.29000
12744441;-0.29500
12747219;-0.29000
12749996;-0.28500
12752774;-0.28500
12755552;-0.29000
12758330;-0.29000
12761108;-0.28000
12763885;-0.28500
12766663;-0.28500
12769441;-0.27000
12772219;-0.29000
12774996;-0.28000
12777774;-0.29500
12780552;-0.28500
12783330;-0.28500
12786108;-0.28500
12788885;-0.29000
12791663;-0.30000
12794441;-0.29500
12797219;-0.30500
12799996;-0.30500
12802774;-0.30000
12805552;-0.29000
12808330;-0.29500
12811108;-0.30500
12813885;-0.29500
12816663;-0.29000
12819441;-0.28000
12822219;-0.28500
12824996;-0.29000
12827774;-0.29500
12830552;-0.28000
12833330;-0.28000
12836108;-0.28000
12838885;-0.27000
12841663;-0.28500
12844441;-0.27000
12847219;-0.25000
12849996;-0.24500
12852774;-0.24500
12855552;-0.23500
12858330;-0.22500
12861108;-0.22500
12863885;-0.21000
12866663;-0.20500
12869441;-0.20000
12872219;-0.20000
12874996;-0.19500
12877774;-0.19000
12880552;-0.17000
12883330;-0.16500
12886108;-0.15000
12888885;-0.16000
12891663;-0.17000
12894441;-0.18000
12897219;-0.18500
12899996;-0.17500
12902774;-0.16500
12905552;-0.16000
12908330;-0.16500
12911107;-0.18000
12913885;-0.17000
12916663;-0.14000
12919441;-0.13000
12922219;-0.13500
12924996;-0.17000
12927774;-0.21500
12930552;-0.20500
12933330;-0.21000
12936107;-0.21500
12938885;-0.23500
12941663;-0.24000
12944441;-0.26500
12947219;-0.26000
12949996;-0.26500
12952774;-0.27500
12955552;-0.28500
12958330;-0.30500
12961107;-0.31000
12963885;-0.30000
12966663;-0.29000
12969441;-0.30000
12972219;-0.31000
12974996;-0.32000
12977774;-0.31500
12980552;-0.31500
12983330;-0.31500
12986107;-0.30500
12988885;-0.31500
12991663;-0.32000
12994441;-0.32500
12997219;-0.32000
12999996;-0.32000
13002774;-0.31500
13005552;-0.31000
13008330;-0.32000
13011107;-0.32500
13013885;-0.31500
13016663;-0.30000
13019441;-0.31000
13022219;-0.32500
13024996;-0.35500
13027774;-0.39000
13030552;-0.42000
13033330;-0.42500
13036107;-0.46500
13038885;-0.50500
13041663;-0.51500
13044441;-0.45500
13047219;-0.31500
13049996;-0.18500
13052774;-0.02000
13055552;0.20000
13058330;0.47000
13061107;0.70500
13063885;0.85500
13066663;0.90000
13069441;0.81000
13072219;0.56000
13074996;0.26500
13077774;-0.03000
13080552;-0.25000
13083330;-0.40500
13086107;-0.49500
13088885;-0.54500
13091663;-0.54000
13094441;-0.51500
13097219;-0.44000
13099996;-0.38500
13102774;-0.37000
13105552;-0.37500
13108330;-0.38000
13111107;-0.38500
13113885;-0.37500
13116663;-0.36000
13119441;-0.37500
13122219;-0.37000
13124996;-0.38500
13127774;-0.38500
13130552;-0.37500
13133330;-0.37500
13136107;-0.36000
13138885;-0.36500
13141663;-0.36500
13144441;-0.38000
13147219;-0.37500
13149996;-0.36000
13152774;-0.36000
13155552;-0.38000
13158330;-0.37000
13161107;-0.37500
13163885;-0.37500
13166663;-0.35500
13169441;-0.35500
13172219;-0.35500
13174996;-0.36000
13177774;-0.37500
13180552;-0.35500
13183330;-0.35500
13186107;-0.35500
13188885;-0.35000
13191663;-0.35500
13194441;-0.37000
13197219;-0.36000
13199996;-0.35000
13202774;-0.35500
13205552;-0.35500
13208330;-0.36000
13211107;-0.38000
13213885;-0.36500
13216663;-0.35500
13219441;-0.34500
13222219;-0.36500
13224996;-0.37000
13227774;-0.36500
13230552;-0.36500
13233330;-0.35000
13236107;-0.34500
13238885;-0.35000
13241663;-0.35500
13244441;-0.36000
13247219;-0.34500
13249996;-0.34500
13252774;-0.35500
13255552;-0.36500
13258330;-0.36500
13261107;-0.36500
13263885;-0.36500
13266663;-0.36000
13269441;-0.35000
13272219;-0.35000
13274996;-0.35500
13277774;-0.36500
13280552;-0.34500
13283330;-0.34000
13286107;-0.34500
13288885;-0.34000
13291663;-0.35000
13294441;-0.36000
13297218;-0.35000
13299996;-0.35000
13302774;-0.34000
13305552;-0.36500
13308330;-0.36500
13311107;-0.36000
13313885;-0.35000
13316663;-0.35000
13319441;-0.34500
13322218;-0.35000
13324996;-0.35500
13327774;-0.36000
13330552;-0.35500
13333330;-0.34000
13336107;-0.33000
13338885;-0.35000
13341663;-0.35000
13344441;-0.35000
13347218;-0.35000
13349996;-0.34000
13352774;-0.34500
13355552;-0.34500
13358330;-0.35000
13361107;-0.34500
13363885;-0.33500
13366663;-0.32000
13369441;-0.31000
13372218;-0.31000
13374996;-0.30500
13377774;-0.30000
13380552;-0.28000
13383330;-0.28000
13386107;-0.26500
13388885;-0.27500
13391663;-0.27500
13394441;-0.27500
13397218;-0.26500
13399996;-0.26000
13402774;-0.25500
13405552;-0.26000
13408330;-0.26500
13411107;-0.27000
13413885;-0.27000
13416663;-0.25000
13419441;-0.26000
13422218;-0.25500
13424996;-0.26000
13427774;-0.27500
13430552;-0.26000
13433330;-0.26000
13436107;-0.26000
13438885;-0.25000
13441663;-0.25000
13444441;-0.24500
13447218;-0.24500
13449996;-0.23500
13452774;-0.25000
13455552;-0.25500
13458330;-0.25500
13461107;-0.26000
13463885;-0.26500
13466663;-0.26000
13469441;-0.25000
13472218;-0.26000
13474996;-0.27000
13477774;-0.28000
13480552;-0.27500
13483330;-0.27500
13486107;-0.27000
13488885;-0.28000
13491663;-0.29000
13494441;-0.30000
13497218;-0.28500
13499996;-0.28000
13502774;-0.27000
13505552;-0.26500
13508330;-0.27500
13511107;-0.29000
13513885;-0.28500
13516663;-0.28000
13519441;-0.26500
13522218;-0.28500
13524996;-0.30000
13527774;-0.31000
13530552;-0.30500
13533330;-0.28500
13536107;-0.29500
13538885;-0.29500
13541663;-0.30500
13544441;-0.32000
13547218;-0.30500
13549996;-0.29000
13552774;-0.28500
13555552;-0.29500
13558330;-0.31000
13561107;-0.31500
13563885;-0.30500
13566663;-0.29500
13569441;-0.28000
13572218;-0.29500
13574996;-0.30500
13577774;-0.30500
13580552;-0.29000
13583330;-0.28500
13586107;-0.28500
13588885;-0.29500
13591663;-0.30000
13594441;-0.31000
13597218;-0.29000
13599996;-0.28500
13602774;-0.28500
13605552;-0.28500
13608330;-0.30500
13611107;-0.32000
13613885;-0.31000
13616663;-0.29000
13619441;-0.28500
13622218;-0.28500
13624996;-0.27500
13627774;-0.27500
13630552;-0.26500
13633330;-0.26000
13636107;-0.24500
13638885;-0.24000
13641663;-0.23500
13644441;-0.22500
13647218;-0.23000
13649996;-0.21000
13652774;-0.20500
13655552;-0.20000
13658330;-0.20000
13661107;-0.19000
13663885;-0.18000
13666663;-0.16500
13669441;-0.16000
13672218;-0.17000
13674996;-0.17000
13677774;-0.20000
13680552;-0.19500
13683330;-0.19000
13686107;-0.17500
13688885;-0.18500
13691663;-0.19000
13694441;-0.19500
13697218;-0.16500
13699996;-0.14500
13702774;-0.12500
13705552;-0.14500
13708329;-0.21500
13711107;-0.24000
13713885;-0.23000
13716663;-0.22500
13719441;-0.23000
13722218;-0.25500
13724996;-0.27000
13727774;-0.29500
13730552;-0.29000
13733329;-0.29500
13736107;-0.30000
13738885;-0.30000
13741663;-0.30500
13744441;-0.31000
13747218;-0.30500
13749996;-0.29000
13752774;-0.30000
13755552;-0.31500
13758329;-0.32500
13761107;-0.34500
13763885;-0.33000
13766663;-0.32000
13769441;-0.31500
13772218;-0.32000
13774996;-0.32500
13777774;-0.32500
13780552;-0.31500
13783329;-0.31000
13786107;-0.32000
13788885;-0.32000
13791663;-0.33000
13794441;-0.32500
13797218;-0.32000
13799996;-0.31500
13802774;-0.33000
13805552;-0.33500
13808329;-0.36500
13811107;-0.40000
13813885;-0.41000
13816663;-0.40500
13819441;-0.41000
13822218;-0.43000
13824996;-0.48000
13827774;-0.53000
13830552;-0.51000
13833329;-0.44500
13836107;-0.34500
13838885;-0.22500
13841663;-0.07500
13844441;0.14000
13847218;0.42000
13849996;0.66000
13852774;0.82000
13855552;0.86500
13858329;0.76500
13861107;0.48500
13863885;0.12500
13866663;-0.18500
13869441;-0.38500
13872218;-0.47500
13874996;-0.48000
13877774;-0.44000
13880552;-0.39500
13883329;-0.38000
13886107;-0.38000
13888885;-0.37500
13891663;-0.38000
13894441;-0.37500
13897218;-0.37000
13899996;-0.36000
13902774;-0.36000
13905552;-0.35000
13908329;-0.37500
13911107;-0.38500
13913885;-0.36500
13916663;-0.35000
13919441;-0.35500
13922218;-0.35000
13924996;-0.37000
13927774;-0.37500
13930552;-0.37000
13933329;-0.35500
13936107;-0.35500
13938885;-0.35000
13941663;-0.35500
13944441;-0.36000
13947218;-0.35000
13949996;-0.33500
13952774;-0.34500
13955552;-0.34500
13958329;-0.36000
13961107;-0.37000
13963885;-0.36500
13966663;-0.36500
13969441;-0.36000
13972218;-0.36000
13974996;-0.37000
13977774;-0.37000
13980552;-0.36500
13983329;-0.36000
13986107;-0.35500
13988885;-0.36000
13991663;-0.36500
13994441;-0.37000
13997218;-0.36000
13999996;-0.35000
14002774;-0.34500
14005552;-0.36000
14008329;-0.35500
14011107;-0.36000
14013885;-0.35000
14016663;-0.34500
14019441;-0.34000
14022218;-0.35000
14024996;-0.36000
14027774;-0.37500
14030552;-0.35500
14033329;-0.35000
14036107;-0.34500
14038885;-0.35500
14041663;-0.36000
14044441;-0.35500
14047218;-0.34500
14049996;-0.33500
14052774;-0.34000
14055552;-0.35500
14058329;-0.35500
14061107;-0.36000
14063885;-0.34000
14066663;-0.34000
14069441;-0.34000
14072218;-0.34000
14074996;-0.35000
14077774;-0.35500
14080552;-0.35500
14083329;-0.34000
14086107;-0.34500
14088885;-0.34500
14091663;-0.35500
14094440;-0.35500
14097218;-0.34500
14099996;-0.33000
14102774;-0.33000
14105552;-0.34500
14108329;-0.35500
14111107;-0.37000
14113885;-0.36000
14116663;-0.36000
14119440;-0.37500
14122218;-0.36000
14124996;-0.37000
14127774;-0.38500
14130552;-0.38000
14133329;-0.38000
14136107;-0.37500
14138885;-0.36500
14141663;-0.38500
14144440;-0.39000
14147218;-0.37000
14149996;-0.35000
14152774;-0.33500
14155552;-0.33500
14158329;-0.33500
14161107;-0.32500
14163885;-0.31500
14166663;-0.29500
14169440;-0.29500
14172218;-0.30000
14174996;-0.28500
14177774;-0.28000
14180552;-0.26500
14183329;-0.25500
14186107;-0.25000
14188885;-0.25000
14191663;-0.25000
14194440;-0.25500
14197218;-0.24500
14199996;-0.23000
14202774;-0.23000
14205552;-0.23000
14208329;-0.24000
14211107;-0.24000
14213885;-0.23500
14216663;-0.23500
14219440;-0.22000
14222218;-0.22500
14224996;-0.23500
14227774;-0.24000
14230552;-0.23500
14233329;-0.22500
14236107;-0.22000
14238885;-0.22500
14241663;-0.23500
14244440;-0.23500
14247218;-0.23000
14249996;-0.23000
14252774;-0.22500
14255552;-0.23000
14258329;-0.24000
14261107;-0.24000
14263885;-0.23500
14266663;-0.24000
14269440;-0.23500
14272218;-0.23500
14274996;-0.24000
14277774;-0.24500
14280552;-0.24000
14283329;-0.22500
14286107;-0.22500
14288885;-0.23500
14291663;-0.24500
14294440;-0.26500
14297218;-0.26000
14299996;-0.25000
14302774;-0.25500
14305552;-0.23000
14308329;-0.23500
14311107;-0.25500
14313885;-0.26000
14316663;-0.25000
14319440;-0.25000
14322218;-0.26000
14324996;-0.27000
14327774;-0.27000
14330552;-0.26000
14333329;-0.24500
14336107;-0.26000
14338885;-0.26500
14341663;-0.27500
14344440;-0.28000
14347218;-0.26500
14349996;-0.25500
14352774;-0.25000
14355552;-0.25000
14358329;-0.25500
14361107;-0.26500
14363885;-0.25500
14366663;-0.25500
14369440;-0.25500
14372218;-0.25000
14374996;-0.26500
14377774;-0.27000
14380552;-0.26000
14383329;-0.25000
14386107;-0.26000
14388885;-0.27500
14391663;-0.28000
14394440;-0.29000
14397218;-0.27500
14399996;-0.26500
14402774;-0.25500
14405552;-0.25500
14408329;-0.26000
14411107;-0.26500
14413885;-0.25000
14416663;-0.24000
14419440;-0.23500
14422218;-0.24000
14424996;-0.25000
14427774;-0.25000
14430552;-0.23000
14433329;-0.21000
14436107;-0.19500
14438885;-0.20500
14441663;-0.20500
14444440;-0.21000
14447218;-0.20000
14449996;-0.18500
14452774;-0.18000
14455552;-0.17500
14458329;-0.18000
14461107;-0.16500
14463885;-0.15000
14466663;-0.14000
14469440;-0.13000
14472218;-0.13000
14474996;-0.14000
14477774;-0.14500
14480552;-0.14000
14483329;-0.15000
14486107;-0.15000
14488885;-0.17000
14491663;-0.16500
14494440;-0.16500
14497218;-0.14500
14499996;-0.13500
14502774;-0.12500
14505551;-0.12500
14508329;-0.10500
14511107;-0.11500
14513885;-0.13500
14516663;-0.16000
14519440;-0.18500
14522218;-0.19000
14524996;-0.20500
14527774;-0.22500
14530551;-0.25000
14533329;-0.24500
14536107;-0.24000
14538885;-0.25500
14541663;-0.27000
14544440;-0.27000
14547218;-0.26500
14549996;-0.27000
14552774;-0.26500
14555551;-0.28000
14558329;-0.28500
14561107;-0.29000
14563885;-0.28500
14566663;-0.28500
14569440;-0.28000
14572218;-0.28500
14574996;-0.28500
14577774;-0.29500
14580551;-0.28500
14583329;-0.27000
14586107;-0.27000
14588885;-0.27500
14591663;-0.29000
14594440;-0.28000
14597218;-0.27500
14599996;-0.27000
14602774;-0.27000
14605551;-0.28000
14608329;-0.31000
14611107;-0.35500
14613885;-0.37000
14616663;-0.37500
14619440;-0.40500
14622218;-0.47500
14624996;-0.49000
14627774;-0.42500
14630551;-0.29500
14633329;-0.14500
14636107;0.01500
14638885;0.24000
14641663;0.50000
14644440;0.73000
14647218;0.90000
14649996;0.94000
14652774;0.78500
14655551;0.49000
14658329;0.11500
14661107;-0.19500
14663885;-0.39000
14666663;-0.44500
14669440;-0.42500
14672218;-0.38500
14674996;-0.33500
14677774;-0.32500
14680551;-0.31000
14683329;-0.31500
14686107;-0.31000
14688885;-0.31000
14691663;-0.32000
14694440;-0.32500
14697218;-0.32000
14699996;-0.31000
14702774;-0.31000
14705551;-0.31000
14708329;-0.31500
14711107;-0.32500
14713885;-0.32500
14716663;-0.31000
14719440;-0.31000
14722218;-0.31500
14724996;-0.31500
14727774;-0.33500
14730551;-0.31500
14733329;-0.31500
14736107;-0.30500
14738885;-0.31000
14741663;-0.32000
14744440;-0.32500
14747218;-0.31500
14749996;-0.31000
14752774;-0.30500
14755551;-0.30500
14758329;-0.31500
14761107;-0.33000
14763885;-0.31500
14766663;-0.29500
14769440;-0.30500
14772218;-0.32000
14774996;-0.31500
14777774;-0.33000
14780551;-0.31500
14783329;-0.31000
14786107;-0.30500
14788885;-0.30000
14791663;-0.32000
14794440;-0.32000
14797218;-0.31500
14799996;-0.31000
14802774;-0.30000
14805551;-0.30000
14808329;-0.31000
14811107;-0.32000
14813885;-0.30000
14816663;-0.30500
14819440;-0.30000
14822218;-0.31000
14824996;-0.31500
14827774;-0.32500
14830551;-0.32000
14833329;-0.30000
14836107;-0.30500
14838885;-0.30000
14841663;-0.32000
14844440;-0.32000
14847218;-0.30500
14849996;-0.29000
14852774;-0.28500
14855551;-0.30000
14858329;-0.30500
14861107;-0.32000
14863885;-0.31500
14866663;-0.30500
14869440;-0.30000
14872218;-0.31500
14874996;-0.31500
14877774;-0.32000
14880551;-0.32000
14883329;-0.31500
14886107;-0.30500
14888885;-0.30500
14891662;-0.32500
14894440;-0.33500
14897218;-0.33000
14899996;-0.33000
14902774;-0.33000
14905551;-0.33500
14908329;-0.35000
14911107;-0.35500
14913885;-0.35000
14916662;-0.33500
14919440;-0.35000
14922218;-0.36000
14924996;-0.37500
14927774;-0.37500
14930551;-0.36500
14933329;-0.34000
14936107;-0.35000
14938885;-0.35000
14941662;-0.33500
14944440;-0.33000
14947218;-0.31000
14949996;-0.29000
14952774;-0.27000
14955551;-0.27000
14958329;-0.26500
14961107;-0.26000
14963885;-0.22500
14966662;-0.22000
14969440;-0.20500
14972218;-0.21000
14974996;-0.20500
14977774;-0.21000
14980551;-0.20500
14983329;-0.18500
14986107;-0.18500
14988885;-0.17500
14991662;-0.18500
14994440;-0.19000
14997218;-0.18000
14999996;-0.17500
15002774;-0.17500
15005551;-0.19000
15008329;-0.19500
15011107;-0.20000
15013885;-0.20000
15016662;-0.18500
15019440;-0.18000
15022218;-0.18000
15024996;-0.18500
15027774;-0.20000
15030551;-0.18000
15033329;-0.18000
