time_ms;ecg_value
0;-0.17500
2778;-0.18000
5556;-0.15000
8333;-0.14500
11111;-0.14000
13889;-0.16000
16667;-0.18500
19444;-0.19000
22222;-0.22000
25000;-0.22500
27778;-0.25500
30556;-0.25000
33333;-0.25500
36111;-0.26000
38889;-0.28000
41667;-0.29500
44444;-0.28000
47222;-0.27000
50000;-0.26500
52778;-0.27000
55556;-0.29000
58333;-0.29000
61111;-0.29500
63889;-0.28500
66667;-0.28000
69444;-0.28000
72222;-0.29000
75000;-0.30000
77778;-0.30500
80556;-0.28000
83333;-0.27500
86111;-0.28500
88889;-0.29000
91667;-0.30000
94444;-0.30000
97222;-0.32500
100000;-0.36500
102778;-0.39500
105556;-0.42000
108333;-0.45500
111111;-0.49500
113889;-0.49000
116667;-0.42500
119444;-0.28000
122222;-0.11500
125000;0.04500
127778;0.28000
130556;0.56000
133333;0.85000
136111;1.06000
138889;1.15000
141667;1.09500
144444;0.88000
147222;0.46000
150000;0.01000
152778;-0.30500
155556;-0.43500
158333;-0.44000
161111;-0.38000
163889;-0.35000
166667;-0.31500
169444;-0.29000
172222;-0.29500
175000;-0.30500
177778;-0.32000
180556;-0.32000
183333;-0.32000
186111;-0.32000
188889;-0.33000
191667;-0.35000
194444;-0.35000
197222;-0.34500
200000;-0.34000
202778;-0.34500
205555;-0.34500
208333;-0.35500
211111;-0.36000
213889;-0.34000
216667;-0.32500
219444;-0.34000
222222;-0.34500
225000;-0.34500
227778;-0.34000
230555;-0.32500
233333;-0.33000
236111;-0.33000
238889;-0.33500
241667;-0.35000
244444;-0.34000
247222;-0.33000
250000;-0.33000
252778;-0.33500
255555;-0.33500
258333;-0.34000
261111;-0.34500
263889;-0.34500
266667;-0.34000
269444;-0.33500
272222;-0.35000
275000;-0.36000
277778;-0.35500
280555;-0.35000
283333;-0.33500
286111;-0.34000
288889;-0.35000
291667;-0.35000
294444;-0.34000
297222;-0.33500
300000;-0.32500
302778;-0.33000
305555;-0.33500
308333;-0.35000
311111;-0.34000
313889;-0.33000
316667;-0.32500
319444;-0.32000
322222;-0.33000
325000;-0.34000
327778;-0.33000
330555;-0.34000
333333;-0.33000
336111;-0.32500
338889;-0.34500
341667;-0.34500
344444;-0.34000
347222;-0.34000
350000;-0.33000
352778;-0.34000
355555;-0.35000
358333;-0.37000
361111;-0.35500
363889;-0.34500
366667;-0.33500
369444;-0.34500
372222;-0.34000
375000;-0.35500
377778;-0.35500
380555;-0.34500
383333;-0.34000
386111;-0.34500
388889;-0.34500
391667;-0.35500
394444;-0.34500
397222;-0.34000
400000;-0.34000
402778;-0.34000
405555;-0.35000
408333;-0.35000
411111;-0.34500
413889;-0.33000
416667;-0.33000
419444;-0.31500
422222;-0.31000
425000;-0.30500
427778;-0.28500
430555;-0.27500
433333;-0.25500
436111;-0.24000
438889;-0.24500
441667;-0.24000
444444;-0.24500
447222;-0.23000
450000;-0.22000
452778;-0.23000
455555;-0.22000
458333;-0.22500
461111;-0.22000
463889;-0.20500
466667;-0.22000
469444;-0.21000
472222;-0.21500
475000;-0.23000
477778;-0.23000
480555;-0.21500
483333;-0.21500
486111;-0.21000
488889;-0.22000
491667;-0.23000
494444;-0.21500
497222;-0.20000
500000;-0.20000
502778;-0.20000
505555;-0.21500
508333;-0.22500
511111;-0.21500
513889;-0.22000
516667;-0.20000
519444;-0.21500
522222;-0.22500
525000;-0.22500
527778;-0.22000
530555;-0.21500
533333;-0.21000
536111;-0.21500
538889;-0.22500
541667;-0.23000
544444;-0.23000
547222;-0.23000
550000;-0.22500
552778;-0.24500
555555;-0.25000
558333;-0.26000
561111;-0.25000
563889;-0.25500
566667;-0.25000
569444;-0.24500
572222;-0.25500
575000;-0.27000
577778;-0.26500
580555;-0.25000
583333;-0.24500
586111;-0.25500
588889;-0.26000
591667;-0.26500
594444;-0.26500
597222;-0.25500
600000;-0.25000
602778;-0.25000
605555;-0.26500
608333;-0.28500
611111;-0.28000
613889;-0.26000
616666;-0.25500
619444;-0.25500
622222;-0.27000
625000;-0.28000
627778;-0.29500
630555;-0.28000
633333;-0.27000
636111;-0.27000
638889;-0.27500
641666;-0.28500
644444;-0.27500
647222;-0.27000
650000;-0.25500
652778;-0.26000
655555;-0.25500
658333;-0.26000
661111;-0.26000
663889;-0.26000
666666;-0.25500
669444;-0.24000
672222;-0.25000
675000;-0.26000
677778;-0.25000
680555;-0.25000
683333;-0.24500
686111;-0.25000
688889;-0.26500
691666;-0.27500
694444;-0.26500
697222;-0.26000
700000;-0.25500
702778;-0.25500
705555;-0.26500
708333;-0.27000
711111;-0.26000
713889;-0.23500
716666;-0.21500
719444;-0.20000
722222;-0.20500
725000;-0.20500
727778;-0.19500
730555;-0.18500
733333;-0.17500
736111;-0.16500
738889;-0.16500
741666;-0.16500
744444;-0.15500
747222;-0.13500
750000;-0.12000
752778;-0.13000
755555;-0.14000
758333;-0.15500
761111;-0.16500
763889;-0.17000
766666;-0.16500
769444;-0.16000
772222;-0.19000
775000;-0.20000
777778;-0.20500
780555;-0.19500
783333;-0.15000
786111;-0.12500
788889;-0.14000
791666;-0.17000
794444;-0.19000
797222;-0.21000
800000;-0.20000
802778;-0.21000
805555;-0.23000
808333;-0.25500
811111;-0.25000
813889;-0.24500
816666;-0.24500
819444;-0.24500
822222;-0.25500
825000;-0.26500
827778;-0.26000
830555;-0.26000
833333;-0.25000
836111;-0.26000
838889;-0.27000
841666;-0.28500
844444;-0.29000
847222;-0.27000
850000;-0.26000
852778;-0.27000
855555;-0.28000
858333;-0.30000
861111;-0.30000
863889;-0.29000
866666;-0.29000
869444;-0.28500
872222;-0.30500
875000;-0.30500
877778;-0.29500
880555;-0.28500
883333;-0.30000
886111;-0.32500
888889;-0.37500
891666;-0.41500
894444;-0.42500
897222;-0.46500
900000;-0.48500
902778;-0.45000
905555;-0.34000
908333;-0.17500
911111;0.01000
913889;0.23500
916666;0.51500
919444;0.79500
922222;0.98500
925000;1.03500
927778;0.95500
930555;0.67000
933333;0.24500
936111;-0.16500
938889;-0.37500
941666;-0.41500
944444;-0.36500
947222;-0.30500
950000;-0.30000
952778;-0.30500
955555;-0.31500
958333;-0.32500
961111;-0.32500
963889;-0.30500
966666;-0.30500
969444;-0.31000
972222;-0.32000
975000;-0.34500
977778;-0.33500
980555;-0.34000
983333;-0.32000
986111;-0.34000
988889;-0.34000
991666;-0.35500
994444;-0.36000
997222;-0.33500
1000000;-0.31500
1002777;-0.32500
1005555;-0.31500
1008333;-0.34000
1011111;-0.32500
1013889;-0.32000
1016666;-0.31000
1019444;-0.31500
1022222;-0.34000
1025000;-0.34000
1027777;-0.33500
1030555;-0.33500
1033333;-0.31500
1036111;-0.31500
1038889;-0.32000
1041666;-0.33000
1044444;-0.34500
1047222;-0.32500
1050000;-0.32000
1052777;-0.33500
1055555;-0.34000
1058333;-0.35000
1061111;-0.37000
1063889;-0.36000
1066666;-0.35500
1069444;-0.34500
1072222;-0.35500
1075000;-0.35500
1077777;-0.35500
1080555;-0.34500
1083333;-0.32500
1086111;-0.32500
1088889;-0.32000
1091666;-0.35000
1094444;-0.33500
1097222;-0.33500
1100000;-0.32000
1102777;-0.33000
1105555;-0.33000
1108333;-0.34500
1111111;-0.34500
1113889;-0.33500
1116666;-0.33000
1119444;-0.32500
1122222;-0.34000
1125000;-0.34500
1127777;-0.34000
1130555;-0.33500
1133333;-0.33500
1136111;-0.33500
1138889;-0.35500
1141666;-0.35000
1144444;-0.35000
1147222;-0.34500
1150000;-0.34000
1152777;-0.34500
1155555;-0.35000
1158333;-0.36000
1161111;-0.35500
1163889;-0.34500
1166666;-0.33500
1169444;-0.33500
1172222;-0.34500
1175000;-0.35000
1177777;-0.35500
1180555;-0.34500
1183333;-0.33500
1186111;-0.34000
1188889;-0.33500
1191666;-0.34500
1194444;-0.33500
1197222;-0.32500
1200000;-0.32000
1202777;-0.31000
1205555;-0.31000
1208333;-0.30500
1211111;-0.29500
1213889;-0.27500
1216666;-0.26500
1219444;-0.26000
1222222;-0.26000
1225000;-0.26000
1227777;-0.24500
1230555;-0.24000
1233333;-0.22000
1236111;-0.22000
1238889;-0.22000
1241666;-0.24000
1244444;-0.24000
1247222;-0.23500
1250000;-0.23000
1252777;-0.24000
1255555;-0.24000
1258333;-0.25000
1261111;-0.24000
1263889;-0.25000
1266666;-0.23000
1269444;-0.24000
1272222;-0.23000
1275000;-0.24500
1277777;-0.24500
1280555;-0.24000
1283333;-0.24500
1286111;-0.24500
1288889;-0.27000
1291666;-0.28500
1294444;-0.27500
1297222;-0.26500
1300000;-0.27000
1302777;-0.26000
1305555;-0.27000
1308333;-0.27500
1311111;-0.26000
1313889;-0.25500
1316666;-0.24500
1319444;-0.25000
1322222;-0.27500
1325000;-0.29000
1327777;-0.28000
1330555;-0.26000
1333333;-0.25000
1336111;-0.25500
1338889;-0.27500
1341666;-0.30500
1344444;-0.30000
1347222;-0.29500
1350000;-0.30000
1352777;-0.28500
1355555;-0.30000
1358333;-0.31000
1361111;-0.29500
1363889;-0.28500
1366666;-0.29000
1369444;-0.29000
1372222;-0.30000
1375000;-0.31000
1377777;-0.31000
1380555;-0.30500
1383333;-0.29000
1386111;-0.29500
1388888;-0.31000
1391666;-0.32000
1394444;-0.32000
1397222;-0.31000
1400000;-0.31500
1402777;-0.30500
1405555;-0.31000
1408333;-0.32500
1411111;-0.31500
1413888;-0.30500
1416666;-0.30500
1419444;-0.30000
1422222;-0.32500
1425000;-0.33000
1427777;-0.32000
1430555;-0.31000
1433333;-0.30500
1436111;-0.31000
1438888;-0.30500
1441666;-0.32000
1444444;-0.31500
1447222;-0.30000
1450000;-0.30000
1452777;-0.30000
1455555;-0.31000
1458333;-0.30500
1461111;-0.30000
1463888;-0.28500
1466666;-0.27000
1469444;-0.27000
1472222;-0.27500
1475000;-0.29000
1477777;-0.28500
1480555;-0.26500
1483333;-0.25000
1486111;-0.25000
1488888;-0.25500
1491666;-0.25000
1494444;-0.23500
1497222;-0.23500
1500000;-0.22500
1502777;-0.23000
1505555;-0.23000
1508333;-0.21500
1511111;-0.20500
1513888;-0.20500
1516666;-0.20000
1519444;-0.20000
1522222;-0.21500
1525000;-0.24000
1527777;-0.23500
1530555;-0.23000
1533333;-0.22000
1536111;-0.24000
1538888;-0.26000
1541666;-0.27000
1544444;-0.23500
1547222;-0.20500
1550000;-0.19000
1552777;-0.21000
1555555;-0.23500
1558333;-0.26000
1561111;-0.28000
1563888;-0.29500
1566666;-0.30000
1569444;-0.30500
1572222;-0.33500
1575000;-0.34500
1577777;-0.34500
1580555;-0.33000
1583333;-0.33000
1586111;-0.34000
1588888;-0.34500
1591666;-0.36500
1594444;-0.35000
1597222;-0.34500
1600000;-0.34500
1602777;-0.34500
1605555;-0.34500
1608333;-0.35500
1611111;-0.35000
1613888;-0.34000
1616666;-0.33500
1619444;-0.34500
1622222;-0.36000
1625000;-0.35500
1627777;-0.34500
1630555;-0.34500
1633333;-0.34500
1636111;-0.36000
1638888;-0.36500
1641666;-0.40500
1644444;-0.42500
1647222;-0.44000
1650000;-0.45000
1652777;-0.49000
1655555;-0.55500
1658333;-0.59500
1661111;-0.57500
1663888;-0.51500
1666666;-0.44500
1669444;-0.33500
1672222;-0.24000
1675000;-0.11000
1677777;0.08000
1680555;0.35000
1683333;0.61000
1686111;0.84000
1688888;0.92500
1691666;0.85000
1694444;0.58000
1697222;0.18000
1700000;-0.19000
1702777;-0.41000
1705555;-0.48500
1708333;-0.48500
1711111;-0.44000
1713888;-0.40000
1716666;-0.38000
1719444;-0.38500
1722222;-0.38500
1725000;-0.40500
1727777;-0.39500
1730555;-0.39500
1733333;-0.38500
1736111;-0.40500
1738888;-0.41000
1741666;-0.41500
1744444;-0.39500
1747222;-0.39000
1750000;-0.38500
1752777;-0.39500
1755555;-0.40500
1758333;-0.43000
1761111;-0.40000
1763888;-0.38500
1766666;-0.38500
1769444;-0.39000
1772222;-0.41000
1775000;-0.42000
1777777;-0.41500
1780555;-0.40500
1783333;-0.38500
1786111;-0.38500
1788888;-0.37500
1791666;-0.39500
1794444;-0.40000
1797222;-0.39500
1799999;-0.39500
1802777;-0.39000
1805555;-0.39500
1808333;-0.41500
1811111;-0.43000
1813888;-0.41000
1816666;-0.40000
1819444;-0.40000
1822222;-0.40000
1824999;-0.41500
1827777;-0.41500
1830555;-0.41000
1833333;-0.40000
1836111;-0.40000
1838888;-0.40000
1841666;-0.41000
1844444;-0.41000
1847222;-0.40000
1849999;-0.40000
1852777;-0.40000
1855555;-0.40500
1858333;-0.41500
1861111;-0.40000
1863888;-0.39000
1866666;-0.38500
1869444;-0.39000
1872222;-0.39000
1874999;-0.40500
1877777;-0.39000
1880555;-0.39500
1883333;-0.39500
1886111;-0.39000
1888888;-0.39500
1891666;-0.42000
1894444;-0.42000
1897222;-0.40500
1899999;-0.40500
1902777;-0.41000
1905555;-0.42000
1908333;-0.42500
1911111;-0.43000
1913888;-0.42000
1916666;-0.41500
1919444;-0.40500
1922222;-0.43000
1924999;-0.45000
1927777;-0.44500
1930555;-0.43000
1933333;-0.42000
1936111;-0.44000
1938888;-0.46000
1941666;-0.46500
1944444;-0.45000
1947222;-0.43500
1949999;-0.44500
1952777;-0.44000
1955555;-0.44500
1958333;-0.45000
1961111;-0.44000
1963888;-0.43000
1966666;-0.42000
1969444;-0.40500
1972222;-0.40500
1974999;-0.40500
1977777;-0.38500
1980555;-0.36500
1983333;-0.34500
1986111;-0.33500
1988888;-0.33500
1991666;-0.33500
1994444;-0.31500
1997222;-0.29000
1999999;-0.28500
2002777;-0.28500
2005555;-0.27500
2008333;-0.28500
2011111;-0.26500
2013888;-0.25500
2016666;-0.26500
2019444;-0.26000
2022222;-0.26000
2024999;-0.27000
2027777;-0.27000
2030555;-0.26500
2033333;-0.25000
2036111;-0.25000
2038888;-0.25000
2041666;-0.26000
2044444;-0.25500
2047222;-0.24500
2049999;-0.25000
2052777;-0.24500
2055555;-0.25500
2058333;-0.28500
2061111;-0.27000
2063888;-0.26000
2066666;-0.25500
2069444;-0.25500
2072222;-0.26500
2074999;-0.27500
2077777;-0.26500
2080555;-0.26000
2083333;-0.26500
2086111;-0.24500
2088888;-0.26000
2091666;-0.27000
2094444;-0.26500
2097222;-0.25000
2099999;-0.25000
2102777;-0.25000
2105555;-0.26500
2108333;-0.27500
2111111;-0.28000
2113888;-0.27000
2116666;-0.25000
2119444;-0.25000
2122222;-0.26000
2124999;-0.27000
2127777;-0.27000
2130555;-0.26000
2133333;-0.25000
2136111;-0.26000
2138888;-0.28500
2141666;-0.28500
2144444;-0.27500
2147222;-0.26000
2149999;-0.27000
2152777;-0.26500
2155555;-0.27000
2158333;-0.29000
2161111;-0.27500
2163888;-0.27500
2166666;-0.26000
2169444;-0.25500
2172222;-0.26000
2174999;-0.27500
2177777;-0.27500
2180555;-0.26000
2183333;-0.25000
2186110;-0.25000
2188888;-0.26500
2191666;-0.27500
2194444;-0.27000
2197222;-0.26500
2199999;-0.25500
2202777;-0.26500
2205555;-0.26500
2208333;-0.27500
2211110;-0.27500
2213888;-0.27000
2216666;-0.26000
2219444;-0.25500
2222222;-0.25500
2224999;-0.27500
2227777;-0.26500
2230555;-0.25000
2233333;-0.24000
2236110;-0.24500
2238888;-0.25000
2241666;-0.26000
2244444;-0.26000
2247222;-0.25000
2249999;-0.25000
2252777;-0.24000
2255555;-0.24500
2258333;-0.25000
2261110;-0.24500
2263888;-0.23000
2266666;-0.22000
2269444;-0.20500
2272222;-0.20000
2274999;-0.20000
2277777;-0.20000
2280555;-0.19500
2283333;-0.17000
2286110;-0.17000
2288888;-0.18500
2291666;-0.20000
2294444;-0.19000
2297222;-0.16500
2299999;-0.14500
2302777;-0.15500
2305555;-0.14500
2308333;-0.16000
2311110;-0.16000
2313888;-0.14000
2316666;-0.14000
2319444;-0.14500
2322222;-0.15500
2324999;-0.16500
2327777;-0.17000
2330555;-0.15500
2333333;-0.15500
2336110;-0.16500
2338888;-0.17000
2341666;-0.16500
2344444;-0.14500
2347222;-0.11000
2349999;-0.11500
2352777;-0.13000
2355555;-0.17500
2358333;-0.19500
2361110;-0.20500
2363888;-0.19500
2366666;-0.21500
2369444;-0.23500
2372222;-0.26500
2374999;-0.26000
2377777;-0.26000
2380555;-0.25500
2383333;-0.26500
2386110;-0.26000
2388888;-0.27500
2391666;-0.28500
2394444;-0.28000
2397222;-0.27000
2399999;-0.25500
2402777;-0.25500
2405555;-0.27500
2408333;-0.28000
2411110;-0.28000
2413888;-0.27500
2416666;-0.28000
2419444;-0.27000
2422222;-0.27500
2424999;-0.28000
2427777;-0.27500
2430555;-0.26500
2433333;-0.26000
2436110;-0.26000
2438888;-0.26500
2441666;-0.29000
2444444;-0.31500
2447222;-0.35000
2449999;-0.37500
2452777;-0.41500
2455555;-0.44500
2458333;-0.47000
2461110;-0.48000
2463888;-0.41000
2466666;-0.28000
2469444;-0.12500
2472222;0.03500
2474999;0.21500
2477777;0.44500
2480555;0.69500
2483333;0.89000
2486110;1.03000
2488888;1.10500
2491666;1.15000
2494444;1.13500
2497222;0.96000
2499999;0.62000
2502777;0.19000
2505555;-0.18000
2508333;-0.38500
2511110;-0.41500
2513888;-0.36500
2516666;-0.29500
2519444;-0.29000
2522222;-0.28000
2524999;-0.30000
2527777;-0.30500
2530555;-0.29500
2533333;-0.29500
2536110;-0.29500
2538888;-0.30500
2541666;-0.32000
2544444;-0.33000
2547222;-0.31500
2549999;-0.31500
2552777;-0.32000
2555555;-0.31500
2558333;-0.33000
2561110;-0.31500
2563888;-0.30000
2566666;-0.29500
2569444;-0.30000
2572222;-0.30000
2574999;-0.30500
2577777;-0.31000
2580555;-0.29000
2583333;-0.29000
2586110;-0.30000
2588888;-0.30000
2591666;-0.32000
2594444;-0.31500
2597221;-0.30500
2599999;-0.29500
2602777;-0.30000
2605555;-0.30500
2608333;-0.31000
2611110;-0.30500
2613888;-0.29000
2616666;-0.28500
2619444;-0.29000
2622221;-0.30000
2624999;-0.31500
2627777;-0.31500
2630555;-0.30500
2633333;-0.30000
2636110;-0.31000
2638888;-0.31000
2641666;-0.32500
2644444;-0.33000
2647221;-0.31000
2649999;-0.30000
2652777;-0.30500
2655555;-0.31500
2658333;-0.31500
2661110;-0.31000
2663888;-0.29500
2666666;-0.30500
2669444;-0.29500
2672221;-0.31000
2674999;-0.32000
2677777;-0.32000
2680555;-0.30000
2683333;-0.30000
2686110;-0.29500
2688888;-0.31000
2691666;-0.31000
2694444;-0.31000
2697221;-0.29500
2699999;-0.30500
2702777;-0.31500
2705555;-0.32000
2708333;-0.33500
2711110;-0.33500
2713888;-0.32000
2716666;-0.31000
2719444;-0.31500
2722221;-0.33500
2724999;-0.34000
2727777;-0.33000
2730555;-0.32000
2733333;-0.32000
2736110;-0.31500
2738888;-0.33500
2741666;-0.35000
2744444;-0.33500
2747221;-0.32000
2749999;-0.31000
2752777;-0.31500
2755555;-0.32000
2758333;-0.33500
2761110;-0.32500
2763888;-0.31500
2766666;-0.31000
2769444;-0.30500
2772221;-0.30500
2774999;-0.31500
2777777;-0.31000
2780555;-0.28500
2783333;-0.27500
2786110;-0.26500
2788888;-0.26500
2791666;-0.25500
2794444;-0.24000
2797221;-0.21500
2799999;-0.21000
2802777;-0.19500
2805555;-0.19000
2808333;-0.19000
2811110;-0.18500
2813888;-0.18000
2816666;-0.16500
2819444;-0.16500
2822221;-0.16500
2824999;-0.17500
2827777;-0.17000
2830555;-0.16000
2833333;-0.16000
2836110;-0.15500
2838888;-0.15500
2841666;-0.17000
2844444;-0.16500
2847221;-0.16000
2849999;-0.16500
2852777;-0.17000
2855555;-0.18000
2858333;-0.18000
2861110;-0.17500
2863888;-0.18000
2866666;-0.16000
2869444;-0.16000
2872221;-0.17000
2874999;-0.17500
2877777;-0.18000
2880555;-0.16000
2883333;-0.16000
2886110;-0.15500
2888888;-0.16500
2891666;-0.17500
2894444;-0.18000
2897221;-0.18000
2899999;-0.17000
2902777;-0.16500
2905555;-0.18500
2908333;-0.19000
2911110;-0.18500
2913888;-0.17500
2916666;-0.17000
2919444;-0.17500
2922221;-0.17000
2924999;-0.19000
2927777;-0.18500
2930555;-0.18500
2933333;-0.18500
2936110;-0.19000
2938888;-0.19000
2941666;-0.20000
2944444;-0.21000
2947221;-0.20500
2949999;-0.20000
2952777;-0.19500
2955555;-0.20500
2958333;-0.22500
2961110;-0.22000
2963888;-0.21500
2966666;-0.21000
2969444;-0.21000
2972221;-0.21500
2974999;-0.22500
2977777;-0.22500
2980555;-0.20500
2983332;-0.20000
2986110;-0.20500
2988888;-0.21000
2991666;-0.23000
2994444;-0.22500
2997221;-0.21500
2999999;-0.20500
3002777;-0.20500
3005555;-0.21500
3008332;-0.23000
3011110;-0.22500
3013888;-0.21500
3016666;-0.21000
3019444;-0.21500
3022221;-0.23000
3024999;-0.24000
3027777;-0.22500
3030555;-0.21500
3033332;-0.21500
3036110;-0.21000
3038888;-0.22000
3041666;-0.22500
3044444;-0.22000
3047221;-0.20500
3049999;-0.20500
3052777;-0.20000
3055555;-0.20000
3058332;-0.21000
3061110;-0.21500
3063888;-0.21000
3066666;-0.20000
3069444;-0.20000
3072221;-0.19000
3074999;-0.19500
3077777;-0.17000
3080555;-0.15000
3083332;-0.13000
3086110;-0.13000
3088888;-0.12500
3091666;-0.14500
3094444;-0.14000
3097221;-0.14000
3099999;-0.11500
3102777;-0.11000
3105555;-0.11000
3108332;-0.11500
3111110;-0.11000
3113888;-0.09500
3116666;-0.08500
3119444;-0.09500
3122221;-0.10000
3124999;-0.12000
3127777;-0.12500
3130555;-0.12500
3133332;-0.12000
3136110;-0.12000
3138888;-0.13000
3141666;-0.14000
3144444;-0.15500
3147221;-0.14500
3149999;-0.13500
3152777;-0.11500
3155555;-0.09500
3158332;-0.11000
3161110;-0.13000
3163888;-0.15000
3166666;-0.15000
3169444;-0.16500
3172221;-0.17500
3174999;-0.20000
3177777;-0.21500
3180555;-0.22000
3183332;-0.21000
3186110;-0.22500
3188888;-0.23000
3191666;-0.23500
3194444;-0.22500
3197221;-0.22000
3199999;-0.21500
3202777;-0.23000
3205555;-0.23500
3208332;-0.24500
3211110;-0.24500
3213888;-0.24000
3216666;-0.23000
3219444;-0.24000
3222221;-0.23500
3224999;-0.25500
3227777;-0.25000
3230555;-0.24500
3233332;-0.24000
3236110;-0.25500
3238888;-0.25500
3241666;-0.26500
3244444;-0.26500
3247221;-0.25500
3249999;-0.25500
3252777;-0.25500
3255555;-0.26500
3258332;-0.28500
3261110;-0.32000
3263888;-0.34500
3266666;-0.36000
3269444;-0.39000
3272221;-0.42500
3274999;-0.45500
3277777;-0.43500
3280555;-0.35000
3283332;-0.18500
3286110;-0.02500
3288888;0.11500
3291666;0.30000
3294444;0.57000
3297221;0.83500
3299999;1.02500
3302777;1.12000
3305555;1.10500
3308332;0.92500
3311110;0.57500
3313888;0.18000
3316666;-0.14500
3319444;-0.33500
3322221;-0.38000
3324999;-0.34500
3327777;-0.30000
3330555;-0.27000
3333332;-0.26500
3336110;-0.27500
3338888;-0.29000
3341666;-0.29000
3344444;-0.27500
3347221;-0.27000
3349999;-0.26500
3352777;-0.28000
3355555;-0.28500
3358332;-0.30000
3361110;-0.29000
3363888;-0.29000
3366666;-0.28000
3369444;-0.27500
3372221;-0.29500
3374999;-0.30000
3377777;-0.30000
3380555;-0.28500
3383332;-0.28000
3386110;-0.29000
3388888;-0.29500
3391666;-0.31000
3394443;-0.30000
3397221;-0.29000
3399999;-0.29000
3402777;-0.29000
3405555;-0.31000
3408332;-0.32500
3411110;-0.31000
3413888;-0.29500
3416666;-0.29000
3419443;-0.29500
3422221;-0.30000
3424999;-0.31000
3427777;-0.31000
3430555;-0.29500
3433332;-0.28000
3436110;-0.28000
3438888;-0.29000
3441666;-0.30500
3444443;-0.30000
3447221;-0.29500
3449999;-0.27500
3452777;-0.28500
3455555;-0.28500
3458332;-0.29500
3461110;-0.31000
3463888;-0.29500
3466666;-0.27000
3469443;-0.27500
3472221;-0.30000
3474999;-0.30500
3477777;-0.30500
3480555;-0.29500
3483332;-0.28500
3486110;-0.29500
3488888;-0.30500
3491666;-0.31000
3494443;-0.31000
3497221;-0.29500
3499999;-0.29000
3502777;-0.29000
3505555;-0.30000
3508332;-0.31000
3511110;-0.30500
3513888;-0.29000
3516666;-0.29000
3519443;-0.28500
3522221;-0.30000
3524999;-0.30000
3527777;-0.30500
3530555;-0.29500
3533332;-0.28000
3536110;-0.28500
3538888;-0.28500
3541666;-0.30000
3544443;-0.30000
3547221;-0.30000
3549999;-0.29000
3552777;-0.29500
3555555;-0.29500
3558332;-0.30000
3561110;-0.31500
3563888;-0.30500
3566666;-0.29500
3569443;-0.30000
3572221;-0.30500
3574999;-0.32000
3577777;-0.33000
3580555;-0.31000
3583332;-0.30500
3586110;-0.30500
3588888;-0.30500
3591666;-0.30500
3594443;-0.30500
3597221;-0.29500
3599999;-0.29000
3602777;-0.28500
3605555;-0.29500
3608332;-0.28500
3611110;-0.27500
3613888;-0.27000
3616666;-0.23500
3619443;-0.24500
3622221;-0.24500
3624999;-0.24000
3627777;-0.23500
3630555;-0.21500
3633332;-0.20000
3636110;-0.19500
3638888;-0.20500
3641666;-0.20500
3644443;-0.21000
3647221;-0.19000
3649999;-0.18000
3652777;-0.17500
3655555;-0.17500
3658332;-0.18500
3661110;-0.17500
3663888;-0.17000
3666666;-0.15500
3669443;-0.15500
3672221;-0.17000
3674999;-0.18500
3677777;-0.18000
3680555;-0.16500
3683332;-0.16500
3686110;-0.17000
3688888;-0.18000
3691666;-0.19000
3694443;-0.19500
3697221;-0.18500
3699999;-0.18000
3702777;-0.17500
3705555;-0.19500
3708332;-0.20000
3711110;-0.21000
3713888;-0.20500
3716666;-0.19000
3719443;-0.19500
3722221;-0.19000
3724999;-0.20000
3727777;-0.20000
3730555;-0.18500
3733332;-0.18500
3736110;-0.19000
3738888;-0.21000
3741666;-0.21000
3744443;-0.21000
3747221;-0.21000
3749999;-0.19500
3752777;-0.21000
3755555;-0.21500
3758332;-0.22000
3761110;-0.22500
3763888;-0.22500
3766666;-0.22500
3769443;-0.22000
3772221;-0.23000
3774999;-0.25000
3777777;-0.24000
3780554;-0.23500
3783332;-0.21500
3786110;-0.22000
3788888;-0.22500
3791666;-0.24000
3794443;-0.23500
3797221;-0.23500
3799999;-0.22000
3802777;-0.23500
3805554;-0.23500
3808332;-0.24000
3811110;-0.24000
3813888;-0.24000
3816666;-0.22000
3819443;-0.24000
3822221;-0.24500
3824999;-0.24500
3827777;-0.24000
3830554;-0.24000
3833332;-0.24500
3836110;-0.25000
3838888;-0.25500
3841666;-0.27000
3844443;-0.26000
3847221;-0.25500
3849999;-0.24500
3852777;-0.25500
3855554;-0.26000
3858332;-0.26500
3861110;-0.26000
3863888;-0.24000
3866666;-0.23500
3869443;-0.23500
3872221;-0.24500
3874999;-0.23500
3877777;-0.24000
3880554;-0.23500
3883332;-0.23000
3886110;-0.23500
3888888;-0.23500
3891666;-0.24500
3894443;-0.23500
3897221;-0.23000
3899999;-0.23000
3902777;-0.23500
3905554;-0.22500
3908332;-0.23000
3911110;-0.21500
3913888;-0.19500
3916666;-0.18000
3919443;-0.17500
3922221;-0.17500
3924999;-0.17500
3927777;-0.18000
3930554;-0.17500
3933332;-0.17500
3936110;-0.16000
3938888;-0.16000
3941666;-0.16000
3944443;-0.15500
3947221;-0.14000
3949999;-0.12000
3952777;-0.13500
3955554;-0.14500
3958332;-0.15000
3961110;-0.16500
3963888;-0.15000
3966666;-0.13000
3969443;-0.15000
3972221;-0.16000
3974999;-0.16500
3977777;-0.17500
3980554;-0.16000
3983332;-0.14000
3986110;-0.13000
3988888;-0.14000
3991666;-0.15500
3994443;-0.19000
3997221;-0.20000
3999999;-0.19500
4002777;-0.22000
4005554;-0.24000
4008332;-0.26500
4011110;-0.26500
4013888;-0.26000
4016666;-0.28000
4019443;-0.27500
4022221;-0.28000
4024999;-0.29500
4027777;-0.29000
4030554;-0.27500
4033332;-0.26500
4036110;-0.26500
4038888;-0.27500
4041666;-0.30000
4044443;-0.30000
4047221;-0.29000
4049999;-0.26500
4052777;-0.27500
4055554;-0.27500
4058332;-0.28500
4061110;-0.29000
4063888;-0.28500
4066666;-0.27000
4069443;-0.28000
4072221;-0.29500
4074999;-0.30500
4077777;-0.32000
4080554;-0.34000
4083332;-0.38000
4086110;-0.42000
4088888;-0.46000
4091666;-0.50000
4094443;-0.53000
4097221;-0.50000
4099999;-0.40000
4102777;-0.26000
4105554;-0.11000
4108332;0.05500
4111110;0.27500
4113888;0.53500
4116666;0.78000
4119443;0.93500
4122221;0.99500
4124999;0.91000
4127777;0.63500
4130554;0.26000
4133332;-0.08000
4136110;-0.32500
4138888;-0.43000
4141666;-0.43000
4144443;-0.38000
4147221;-0.34000
4149999;-0.31500
4152777;-0.32000
4155554;-0.34000
4158332;-0.35000
4161110;-0.33500
4163888;-0.31500
4166666;-0.31000
4169443;-0.31500
4172221;-0.32000
4174999;-0.33000
4177777;-0.34000
4180554;-0.33000
4183332;-0.34000
4186110;-0.34000
4188888;-0.34500
4191665;-0.35500
4194443;-0.35000
4197221;-0.35000
4199999;-0.34500
4202777;-0.35500
4205554;-0.35500
4208332;-0.35500
4211110;-0.36500
4213888;-0.35000
4216665;-0.32000
4219443;-0.33000
4222221;-0.33500
4224999;-0.34500
4227777;-0.35500
4230554;-0.35500
4233332;-0.36000
4236110;-0.34500
4238888;-0.33500
4241665;-0.34500
4244443;-0.35000
4247221;-0.34500
4249999;-0.32000
4252777;-0.33500
4255554;-0.34000
4258332;-0.35000
4261110;-0.35500
4263888;-0.35000
4266665;-0.34500
4269443;-0.36000
4272221;-0.36000
4274999;-0.37500
4277777;-0.36500
4280554;-0.36500
4283332;-0.35500
4286110;-0.35500
4288888;-0.36000
4291665;-0.36500
4294443;-0.35500
4297221;-0.35000
4299999;-0.34500
4302777;-0.36500
4305554;-0.37000
4308332;-0.38000
4311110;-0.37500
4313888;-0.35000
4316665;-0.34500
4319443;-0.35000
4322221;-0.37000
4324999;-0.36000
4327777;-0.36500
4330554;-0.35500
4333332;-0.35000
4336110;-0.35500
4338888;-0.36000
4341665;-0.36500
4344443;-0.37000
4347221;-0.38000
4349999;-0.36000
4352777;-0.37000
4355554;-0.36500
4358332;-0.38000
4361110;-0.39000
4363888;-0.38500
4366665;-0.38000
4369443;-0.37500
4372221;-0.39000
4374999;-0.39000
4377777;-0.38500
4380554;-0.38000
4383332;-0.36000
4386110;-0.36500
4388888;-0.39500
4391665;-0.40000
4394443;-0.40000
4397221;-0.37500
4399999;-0.37000
4402777;-0.37500
4405554;-0.38000
4408332;-0.39500
4411110;-0.38500
4413888;-0.37500
4416665;-0.36500
4419443;-0.37000
4422221;-0.37500
4424999;-0.36500
4427777;-0.37000
4430554;-0.35500
4433332;-0.33500
4436110;-0.33500
4438888;-0.35000
4441665;-0.35500
4444443;-0.35000
4447221;-0.32000
4449999;-0.29500
4452777;-0.30000
4455554;-0.29000
4458332;-0.29000
4461110;-0.29000
4463888;-0.28000
4466665;-0.27500
4469443;-0.27000
4472221;-0.27000
4474999;-0.28500
4477777;-0.28500
4480554;-0.26500
4483332;-0.25000
4486110;-0.25000
4488888;-0.26000
4491665;-0.27500
4494443;-0.28000
4497221;-0.28000
4499999;-0.27000
4502777;-0.28000
4505554;-0.28500
4508332;-0.29500
4511110;-0.30000
4513888;-0.31000
4516665;-0.29500
4519443;-0.30000
4522221;-0.31000
4524999;-0.30500
4527777;-0.32000
4530554;-0.30000
4533332;-0.29500
4536110;-0.29000
4538888;-0.29500
4541665;-0.31000
4544443;-0.31500
4547221;-0.30500
4549999;-0.30000
4552777;-0.30500
4555554;-0.32000
4558332;-0.32000
4561110;-0.33500
4563888;-0.33000
4566665;-0.32500
4569443;-0.33500
4572221;-0.34500
4574999;-0.37000
4577776;-0.36500
4580554;-0.35500
4583332;-0.34000
4586110;-0.34500
4588888;-0.36500
4591665;-0.37000
4594443;-0.37500
4597221;-0.36500
4599999;-0.36000
4602776;-0.35500
4605554;-0.36500
4608332;-0.37000
4611110;-0.37000
4613888;-0.36000
4616665;-0.36000
4619443;-0.36500
4622221;-0.36500
4624999;-0.37000
4627776;-0.37000
4630554;-0.36500
4633332;-0.35000
4636110;-0.35500
4638888;-0.36500
4641665;-0.37000
4644443;-0.39000
4647221;-0.38000
4649999;-0.38500
4652776;-0.38000
4655554;-0.39000
4658332;-0.40000
4661110;-0.40000
4663888;-0.38500
4666665;-0.38000
4669443;-0.38500
4672221;-0.39000
4674999;-0.38000
4677776;-0.38000
4680554;-0.36000
4683332;-0.35000
4686110;-0.36000
4688888;-0.36500
4691665;-0.36500
4694443;-0.37000
4697221;-0.37000
4699999;-0.36000
4702776;-0.35500
4705554;-0.35500
4708332;-0.36500
4711110;-0.37000
4713888;-0.35000
4716665;-0.33000
4719443;-0.32500
4722221;-0.32000
4724999;-0.33000
4727776;-0.32500
4730554;-0.32500
4733332;-0.32000
4736110;-0.32500
4738888;-0.33000
4741665;-0.32500
4744443;-0.31500
4747221;-0.28500
4749999;-0.28000
4752776;-0.27000
4755554;-0.27000
4758332;-0.28000
4761110;-0.29000
4763888;-0.29000
4766665;-0.28500
4769443;-0.28000
4772221;-0.31000
4774999;-0.31500
4777776;-0.30500
4780554;-0.30000
4783332;-0.29500
4786110;-0.31500
4788888;-0.31000
4791665;-0.31000
4794443;-0.29000
4797221;-0.28000
4799999;-0.30000
4802776;-0.32000
4805554;-0.34000
4808332;-0.36000
4811110;-0.38500
4813888;-0.39000
4816665;-0.38000
4819443;-0.38000
4822221;-0.40000
4824999;-0.41500
4827776;-0.42500
4830554;-0.40500
4833332;-0.40000
4836110;-0.42000
4838888;-0.41500
4841665;-0.42500
4844443;-0.42500
4847221;-0.41500
4849999;-0.41000
4852776;-0.42000
4855554;-0.43000
4858332;-0.43500
4861110;-0.43000
4863888;-0.43500
4866665;-0.42500
4869443;-0.42000
4872221;-0.43500
4874999;-0.44000
4877776;-0.45000
4880554;-0.43500
4883332;-0.43500
4886110;-0.45000
4888888;-0.45000
4891665;-0.48500
4894443;-0.51000
4897221;-0.53000
4899999;-0.53500
4902776;-0.57000
4905554;-0.62500
4908332;-0.66500
4911110;-0.65500
4913888;-0.58500
4916665;-0.48000
4919443;-0.38000
4922221;-0.27500
4924999;-0.15500
4927776;0.02500
4930554;0.26000
4933332;0.49500
4936110;0.69500
4938888;0.80500
4941665;0.79000
4944443;0.61500
4947221;0.29500
4949999;-0.06000
4952776;-0.35000
4955554;-0.52000
4958332;-0.56500
4961110;-0.56500
4963887;-0.52500
4966665;-0.47500
4969443;-0.46500
4972221;-0.47000
4974999;-0.47500
4977776;-0.47500
4980554;-0.47500
4983332;-0.46500
4986110;-0.46500
4988887;-0.46500
4991665;-0.47500
4994443;-0.49000
4997221;-0.48000
4999999;-0.47000
5002776;-0.48000
5005554;-0.48000
5008332;-0.48000
5011110;-0.46500
5013887;-0.46500
5016665;-0.45000
5019443;-0.47000
5022221;-0.48500
5024999;-0.49000
5027776;-0.49500
5030554;-0.50000
5033332;-0.49500
5036110;-0.49500
5038887;-0.49500
5041665;-0.52000
5044443;-0.52500
5047221;-0.49500
5049999;-0.49000
5052776;-0.49000
5055554;-0.50000
5058332;-0.50000
5061110;-0.50500
5063887;-0.49500
5066665;-0.47000
5069443;-0.47000
5072221;-0.48500
5074999;-0.48500
5077776;-0.51000
5080554;-0.50000
5083332;-0.49500
5086110;-0.50500
5088887;-0.51500
5091665;-0.50500
5094443;-0.50000
5097221;-0.50000
5099999;-0.49000
5102776;-0.49500
5105554;-0.51500
5108332;-0.52000
5111110;-0.52500
5113887;-0.49500
5116665;-0.49500
5119443;-0.49000
5122221;-0.50500
5124999;-0.52000
5127776;-0.51500
5130554;-0.49500
5133332;-0.49000
5136110;-0.49000
5138887;-0.50000
5141665;-0.50500
5144443;-0.50000
5147221;-0.50000
5149999;-0.49000
5152776;-0.50000
5155554;-0.50500
5158332;-0.50500
5161110;-0.52000
5163887;-0.51500
5166665;-0.50000
5169443;-0.52000
5172221;-0.52000
5174999;-0.53500
5177776;-0.54500
5180554;-0.54000
5183332;-0.53500
5186110;-0.54000
5188887;-0.56000
5191665;-0.57500
5194443;-0.57500
5197221;-0.57000
5199999;-0.55500
5202776;-0.56000
5205554;-0.56000
5208332;-0.56500
5211110;-0.55500
5213887;-0.54500
5216665;-0.53500
5219443;-0.54000
5222221;-0.55500
5224999;-0.55000
5227776;-0.55500
5230554;-0.55500
5233332;-0.53000
5236110;-0.52500
5238887;-0.51000
5241665;-0.50500
5244443;-0.49000
5247221;-0.46500
5249999;-0.44000
5252776;-0.44500
5255554;-0.43000
5258332;-0.43000
5261110;-0.42500
5263887;-0.41500
5266665;-0.40500
5269443;-0.39000
5272221;-0.39000
5274999;-0.39000
5277776;-0.40000
5280554;-0.38000
5283332;-0.37500
5286110;-0.37500
5288887;-0.37000
5291665;-0.37500
5294443;-0.37500
5297221;-0.37000
5299999;-0.36500
5302776;-0.35500
5305554;-0.36500
5308332;-0.37000
5311110;-0.38000
5313887;-0.36500
5316665;-0.35000
5319443;-0.35500
5322221;-0.36500
5324999;-0.37500
5327776;-0.38500
5330554;-0.37500
5333332;-0.36000
5336110;-0.37000
5338887;-0.36500
5341665;-0.38000
5344443;-0.39000
5347221;-0.37500
5349999;-0.36000
5352776;-0.37500
5355554;-0.38000
5358332;-0.37500
5361110;-0.37500
5363887;-0.37500
5366665;-0.37000
5369443;-0.36000
5372221;-0.36500
5374998;-0.38000
5377776;-0.38500
5380554;-0.38500
5383332;-0.36500
5386110;-0.37500
5388887;-0.38000
5391665;-0.39000
5394443;-0.39500
5397221;-0.40000
5399998;-0.39000
5402776;-0.38500
5405554;-0.39500
5408332;-0.40500
5411110;-0.39500
5413887;-0.38000
5416665;-0.38000
5419443;-0.37000
5422221;-0.38500
5424998;-0.39000
5427776;-0.39000
5430554;-0.38500
5433332;-0.37500
5436110;-0.38000
5438887;-0.38500
5441665;-0.39500
5444443;-0.40000
5447221;-0.38500
5449998;-0.38000
5452776;-0.39000
5455554;-0.39500
5458332;-0.41000
5461110;-0.39500
5463887;-0.38000
5466665;-0.37500
5469443;-0.37500
5472221;-0.38000
5474998;-0.39500
5477776;-0.38500
5480554;-0.37000
5483332;-0.36000
5486110;-0.36000
5488887;-0.36000
5491665;-0.38500
5494443;-0.37000
5497221;-0.36000
5499998;-0.36000
5502776;-0.36500
5505554;-0.36000
5508332;-0.37000
5511110;-0.37500
5513887;-0.36000
5516665;-0.35500
5519443;-0.36000
5522221;-0.36000
5524998;-0.36000
5527776;-0.36000
5530554;-0.36500
5533332;-0.34000
5536110;-0.34000
5538887;-0.35000
5541665;-0.33000
5544443;-0.33000
5547221;-0.31500
5549998;-0.29500
5552776;-0.30000
5555554;-0.31500
5558332;-0.30500
5561110;-0.30000
5563887;-0.29000
5566665;-0.27500
5569443;-0.26000
5572221;-0.25500
5574998;-0.26000
5577776;-0.27000
5580554;-0.26000
5583332;-0.26000
5586110;-0.26500
5588887;-0.27000
5591665;-0.28000
5594443;-0.29000
5597221;-0.27500
5599998;-0.26000
5602776;-0.27500
5605554;-0.28500
5608332;-0.29000
5611110;-0.28000
5613887;-0.24500
5616665;-0.26500
5619443;-0.29500
5622221;-0.31500
5624998;-0.33500
5627776;-0.34000
5630554;-0.35000
5633332;-0.35500
5636110;-0.35500
5638887;-0.36500
5641665;-0.38000
5644443;-0.37500
5647221;-0.38000
5649998;-0.36000
5652776;-0.37000
5655554;-0.38500
5658332;-0.39000
5661110;-0.38500
5663887;-0.39000
5666665;-0.39000
5669443;-0.39000
5672221;-0.40000
5674998;-0.40000
5677776;-0.40000
5680554;-0.40000
5683332;-0.39000
5686110;-0.38500
5688887;-0.39000
5691665;-0.39500
5694443;-0.40000
5697221;-0.39000
5699998;-0.38500
5702776;-0.40500
5705554;-0.45000
5708332;-0.50000
5711110;-0.52000
5713887;-0.54000
5716665;-0.55500
5719443;-0.56000
5722221;-0.50000
5724998;-0.37000
5727776;-0.20500
5730554;-0.01500
5733332;0.20500
5736110;0.47000
5738887;0.72500
5741665;0.92000
5744443;1.03500
5747221;1.04000
5749998;0.88500
5752776;0.57500
5755554;0.24000
5758332;-0.05500
5761109;-0.26500
5763887;-0.39000
5766665;-0.48500
5769443;-0.54000
5772221;-0.56500
5774998;-0.55500
5777776;-0.53500
5780554;-0.49500
5783332;-0.44500
5786109;-0.42500
5788887;-0.41500
5791665;-0.41500
5794443;-0.44000
5797221;-0.41500
5799998;-0.40500
5802776;-0.41000
5805554;-0.42500
5808332;-0.43000
5811109;-0.44000
5813887;-0.42500
5816665;-0.42500
5819443;-0.41000
5822221;-0.43000
5824998;-0.43500
5827776;-0.43000
5830554;-0.42000
5833332;-0.42000
5836109;-0.42000
5838887;-0.42000
5841665;-0.43000
5844443;-0.42000
5847221;-0.41500
5849998;-0.40500
5852776;-0.40500
5855554;-0.40500
5858332;-0.41000
5861109;-0.41500
5863887;-0.41000
5866665;-0.40500
5869443;-0.40500
5872221;-0.41000
5874998;-0.42500
5877776;-0.42000
5880554;-0.42000
5883332;-0.41000
5886109;-0.41500
5888887;-0.43000
5891665;-0.42000
5894443;-0.41500
5897221;-0.41000
5899998;-0.40000
5902776;-0.41500
5905554;-0.42000
5908332;-0.42500
5911109;-0.42000
5913887;-0.40000
5916665;-0.40000
5919443;-0.40000
5922221;-0.41000
5924998;-0.41500
5927776;-0.41500
5930554;-0.42500
5933332;-0.41000
5936109;-0.41500
5938887;-0.42000
5941665;-0.42500
5944443;-0.42000
5947221;-0.41000
5949998;-0.38500
5952776;-0.39500
5955554;-0.41000
5958332;-0.41500
5961109;-0.41500
5963887;-0.41500
5966665;-0.40500
5969443;-0.40500
5972221;-0.41500
5974998;-0.41500
5977776;-0.40500
5980554;-0.42000
5983332;-0.41000
5986109;-0.41000
5988887;-0.41500
5991665;-0.44000
5994443;-0.42500
5997221;-0.42500
5999998;-0.41500
6002776;-0.42000
6005554;-0.42000
6008332;-0.43500
6011109;-0.43500
6013887;-0.42000
6016665;-0.40500
6019443;-0.42000
6022221;-0.42500
6024998;-0.42000
6027776;-0.43500
6030554;-0.42000
6033332;-0.40500
6036109;-0.39500
6038887;-0.40000
6041665;-0.40000
6044443;-0.39000
6047221;-0.37000
6049998;-0.36500
6052776;-0.34500
6055554;-0.33500
6058332;-0.33000
6061109;-0.34000
6063887;-0.31500
6066665;-0.30500
6069443;-0.29500
6072221;-0.29500
6074998;-0.29000
6077776;-0.29000
6080554;-0.27000
6083332;-0.25500
6086109;-0.26000
6088887;-0.27500
6091665;-0.28000
6094443;-0.28500
6097221;-0.27000
6099998;-0.27000
6102776;-0.27500
6105554;-0.27000
6108332;-0.27000
6111109;-0.27000
6113887;-0.26500
6116665;-0.26000
6119443;-0.26000
6122221;-0.25500
6124998;-0.27500
6127776;-0.27000
6130554;-0.26500
6133332;-0.25000
6136109;-0.26000
6138887;-0.27000
6141665;-0.27000
6144443;-0.27000
6147221;-0.27000
6149998;-0.26500
6152776;-0.26000
6155554;-0.27000
6158332;-0.28500
6161109;-0.29000
6163887;-0.27500
6166665;-0.27500
6169443;-0.28500
6172220;-0.28000
6174998;-0.29500
6177776;-0.31000
6180554;-0.29500
6183332;-0.29500
6186109;-0.29000
6188887;-0.30500
6191665;-0.30500
6194443;-0.31000
6197220;-0.30500
6199998;-0.29000
6202776;-0.29000
6205554;-0.29500
6208332;-0.30500
6211109;-0.31000
6213887;-0.30500
6216665;-0.30000
6219443;-0.30500
6222220;-0.31000
6224998;-0.31000
6227776;-0.32000
6230554;-0.31000
6233332;-0.31000
6236109;-0.31000
6238887;-0.30500
6241665;-0.32000
6244443;-0.32500
6247220;-0.32000
6249998;-0.33000
6252776;-0.32000
6255554;-0.32500
6258332;-0.33000
6261109;-0.34500
6263887;-0.33500
6266665;-0.33000
6269443;-0.32000
6272220;-0.32500
6274998;-0.33500
6277776;-0.32500
6280554;-0.32000
6283332;-0.31000
6286109;-0.30500
6288887;-0.30500
6291665;-0.32000
6294443;-0.32500
6297220;-0.31000
6299998;-0.30000
6302776;-0.30500
6305554;-0.32000
6308332;-0.32500
6311109;-0.32000
6313887;-0.32000
6316665;-0.32000
6319443;-0.31000
6322220;-0.32000
6324998;-0.32000
6327776;-0.33000
6330554;-0.31000
6333332;-0.29500
6336109;-0.28000
6338887;-0.27000
6341665;-0.26000
6344443;-0.25500
6347220;-0.24500
6349998;-0.23000
6352776;-0.23000
6355554;-0.23000
6358332;-0.23000
6361109;-0.23500
6363887;-0.21000
6366665;-0.21000
6369443;-0.19000
6372220;-0.19500
6374998;-0.20000
6377776;-0.21000
6380554;-0.21500
6383332;-0.20000
6386109;-0.19500
6388887;-0.21500
6391665;-0.22500
6394443;-0.23000
6397220;-0.21500
6399998;-0.22000
6402776;-0.22000
6405554;-0.23000
6408332;-0.22000
6411109;-0.20000
6413887;-0.18000
6416665;-0.18500
6419443;-0.21000
6422220;-0.24500
6424998;-0.26500
6427776;-0.28500
6430554;-0.27500
6433332;-0.27500
6436109;-0.29500
6438887;-0.31500
6441665;-0.32500
6444443;-0.33000
6447220;-0.32000
6449998;-0.31000
6452776;-0.31500
6455554;-0.32500
6458332;-0.33000
6461109;-0.33000
6463887;-0.33000
6466665;-0.33000
6469443;-0.33000
6472220;-0.34000
6474998;-0.34500
6477776;-0.34500
6480554;-0.33500
6483332;-0.32500
6486109;-0.32500
6488887;-0.32500
6491665;-0.32500
6494443;-0.33000
6497220;-0.32500
6499998;-0.32500
6502776;-0.31500
6505554;-0.34000
6508332;-0.35500
6511109;-0.37500
6513887;-0.40000
6516665;-0.43500
6519443;-0.45500
6522220;-0.49000
6524998;-0.53000
6527776;-0.49500
6530554;-0.38000
6533332;-0.21000
6536109;-0.01500
6538887;0.17500
6541665;0.42000
6544443;0.71000
6547220;0.94500
6549998;1.10000
6552776;1.11000
6555554;0.96000
6558331;0.60000
6561109;0.13000
6563887;-0.24500
6566665;-0.41500
6569443;-0.43500
6572220;-0.39500
6574998;-0.35000
6577776;-0.33000
6580554;-0.33000
6583331;-0.34000
6586109;-0.33500
6588887;-0.33000
6591665;-0.36000
6594443;-0.36500
6597220;-0.35500
6599998;-0.35500
6602776;-0.35000
6605554;-0.35500
6608331;-0.37500
6611109;-0.37500
6613887;-0.37000
6616665;-0.35500
6619443;-0.35000
6622220;-0.36000
6624998;-0.37500
6627776;-0.37500
6630554;-0.35500
6633331;-0.34500
6636109;-0.35500
6638887;-0.36000
6641665;-0.36000
6644443;-0.36500
6647220;-0.35500
6649998;-0.36000
6652776;-0.34500
6655554;-0.36000
6658331;-0.36000
6661109;-0.37000
6663887;-0.35500
6666665;-0.35000
6669443;-0.35000
6672220;-0.35000
6674998;-0.37000
6677776;-0.37000
6680554;-0.35500
6683331;-0.36000
6686109;-0.35000
6688887;-0.36000
6691665;-0.36500
6694443;-0.38000
6697220;-0.36000
6699998;-0.35500
6702776;-0.35000
6705554;-0.35500
6708331;-0.36500
6711109;-0.37000
6713887;-0.35500
6716665;-0.35000
6719443;-0.35000
6722220;-0.35000
6724998;-0.36000
6727776;-0.37000
6730554;-0.35500
6733331;-0.35000
6736109;-0.35000
6738887;-0.35500
6741665;-0.36000
6744443;-0.36500
6747220;-0.36000
6749998;-0.35000
6752776;-0.35000
6755554;-0.36000
6758331;-0.36500
6761109;-0.37500
6763887;-0.36000
6766665;-0.36000
6769443;-0.37000
6772220;-0.37500
6774998;-0.37500
6777776;-0.38500
6780554;-0.38000
6783331;-0.36500
6786109;-0.37500
6788887;-0.38000
6791665;-0.38000
6794443;-0.39500
6797220;-0.37000
6799998;-0.36500
6802776;-0.37000
6805554;-0.36500
6808331;-0.38500
6811109;-0.37000
6813887;-0.36000
6816665;-0.35000
6819443;-0.34000
6822220;-0.35000
6824998;-0.35000
6827776;-0.34500
6830554;-0.32000
6833331;-0.31500
6836109;-0.31500
6838887;-0.31000
6841665;-0.30000
6844443;-0.30000
6847220;-0.28500
6849998;-0.27000
6852776;-0.26500
6855554;-0.26500
6858331;-0.27000
6861109;-0.27500
6863887;-0.25500
6866665;-0.23500
6869443;-0.23500
6872220;-0.24500
6874998;-0.24500
6877776;-0.24500
6880554;-0.23500
6883331;-0.22500
6886109;-0.21500
6888887;-0.22500
6891665;-0.24000
6894443;-0.23500
6897220;-0.23000
6899998;-0.23000
6902776;-0.22500
6905554;-0.23500
6908331;-0.24000
6911109;-0.25500
6913887;-0.24000
6916665;-0.22500
6919443;-0.22500
6922220;-0.21500
6924998;-0.24500
6927776;-0.24500
6930554;-0.23000
6933331;-0.23500
6936109;-0.24000
6938887;-0.25500
6941665;-0.26500
6944442;-0.26500
6947220;-0.26500
6949998;-0.26000
6952776;-0.26000
6955554;-0.26500
6958331;-0.27000
6961109;-0.28000
6963887;-0.26500
6966665;-0.25500
6969442;-0.25500
6972220;-0.26000
6974998;-0.26500
6977776;-0.27500
6980554;-0.27500
6983331;-0.26500
6986109;-0.25500
6988887;-0.28000
6991665;-0.28500
6994442;-0.29000
6997220;-0.27500
6999998;-0.28500
7002776;-0.27500
7005554;-0.29500
7008331;-0.29500
7011109;-0.30000
7013887;-0.29500
7016665;-0.29500
7019442;-0.29500
7022220;-0.31000
7024998;-0.31500
7027776;-0.31000
7030554;-0.31000
7033331;-0.29500
7036109;-0.30500
7038887;-0.29500
7041665;-0.29500
7044442;-0.31000
7047220;-0.30000
7049998;-0.29000
7052776;-0.29000
7055554;-0.29500
7058331;-0.30000
7061109;-0.31000
7063887;-0.29500
7066665;-0.29500
7069442;-0.29000
7072220;-0.30000
7074998;-0.29500
7077776;-0.31000
7080554;-0.30000
7083331;-0.29500
7086109;-0.30000
7088887;-0.28500
7091665;-0.31000
7094442;-0.32000
7097220;-0.29500
7099998;-0.29000
7102776;-0.28000
7105554;-0.29000
7108331;-0.29000
7111109;-0.29500
7113887;-0.28500
7116665;-0.26000
7119442;-0.26500
7122220;-0.26500
7124998;-0.26000
7127776;-0.24000
7130554;-0.23500
7133331;-0.21000
7136109;-0.20500
7138887;-0.21000
7141665;-0.22000
7144442;-0.22000
7147220;-0.21000
7149998;-0.20000
7152776;-0.19000
7155554;-0.19000
7158331;-0.20000
7161109;-0.20000
7163887;-0.19000
7166665;-0.18000
7169442;-0.18000
7172220;-0.19000
7174998;-0.19500
7177776;-0.21000
7180554;-0.20500
7183331;-0.19500
7186109;-0.18000
7188887;-0.18000
7191665;-0.19000
7194442;-0.20000
7197220;-0.18000
7199998;-0.15500
7202776;-0.15000
7205554;-0.17000
7208331;-0.22500
7211109;-0.24500
7213887;-0.24500
7216665;-0.24500
7219442;-0.27000
7222220;-0.28500
7224998;-0.30000
7227776;-0.31000
7230554;-0.31000
7233331;-0.30000
7236109;-0.29500
7238887;-0.30500
7241665;-0.31000
7244442;-0.33000
7247220;-0.31000
7249998;-0.31500
7252776;-0.32000
7255554;-0.32500
7258331;-0.33000
7261109;-0.33000
7263887;-0.31000
7266665;-0.30500
7269442;-0.32000
7272220;-0.32500
7274998;-0.33000
7277776;-0.33000
7280554;-0.33500
7283331;-0.35000
7286109;-0.38500
7288887;-0.44000
7291665;-0.46500
7294442;-0.49000
7297220;-0.52500
7299998;-0.55500
7302776;-0.52000
7305554;-0.43000
7308331;-0.33000
7311109;-0.24000
7313887;-0.18000
7316665;-0.10500
7319442;-0.02500
7322220;0.06000
7324998;0.18000
7327776;0.33000
7330554;0.56000
7333331;0.76500
7336109;0.89500
7338887;0.95000
7341665;0.89000
7344442;0.60000
7347220;0.17500
7349998;-0.21000
7352776;-0.41000
7355553;-0.46000
7358331;-0.41500
7361109;-0.36500
7363887;-0.34500
7366665;-0.35000
7369442;-0.35500
7372220;-0.34500
7374998;-0.36000
7377776;-0.36000
7380553;-0.36500
7383331;-0.36500
7386109;-0.38500
7388887;-0.38500
7391665;-0.39500
7394442;-0.40500
7397220;-0.39500
7399998;-0.38000
7402776;-0.37000
7405553;-0.38000
7408331;-0.38500
7411109;-0.38500
7413887;-0.38000
7416665;-0.37500
7419442;-0.37000
7422220;-0.38000
7424998;-0.38000
7427776;-0.38500
7430553;-0.37000
7433331;-0.36000
7436109;-0.36500
7438887;-0.38000
7441665;-0.39000
7444442;-0.39500
7447220;-0.38000
7449998;-0.37500
7452776;-0.37500
7455553;-0.37500
7458331;-0.38500
7461109;-0.39500
7463887;-0.38500
7466665;-0.38000
7469442;-0.37000
7472220;-0.37500
7474998;-0.38500
7477776;-0.40000
7480553;-0.37500
7483331;-0.37000
7486109;-0.37000
7488887;-0.38000
7491665;-0.39500
7494442;-0.38000
7497220;-0.38000
7499998;-0.37500
7502776;-0.38000
7505553;-0.38000
7508331;-0.38500
7511109;-0.40500
7513887;-0.40000
7516665;-0.38500
7519442;-0.38500
7522220;-0.39000
7524998;-0.40000
7527776;-0.39500
7530553;-0.39500
7533331;-0.38500
7536109;-0.38000
7538887;-0.39500
7541665;-0.41000
7544442;-0.41500
7547220;-0.40500
7549998;-0.40000
7552776;-0.41500
7555553;-0.41500
7558331;-0.41500
7561109;-0.42500
7563887;-0.42000
7566665;-0.40500
7569442;-0.40500
7572220;-0.42000
7574998;-0.43000
7577776;-0.41500
7580553;-0.41500
7583331;-0.40500
7586109;-0.41000
7588887;-0.43000
7591665;-0.42500
7594442;-0.42500
7597220;-0.41000
7599998;-0.39500
7602776;-0.40000
7605553;-0.40000
7608331;-0.40500
7611109;-0.38500
7613887;-0.36000
7616665;-0.36500
7619442;-0.36000
7622220;-0.35500
7624998;-0.34500
7627776;-0.34000
7630553;-0.33500
7633331;-0.31500
7636109;-0.31000
7638887;-0.29000
7641665;-0.30500
7644442;-0.31000
7647220;-0.30000
7649998;-0.30000
7652776;-0.30500
7655553;-0.30000
7658331;-0.30000
7661109;-0.30500
7663887;-0.30000
7666665;-0.29000
7669442;-0.29000
7672220;-0.30000
7674998;-0.31000
7677776;-0.32000
7680553;-0.30000
7683331;-0.29500
7686109;-0.29000
7688887;-0.31000
7691665;-0.31000
7694442;-0.32000
7697220;-0.31500
7699998;-0.32000
7702776;-0.32000
7705553;-0.32500
7708331;-0.34500
7711109;-0.33500
7713887;-0.33000
7716665;-0.31000
7719442;-0.30500
7722220;-0.31500
7724998;-0.32000
7727776;-0.33500
7730553;-0.32500
7733331;-0.32500
7736109;-0.32000
7738887;-0.33500
7741664;-0.34000
7744442;-0.33500
7747220;-0.33500
7749998;-0.33500
7752776;-0.34000
7755553;-0.35500
7758331;-0.36000
7761109;-0.37000
7763887;-0.37500
7766664;-0.35500
7769442;-0.36000
7772220;-0.36500
7774998;-0.36000
7777776;-0.37500
7780553;-0.36000
7783331;-0.36000
7786109;-0.36500
7788887;-0.36000
7791664;-0.36000
7794442;-0.36000
7797220;-0.36000
7799998;-0.35500
7802776;-0.34500
7805553;-0.34500
7808331;-0.35000
7811109;-0.35000
7813887;-0.36000
7816664;-0.36000
7819442;-0.36500
7822220;-0.37000
7824998;-0.36500
7827776;-0.36500
7830553;-0.37000
7833331;-0.36500
7836109;-0.36500
7838887;-0.37000
7841664;-0.38500
7844442;-0.39500
7847220;-0.38000
7849998;-0.38500
7852776;-0.37500
7855553;-0.38000
7858331;-0.39000
7861109;-0.39000
7863887;-0.37500
7866664;-0.36000
7869442;-0.34500
7872220;-0.36000
7874998;-0.39000
7877776;-0.38500
7880553;-0.35000
7883331;-0.32000
7886109;-0.32000
7888887;-0.31000
7891664;-0.33500
7894442;-0.32000
7897220;-0.31000
7899998;-0.30000
7902776;-0.30500
7905553;-0.30500
7908331;-0.30500
7911109;-0.30000
7913887;-0.28000
7916664;-0.27000
7919442;-0.26500
7922220;-0.27000
7924998;-0.28500
7927776;-0.29000
7930553;-0.29500
7933331;-0.28000
7936109;-0.27500
7938887;-0.27000
7941664;-0.28000
7944442;-0.29500
7947220;-0.31000
7949998;-0.32000
7952776;-0.32500
7955553;-0.32000
7958331;-0.31000
7961109;-0.28500
7963887;-0.27000
7966664;-0.25500
7969442;-0.27500
7972220;-0.30500
7974998;-0.33000
7977776;-0.34500
7980553;-0.34500
7983331;-0.38000
7986109;-0.39000
7988887;-0.40500
7991664;-0.41500
7994442;-0.42500
7997220;-0.41500
7999998;-0.41000
8002776;-0.40500
8005553;-0.40000
8008331;-0.40000
8011109;-0.40500
8013887;-0.39500
8016664;-0.40000
8019442;-0.40500
8022220;-0.41000
8024998;-0.42500
8027776;-0.42500
8030553;-0.42000
8033331;-0.41500
8036109;-0.43000
8038887;-0.43000
8041664;-0.44000
8044442;-0.44000
8047220;-0.43000
8049998;-0.43000
8052776;-0.46000
8055553;-0.49000
8058331;-0.52500
8061109;-0.56500
8063887;-0.59500
8066664;-0.60500
8069442;-0.56000
8072220;-0.44500
8074998;-0.30000
8077776;-0.12500
8080553;0.10500
8083331;0.39000
8086109;0.65000
8088887;0.82000
8091664;0.86500
8094442;0.72500
8097220;0.40000
8099998;-0.00500
8102776;-0.35000
8105553;-0.51000
8108331;-0.55000
8111109;-0.54000
8113887;-0.48500
8116664;-0.45500
8119442;-0.45500
8122220;-0.44500
8124998;-0.46500
8127776;-0.47500
8130553;-0.47000
8133331;-0.46000
8136109;-0.46500
8138887;-0.47500
8141664;-0.47500
8144442;-0.48000
8147220;-0.46000
8149998;-0.44500
8152775;-0.45500
8155553;-0.45000
8158331;-0.47000
8161109;-0.48000
8163887;-0.47000
8166664;-0.47000
8169442;-0.46000
8172220;-0.46000
8174998;-0.46500
8177775;-0.46500
8180553;-0.47000
8183331;-0.47000
8186109;-0.47000
8188887;-0.48000
8191664;-0.48000
8194442;-0.49000
8197220;-0.48000
8199998;-0.47000
8202775;-0.47500
8205553;-0.49500
8208331;-0.48500
8211109;-0.49000
8213887;-0.47500
8216664;-0.46500
8219442;-0.46500
8222220;-0.47000
8224998;-0.46000
8227775;-0.47000
8230553;-0.48000
8233331;-0.48000
8236109;-0.48500
8238887;-0.49000
8241664;-0.49500
8244442;-0.49000
8247220;-0.49000
8249998;-0.47000
8252775;-0.47500
8255553;-0.47500
8258331;-0.48500
8261109;-0.48000
8263887;-0.45500
8266664;-0.46000
8269442;-0.46500
8272220;-0.46000
8274998;-0.48000
8277775;-0.46500
8280553;-0.46000
8283331;-0.44500
8286109;-0.44000
8288887;-0.46000
8291664;-0.47000
8294442;-0.47500
8297220;-0.47500
8299998;-0.46500
8302775;-0.47500
8305553;-0.48500
8308331;-0.49000
8311109;-0.49500
8313887;-0.49000
8316664;-0.48000
8319442;-0.48000
8322220;-0.48500
8324998;-0.51000
8327775;-0.51500
8330553;-0.50000
8333331;-0.50000
8336109;-0.50500
8338887;-0.50500
8341664;-0.51000
8344442;-0.52000
8347220;-0.51500
8349998;-0.51000
8352775;-0.51000
8355553;-0.51000
8358331;-0.50500
8361109;-0.51500
8363887;-0.49500
8366664;-0.48500
8369442;-0.48000
8372220;-0.47500
8374998;-0.47000
8377775;-0.46500
8380553;-0.45000
8383331;-0.43000
8386109;-0.42500
8388887;-0.41500
8391664;-0.42000
8394442;-0.41500
8397220;-0.39500
8399998;-0.38000
8402775;-0.37000
8405553;-0.37000
8408331;-0.36500
8411109;-0.35500
8413887;-0.32500
8416664;-0.32000
8419442;-0.32000
8422220;-0.31500
8424998;-0.31500
8427775;-0.32500
8430553;-0.32500
8433331;-0.30500
8436109;-0.30000
8438887;-0.30500
8441664;-0.31500
8444442;-0.32000
8447220;-0.32000
8449998;-0.31000
8452775;-0.31000
8455553;-0.32000
8458331;-0.31500
8461109;-0.33000
8463887;-0.30500
8466664;-0.31000
8469442;-0.31000
8472220;-0.31000
8474998;-0.32000
8477775;-0.31000
8480553;-0.30000
8483331;-0.30500
8486109;-0.30000
8488887;-0.31000
8491664;-0.32000
8494442;-0.32500
8497220;-0.31500
8499998;-0.30500
8502775;-0.29500
8505553;-0.29500
8508331;-0.30500
8511109;-0.31500
8513887;-0.30500
8516664;-0.31000
8519442;-0.29500
8522220;-0.30500
8524998;-0.31500
8527775;-0.31000
8530553;-0.32000
8533331;-0.30500
8536109;-0.30500
8538886;-0.31000
8541664;-0.31500
8544442;-0.32500
8547220;-0.31500
8549998;-0.32000
8552775;-0.31000
8555553;-0.32500
8558331;-0.33500
8561109;-0.34500
8563886;-0.33000
8566664;-0.33500
8569442;-0.32500
8572220;-0.33000
8574998;-0.33500
8577775;-0.33500
8580553;-0.33500
8583331;-0.32000
8586109;-0.31500
8588886;-0.32000
8591664;-0.33500
8594442;-0.32000
8597220;-0.32500
8599998;-0.30500
8602775;-0.30500
8605553;-0.31500
8608331;-0.32500
8611109;-0.32500
8613886;-0.31500
8616664;-0.30500
8619442;-0.30000
8622220;-0.30000
8624998;-0.31000
8627775;-0.32000
8630553;-0.31500
8633331;-0.30500
8636109;-0.30500
8638886;-0.31500
8641664;-0.33000
8644442;-0.33000
8647220;-0.31500
8649998;-0.30500
8652775;-0.30000
8655553;-0.30000
8658331;-0.30500
8661109;-0.31000
8663886;-0.30500
8666664;-0.29000
8669442;-0.27500
8672220;-0.26500
8674998;-0.26000
8677775;-0.25000
8680553;-0.23500
8683331;-0.22000
8686109;-0.23000
8688886;-0.22000
8691664;-0.22000
8694442;-0.22500
8697220;-0.20500
8699998;-0.20000
8702775;-0.19500
8705553;-0.18500
8708331;-0.19000
8711109;-0.21000
8713886;-0.20500
8716664;-0.21000
8719442;-0.20000
8722220;-0.21000
8724998;-0.23000
8727775;-0.23000
8730553;-0.21500
8733331;-0.22000
8736109;-0.21500
8738886;-0.22500
8741664;-0.22500
8744442;-0.21000
8747220;-0.18000
8749998;-0.16000
8752775;-0.16000
8755553;-0.19000
8758331;-0.21500
8761109;-0.24000
8763886;-0.24000
8766664;-0.23000
8769442;-0.24000
8772220;-0.25500
8774998;-0.27500
8777775;-0.30000
8780553;-0.30000
8783331;-0.30000
8786109;-0.30500
8788886;-0.31000
8791664;-0.32000
8794442;-0.32500
8797220;-0.32500
8799998;-0.31000
8802775;-0.32000
8805553;-0.31000
8808331;-0.34000
8811109;-0.34000
8813886;-0.33000
8816664;-0.32000
8819442;-0.31500
8822220;-0.32000
8824998;-0.33500
8827775;-0.34000
8830553;-0.31500
8833331;-0.31500
8836109;-0.30500
8838886;-0.31500
8841664;-0.33000
8844442;-0.34000
8847220;-0.34000
8849998;-0.35500
8852775;-0.39000
8855553;-0.43000
8858331;-0.46500
8861109;-0.48000
8863886;-0.51000
8866664;-0.52000
8869442;-0.48500
8872220;-0.38500
8874998;-0.25000
8877775;-0.09000
8880553;0.10500
8883331;0.34000
8886109;0.61500
8888886;0.86000
8891664;1.03500
8894442;1.14000
8897220;1.13500
8899998;0.98000
8902775;0.65000
8905553;0.24000
8908331;-0.12000
8911109;-0.35500
8913886;-0.44000
8916664;-0.44500
8919442;-0.39500
8922220;-0.34500
8924998;-0.34000
8927775;-0.34000
8930553;-0.34000
8933331;-0.33500
8936109;-0.33000
8938886;-0.35000
8941664;-0.35500
8944442;-0.36500
8947220;-0.36000
8949997;-0.34500
8952775;-0.35000
8955553;-0.36000
8958331;-0.37500
8961109;-0.38000
8963886;-0.36500
8966664;-0.36500
8969442;-0.38000
8972220;-0.37000
8974997;-0.38500
8977775;-0.38500
8980553;-0.38000
8983331;-0.36500
8986109;-0.35500
8988886;-0.37000
8991664;-0.37000
8994442;-0.37000
8997220;-0.36500
8999997;-0.36500
9002775;-0.37000
9005553;-0.36500
9008331;-0.37000
9011109;-0.37000
9013886;-0.37000
9016664;-0.37000
9019442;-0.36000
9022220;-0.37000
9024997;-0.38000
9027775;-0.38500
9030553;-0.38500
9033331;-0.37000
9036109;-0.37000
9038886;-0.38500
9041664;-0.40500
9044442;-0.40000
9047220;-0.39000
9049997;-0.38500
9052775;-0.35500
9055553;-0.38000
9058331;-0.36500
9061109;-0.38500
9063886;-0.38000
9066664;-0.36000
9069442;-0.36500
9072220;-0.36500
9074997;-0.38000
9077775;-0.38500
9080553;-0.38500
9083331;-0.37000
9086109;-0.38000
9088886;-0.37000
9091664;-0.39000
9094442;-0.39000
9097220;-0.39000
9099997;-0.39000
9102775;-0.39000
9105553;-0.39000
9108331;-0.38500
9111109;-0.40000
9113886;-0.38500
9116664;-0.38000
9119442;-0.36500
9122220;-0.38500
9124997;-0.40000
9127775;-0.40000
9130553;-0.38500
9133331;-0.38000
9136109;-0.37500
9138886;-0.39000
9141664;-0.40500
9144442;-0.40500
9147220;-0.39000
9149997;-0.39000
9152775;-0.38500
9155553;-0.39000
9158331;-0.40500
9161109;-0.41000
9163886;-0.39000
9166664;-0.38000
9169442;-0.38500
9172220;-0.38500
9174997;-0.39500
9177775;-0.39000
9180553;-0.39000
9183331;-0.38000
9186109;-0.36500
9188886;-0.36500
9191664;-0.36500
9194442;-0.36500
9197220;-0.35000
9199997;-0.32500
9202775;-0.30500
9205553;-0.31000
9208331;-0.31000
9211109;-0.29500
9213886;-0.28000
9216664;-0.25500
9219442;-0.25500
9222220;-0.25500
9224997;-0.27000
9227775;-0.26000
9230553;-0.26500
9233331;-0.25000
9236109;-0.24000
9238886;-0.25000
9241664;-0.26500
9244442;-0.25000
9247220;-0.26000
9249997;-0.25000
9252775;-0.24000
9255553;-0.24500
9258331;-0.25000
9261109;-0.26500
9263886;-0.26000
9266664;-0.24500
9269442;-0.24000
9272220;-0.25500
9274997;-0.26000
9277775;-0.27000
9280553;-0.26000
9283331;-0.26000
9286109;-0.25000
9288886;-0.25500
9291664;-0.26000
9294442;-0.27500
9297220;-0.27000
9299997;-0.25500
9302775;-0.25000
9305553;-0.25500
9308331;-0.26500
9311109;-0.28000
9313886;-0.26500
9316664;-0.26500
9319442;-0.25500
9322220;-0.25500
9324997;-0.27000
9327775;-0.27500
9330553;-0.26500
9333331;-0.27000
9336108;-0.26500
9338886;-0.27500
9341664;-0.28000
9344442;-0.30000
9347220;-0.29000
9349997;-0.28500
9352775;-0.28000
9355553;-0.29500
9358331;-0.31000
9361108;-0.30500
9363886;-0.30000
9366664;-0.29500
9369442;-0.28500
9372220;-0.29500
9374997;-0.29500
9377775;-0.30500
9380553;-0.29500
9383331;-0.29000
9386108;-0.29500
9388886;-0.30000
9391664;-0.30000
9394442;-0.31000
9397220;-0.30500
9399997;-0.29000
9402775;-0.29500
9405553;-0.29500
9408331;-0.31000
9411108;-0.30500
9413886;-0.31000
9416664;-0.31000
9419442;-0.29000
9422220;-0.30500
9424997;-0.31000
9427775;-0.31000
9430553;-0.31000
9433331;-0.29500
9436108;-0.30000
9438886;-0.29000
9441664;-0.31000
9444442;-0.31500
9447220;-0.30500
9449997;-0.29500
9452775;-0.28500
9455553;-0.29000
9458331;-0.29000
9461108;-0.30000
9463886;-0.29500
9466664;-0.28000
9469442;-0.28000
9472220;-0.29500
9474997;-0.29500
9477775;-0.30000
9480553;-0.29500
9483331;-0.27000
9486108;-0.29000
9488886;-0.28500
9491664;-0.29500
9494442;-0.29500
9497220;-0.28500
9499997;-0.27000
9502775;-0.26500
9505553;-0.25000
9508331;-0.24500
9511108;-0.25000
9513886;-0.22500
9516664;-0.21000
9519442;-0.21000
9522220;-0.22000
9524997;-0.21500
9527775;-0.22500
9530553;-0.21000
9533331;-0.19500
9536108;-0.18000
9538886;-0.17000
9541664;-0.18000
9544442;-0.18500
9547220;-0.17500
9549997;-0.16500
9552775;-0.16500
9555553;-0.17000
9558331;-0.19000
9561108;-0.20000
9563886;-0.20000
9566664;-0.20500
9569442;-0.19000
9572220;-0.20000
9574997;-0.21000
9577775;-0.22000
9580553;-0.20500
9583331;-0.18500
9586108;-0.16500
9588886;-0.16000
9591664;-0.18500
9594442;-0.20500
9597220;-0.21500
9599997;-0.23000
9602775;-0.24500
9605553;-0.27500
9608331;-0.28000
9611108;-0.29500
9613886;-0.28000
9616664;-0.28500
9619442;-0.28000
9622220;-0.28000
9624997;-0.29500
9627775;-0.30000
9630553;-0.29000
9633331;-0.30000
9636108;-0.30000
9638886;-0.30500
9641664;-0.31000
9644442;-0.32000
9647220;-0.32000
9649997;-0.31000
9652775;-0.31500
9655553;-0.31500
9658331;-0.31500
9661108;-0.32000
9663886;-0.31500
9666664;-0.30500
9669442;-0.30000
9672220;-0.30000
9674997;-0.31000
9677775;-0.31500
9680553;-0.30500
9683331;-0.30500
9686108;-0.30500
9688886;-0.33000
9691664;-0.37000
9694442;-0.41000
9697220;-0.43500
9699997;-0.45000
9702775;-0.47000
9705553;-0.52000
9708331;-0.50500
9711108;-0.41000
9713886;-0.27000
9716664;-0.10500
9719442;0.06500
9722220;0.27000
9724997;0.52000
9727775;0.78000
9730553;0.97000
9733331;1.08000
9736108;1.07000
9738886;0.90500
9741664;0.60000
9744442;0.23000
9747219;-0.08500
9749997;-0.28500
9752775;-0.41500
9755553;-0.47000
9758331;-0.47500
9761108;-0.45500
9763886;-0.41500
9766664;-0.37000
9769442;-0.35500
9772219;-0.34000
9774997;-0.35000
9777775;-0.35500
9780553;-0.36000
9783331;-0.36000
9786108;-0.35500
9788886;-0.35500
9791664;-0.36500
9794442;-0.37000
9797219;-0.36000
9799997;-0.35500
9802775;-0.35000
9805553;-0.35500
9808331;-0.36000
9811108;-0.36500
9813886;-0.35500
9816664;-0.36000
9819442;-0.35500
9822219;-0.35500
9824997;-0.36000
9827775;-0.36000
9830553;-0.35500
9833331;-0.35000
9836108;-0.35500
9838886;-0.35500
9841664;-0.35500
9844442;-0.38000
9847219;-0.37500
9849997;-0.37000
9852775;-0.36500
9855553;-0.36000
9858331;-0.36500
9861108;-0.38500
9863886;-0.37500
9866664;-0.36500
9869442;-0.36500
9872219;-0.37000
9874997;-0.37000
9877775;-0.37000
9880553;-0.36000
9883331;-0.35000
9886108;-0.34000
9888886;-0.34500
9891664;-0.35000
9894442;-0.36000
9897219;-0.35000
9899997;-0.33000
9902775;-0.34000
9905553;-0.34500
9908331;-0.35500
9911108;-0.36500
9913886;-0.36000
9916664;-0.36000
9919442;-0.36000
9922219;-0.37500
9924997;-0.38500
9927775;-0.39000
9930553;-0.37500
9933331;-0.37000
9936108;-0.37500
9938886;-0.37000
9941664;-0.38500
9944442;-0.38000
9947219;-0.38000
9949997;-0.35500
9952775;-0.36000
9955553;-0.35500
9958331;-0.36500
9961108;-0.37500
9963886;-0.37000
9966664;-0.35000
9969442;-0.35500
9972219;-0.37000
9974997;-0.37000
9977775;-0.37000
9980553;-0.37500
9983331;-0.35500
9986108;-0.35500
9988886;-0.37000
9991664;-0.37500
9994442;-0.39000
9997219;-0.37500
9999997;-0.38000
10002775;-0.36000
10005553;-0.37000
10008331;-0.39000
10011108;-0.39500
10013886;-0.38000
10016664;-0.36000
10019442;-0.37500
10022219;-0.37000
10024997;-0.37500
10027775;-0.38500
10030553;-0.37000
10033331;-0.36500
10036108;-0.34500
10038886;-0.34500
10041664;-0.34000
10044442;-0.34500
10047219;-0.33000
10049997;-0.31500
10052775;-0.29000
10055553;-0.28500
10058331;-0.28500
10061108;-0.28500
10063886;-0.28000
10066664;-0.26000
10069442;-0.25000
10072219;-0.24500
10074997;-0.25500
10077775;-0.26000
10080553;-0.25000
10083331;-0.25500
10086108;-0.24500
10088886;-0.24000
10091664;-0.27000
10094442;-0.27000
10097219;-0.26000
10099997;-0.24500
10102775;-0.25000
10105553;-0.25500
10108331;-0.26000
10111108;-0.26500
10113886;-0.26000
10116664;-0.26000
10119442;-0.25500
10122219;-0.25500
10124997;-0.26500
10127775;-0.26000
10130553;-0.24500
10133330;-0.25000
10136108;-0.24000
10138886;-0.25000
10141664;-0.26000
10144442;-0.26500
10147219;-0.26000
10149997;-0.26000
10152775;-0.25500
10155553;-0.25000
10158330;-0.26000
10161108;-0.26500
10163886;-0.26000
10166664;-0.27000
10169442;-0.26000
10172219;-0.27500
10174997;-0.28000
10177775;-0.29000
10180553;-0.27500
10183330;-0.27500
10186108;-0.28000
10188886;-0.28500
10191664;-0.29500
10194442;-0.29500
10197219;-0.29000
10199997;-0.28500
10202775;-0.29000
10205553;-0.30500
10208330;-0.31000
10211108;-0.32000
10213886;-0.30500
10216664;-0.30000
10219442;-0.30000
10222219;-0.30000
10224997;-0.31500
10227775;-0.32000
10230553;-0.32000
10233330;-0.31500
10236108;-0.31000
10238886;-0.31500
10241664;-0.32500
10244442;-0.33500
10247219;-0.31000
10249997;-0.30000
10252775;-0.30500
10255553;-0.31500
10258330;-0.31500
10261108;-0.32000
10263886;-0.31000
10266664;-0.31500
10269442;-0.31000
10272219;-0.30500
10274997;-0.32000
10277775;-0.32500
10280553;-0.31500
10283330;-0.32000
10286108;-0.32000
10288886;-0.32000
10291664;-0.32500
10294442;-0.33500
10297219;-0.34000
10299997;-0.32500
10302775;-0.31500
10305553;-0.31500
10308330;-0.32000
10311108;-0.32500
10313886;-0.31500
10316664;-0.30000
10319442;-0.29500
10322219;-0.30500
10324997;-0.31500
10327775;-0.32500
10330553;-0.32500
10333330;-0.31500
10336108;-0.30500
10338886;-0.31500
10341664;-0.31000
10344442;-0.30500
10347219;-0.28000
10349997;-0.26000
10352775;-0.24500
10355553;-0.25000
10358330;-0.25000
10361108;-0.25500
10363886;-0.24500
10366664;-0.24500
10369442;-0.24000
10372219;-0.22000
10374997;-0.22500
10377775;-0.22000
10380553;-0.21000
10383330;-0.21500
10386108;-0.21500
10388886;-0.22000
10391664;-0.24000
10394442;-0.26000
10397219;-0.25500
10399997;-0.23000
10402775;-0.22000
10405553;-0.23000
10408330;-0.25000
10411108;-0.25500
10413886;-0.23500
10416664;-0.21500
10419442;-0.19500
10422219;-0.21500
10424997;-0.23500
10427775;-0.28000
10430553;-0.28000
10433330;-0.27500
10436108;-0.29500
10438886;-0.30500
10441664;-0.32500
10444442;-0.35000
10447219;-0.33000
10449997;-0.33000
10452775;-0.33000
10455553;-0.34000
10458330;-0.34000
10461108;-0.36000
10463886;-0.33500
10466664;-0.33000
10469442;-0.33500
10472219;-0.34000
10474997;-0.36500
10477775;-0.37500
10480553;-0.36500
10483330;-0.36000
10486108;-0.36000
10488886;-0.37000
10491664;-0.39000
10494442;-0.38500
10497219;-0.37000
10499997;-0.37000
10502775;-0.36000
10505553;-0.35500
10508330;-0.35500
10511108;-0.37500
10513886;-0.36500
10516664;-0.37500
10519441;-0.36000
10522219;-0.38000
10524997;-0.38500
10527775;-0.42000
10530553;-0.45000
10533330;-0.47500
10536108;-0.49500
10538886;-0.54500
10541664;-0.58500
10544441;-0.56500
10547219;-0.48000
10549997;-0.34500
10552775;-0.20500
10555553;-0.05000
10558330;0.13000
10561108;0.38500
10563886;0.64000
10566664;0.81500
10569441;0.89500
10572219;0.83000
10574997;0.56500
10577775;0.19500
10580553;-0.16000
10583330;-0.37000
10586108;-0.47500
10588886;-0.50500
10591664;-0.49000
10594441;-0.45000
10597219;-0.42000
10599997;-0.40000
10602775;-0.40500
10605553;-0.40500
10608330;-0.41000
10611108;-0.41000
10613886;-0.40000
10616664;-0.42000
10619441;-0.42000
10622219;-0.42500
10624997;-0.42500
10627775;-0.45000
10630553;-0.44500
10633330;-0.42500
10636108;-0.43000
10638886;-0.42500
10641664;-0.42500
10644441;-0.44000
10647219;-0.43000
10649997;-0.40500
10652775;-0.40500
10655553;-0.41000
10658330;-0.43000
10661108;-0.43500
10663886;-0.42500
10666664;-0.42000
10669441;-0.41500
10672219;-0.43500
10674997;-0.43500
10677775;-0.43500
10680553;-0.42500
10683330;-0.42500
10686108;-0.40500
10688886;-0.41500
10691664;-0.42000
10694441;-0.43500
10697219;-0.44000
10699997;-0.43500
10702775;-0.43000
10705553;-0.42500
10708330;-0.42500
10711108;-0.44000
10713886;-0.43000
10716664;-0.42500
10719441;-0.43000
10722219;-0.43000
10724997;-0.44500
10727775;-0.45500
10730553;-0.45000
10733330;-0.45000
10736108;-0.43500
10738886;-0.43500
10741664;-0.44000
10744441;-0.45500
10747219;-0.44000
10749997;-0.44000
10752775;-0.44000
10755553;-0.45000
10758330;-0.44000
10761108;-0.44000
10763886;-0.44000
10766664;-0.42000
10769441;-0.41500
10772219;-0.41500
10774997;-0.42000
10777775;-0.43000
10780553;-0.43000
10783330;-0.43000
10786108;-0.43000
10788886;-0.43000
10791664;-0.42500
10794441;-0.43000
10797219;-0.44000
10799997;-0.43500
10802775;-0.43500
10805553;-0.45500
10808330;-0.47000
10811108;-0.47000
10813886;-0.47000
10816664;-0.46500
10819441;-0.46500
10822219;-0.48500
10824997;-0.48000
10827775;-0.49000
10830553;-0.48000
10833330;-0.47500
10836108;-0.47000
10838886;-0.48000
10841664;-0.48500
10844441;-0.50000
10847219;-0.49500
10849997;-0.48000
10852775;-0.47000
10855553;-0.47000
10858330;-0.46500
10861108;-0.47500
10863886;-0.47000
10866664;-0.47500
10869441;-0.47500
10872219;-0.46500
10874997;-0.46000
10877775;-0.45500
10880553;-0.43500
10883330;-0.42000
10886108;-0.40500
10888886;-0.40000
10891664;-0.40000
10894441;-0.41000
10897219;-0.40000
10899997;-0.39000
10902775;-0.37500
10905553;-0.36500
10908330;-0.36500
10911108;-0.38000
10913886;-0.37000
10916664;-0.36000
10919441;-0.35000
10922219;-0.35000
10924997;-0.35500
10927775;-0.35500
10930552;-0.34500
10933330;-0.34000
10936108;-0.34000
10938886;-0.34500
10941664;-0.35000
10944441;-0.35000
10947219;-0.32500
10949997;-0.33000
10952775;-0.34000
10955552;-0.34500
10958330;-0.33000
10961108;-0.34000
10963886;-0.32000
10966664;-0.31500
10969441;-0.32000
10972219;-0.33000
10974997;-0.34000
10977775;-0.36000
10980552;-0.36500
10983330;-0.36000
10986108;-0.34500
10988886;-0.34500
10991664;-0.35000
10994441;-0.36000
10997219;-0.35000
10999997;-0.33500
11002775;-0.34500
11005552;-0.36500
11008330;-0.37500
11011108;-0.38000
11013886;-0.36500
11016664;-0.34000
11019441;-0.33500
11022219;-0.34000
11024997;-0.37000
11027775;-0.37500
11030552;-0.37500
11033330;-0.37500
11036108;-0.37000
11038886;-0.39000
11041664;-0.40000
11044441;-0.40500
11047219;-0.40000
11049997;-0.39000
11052775;-0.37000
11055552;-0.37500
11058330;-0.38500
11061108;-0.40000
11063886;-0.39000
11066664;-0.37000
11069441;-0.37500
11072219;-0.37500
11074997;-0.38000
11077775;-0.38500
11080552;-0.36500
11083330;-0.37000
11086108;-0.35500
11088886;-0.37000
11091664;-0.36500
11094441;-0.37000
11097219;-0.36500
11099997;-0.36000
11102775;-0.36000
11105552;-0.36000
11108330;-0.36500
11111108;-0.38500
11113886;-0.37500
11116664;-0.36500
11119441;-0.37000
11122219;-0.38500
11124997;-0.39000
11127775;-0.39500
11130552;-0.38500
11133330;-0.37500
11136108;-0.37000
11138886;-0.37500
11141664;-0.37500
11144441;-0.40000
11147219;-0.37000
11149997;-0.36000
11152775;-0.35500
11155552;-0.35500
11158330;-0.36500
11161108;-0.36500
11163886;-0.34500
11166664;-0.34500
11169441;-0.32000
11172219;-0.32500
11174997;-0.32500
11177775;-0.33000
11180552;-0.31500
11183330;-0.30000
11186108;-0.28500
11188886;-0.28500
11191664;-0.28500
11194441;-0.29000
11197219;-0.27500
11199997;-0.26500
11202775;-0.26500
11205552;-0.26500
11208330;-0.28000
11211108;-0.28500
11213886;-0.28000
11216664;-0.28000
11219441;-0.26000
11222219;-0.26000
11224997;-0.27500
11227775;-0.29000
11230552;-0.28500
11233330;-0.25000
11236108;-0.24500
11238886;-0.24000
11241664;-0.26000
11244441;-0.29500
11247219;-0.31000
11249997;-0.32000
11252775;-0.32500
11255552;-0.34500
11258330;-0.37500
11261108;-0.36500
11263886;-0.37000
11266664;-0.37000
11269441;-0.36500
11272219;-0.37000
11274997;-0.38500
11277775;-0.39000
11280552;-0.38000
11283330;-0.36500
11286108;-0.36500
11288886;-0.38500
11291664;-0.38000
11294441;-0.38500
11297219;-0.38000
11299997;-0.36500
11302775;-0.36000
11305552;-0.36000
11308330;-0.38000
11311108;-0.38000
11313886;-0.37500
11316663;-0.36000
11319441;-0.36000
11322219;-0.37000
11324997;-0.37500
11327775;-0.39000
11330552;-0.40000
11333330;-0.43000
11336108;-0.45000
11338886;-0.46000
11341663;-0.46000
11344441;-0.46500
11347219;-0.44500
11349997;-0.45500
11352775;-0.48500
11355552;-0.52000
11358330;-0.56000
11361108;-0.56000
11363886;-0.48500
11366663;-0.36000
11369441;-0.20000
11372219;-0.01000
11374997;0.20000
11377775;0.44500
11380552;0.71500
11383330;0.88500
11386108;0.96500
11388886;0.87500
11391663;0.58000
11394441;0.14500
11397219;-0.23500
11399997;-0.42500
11402775;-0.48500
11405552;-0.45500
11408330;-0.42500
11411108;-0.40500
11413886;-0.38500
11416663;-0.37500
11419441;-0.37500
11422219;-0.37500
11424997;-0.38000
11427775;-0.38500
11430552;-0.38000
11433330;-0.37000
11436108;-0.37500
11438886;-0.37000
11441663;-0.39500
11444441;-0.40000
11447219;-0.39500
11449997;-0.37500
11452775;-0.38000
11455552;-0.38000
11458330;-0.38500
11461108;-0.39000
11463886;-0.38500
11466663;-0.37000
11469441;-0.38500
11472219;-0.37500
11474997;-0.37000
11477775;-0.38000
11480552;-0.38000
11483330;-0.38000
11486108;-0.37000
11488886;-0.37500
11491663;-0.38500
11494441;-0.39000
11497219;-0.38000
11499997;-0.37500
11502775;-0.36000
11505552;-0.37000
11508330;-0.37500
11511108;-0.38000
11513886;-0.38500
11516663;-0.37500
11519441;-0.37000
11522219;-0.37000
11524997;-0.37500
11527775;-0.38000
11530552;-0.37500
11533330;-0.37500
11536108;-0.37500
11538886;-0.38500
11541663;-0.39000
11544441;-0.39000
11547219;-0.38500
11549997;-0.37000
11552775;-0.37500
11555552;-0.36500
11558330;-0.37500
11561108;-0.38000
11563886;-0.37500
11566663;-0.36500
11569441;-0.35500
11572219;-0.36500
11574997;-0.37000
11577775;-0.37500
11580552;-0.36000
11583330;-0.35500
11586108;-0.34500
11588886;-0.35500
11591663;-0.36500
11594441;-0.36500
11597219;-0.37000
11599997;-0.36000
11602775;-0.35500
11605552;-0.38000
11608330;-0.38000
11611108;-0.39500
11613886;-0.39000
11616663;-0.39500
11619441;-0.39000
11622219;-0.38500
11624997;-0.40500
11627775;-0.41000
11630552;-0.40000
11633330;-0.39500
11636108;-0.39500
11638886;-0.39000
11641663;-0.40000
11644441;-0.41000
11647219;-0.39000
11649997;-0.38500
11652775;-0.37500
11655552;-0.38000
11658330;-0.38500
11661108;-0.40000
11663886;-0.39500
11666663;-0.37500
11669441;-0.36500
11672219;-0.36000
11674997;-0.36000
11677775;-0.36000
11680552;-0.35000
11683330;-0.32000
11686108;-0.31500
11688886;-0.30000
11691663;-0.29500
11694441;-0.29000
11697219;-0.28000
11699997;-0.26500
11702775;-0.26500
11705552;-0.26000
11708330;-0.25500
11711108;-0.25000
11713886;-0.24000
11716663;-0.23000
11719441;-0.21500
11722219;-0.22500
11724997;-0.22000
11727774;-0.24000
11730552;-0.23000
11733330;-0.21500
11736108;-0.21000
11738886;-0.21500
11741663;-0.22500
11744441;-0.23000
11747219;-0.22000
11749997;-0.21000
11752774;-0.22000
11755552;-0.22000
11758330;-0.22500
11761108;-0.24500
11763886;-0.23000
11766663;-0.23000
11769441;-0.22500
11772219;-0.23500
11774997;-0.24500
11777774;-0.24500
11780552;-0.25000
11783330;-0.22500
11786108;-0.23000
11788886;-0.23000
11791663;-0.24000
11794441;-0.24500
11797219;-0.25000
11799997;-0.24000
11802774;-0.23500
11805552;-0.23000
11808330;-0.25500
11811108;-0.26500
11813886;-0.24500
11816663;-0.25500
11819441;-0.25000
11822219;-0.24500
11824997;-0.26500
11827774;-0.27000
11830552;-0.27000
11833330;-0.26500
11836108;-0.25500
11838886;-0.26000
11841663;-0.27000
11844441;-0.27000
11847219;-0.27000
11849997;-0.25000
11852774;-0.25000
11855552;-0.25500
11858330;-0.26000
11861108;-0.27000
11863886;-0.26000
11866663;-0.25500
11869441;-0.25000
11872219;-0.26000
11874997;-0.26000
11877774;-0.27000
11880552;-0.26000
11883330;-0.26000
11886108;-0.25500
11888886;-0.26000
11891663;-0.27500
11894441;-0.27000
11897219;-0.26500
11899997;-0.26000
11902774;-0.25500
11905552;-0.25000
11908330;-0.26500
11911108;-0.26500
11913886;-0.24500
11916663;-0.24000
11919441;-0.24000
11922219;-0.24500
11924997;-0.26000
11927774;-0.27000
11930552;-0.26500
11933330;-0.25000
11936108;-0.25000
11938886;-0.24500
11941663;-0.25500
11944441;-0.26000
11947219;-0.26000
11949997;-0.24000
11952774;-0.23500
11955552;-0.24500
11958330;-0.25000
11961108;-0.25000
11963886;-0.24000
11966663;-0.23500
11969441;-0.21500
11972219;-0.21500
11974997;-0.21000
11977774;-0.21000
11980552;-0.19000
11983330;-0.18000
11986108;-0.16500
11988886;-0.17000
11991663;-0.16500
11994441;-0.17000
11997219;-0.16000
11999997;-0.14500
12002774;-0.13500
12005552;-0.12500
12008330;-0.13500
12011108;-0.16000
12013886;-0.15500
12016663;-0.15000
12019441;-0.14500
12022219;-0.15000
12024997;-0.15000
12027774;-0.16500
12030552;-0.17000
12033330;-0.16500
12036108;-0.15500
12038886;-0.15500
12041663;-0.14000
12044441;-0.13500
12047219;-0.14500
12049997;-0.15000
12052774;-0.18500
12055552;-0.20000
12058330;-0.21500
12061108;-0.24500
12063886;-0.23500
12066663;-0.24500
12069441;-0.24000
12072219;-0.25000
12074997;-0.25500
12077774;-0.25500
12080552;-0.25500
12083330;-0.25000
12086108;-0.24000
12088886;-0.25500
12091663;-0.25500
12094441;-0.27000
12097219;-0.26000
12099997;-0.25500
12102774;-0.25000
12105552;-0.26000
12108330;-0.27500
12111108;-0.26500
12113885;-0.27000
12116663;-0.26000
12119441;-0.26000
12122219;-0.26500
12124997;-0.28000
12127774;-0.29500
12130552;-0.29500
12133330;-0.32000
12136108;-0.36500
12138885;-0.39500
12141663;-0.41500
12144441;-0.44000
12147219;-0.46000
12149997;-0.44000
12152774;-0.34000
12155552;-0.20000
12158330;-0.03000
12161108;0.14500
12163885;0.37500
12166663;0.65000
12169441;0.91500
12172219;1.09500
12174997;1.20000
12177774;1.16500
12180552;1.00000
12183330;0.65000
12186108;0.21500
12188885;-0.18000
12191663;-0.36000
12194441;-0.41000
12197219;-0.37000
12199997;-0.31000
12202774;-0.29000
12205552;-0.28000
12208330;-0.29500
12211108;-0.31000
12213885;-0.31000
12216663;-0.29000
12219441;-0.29500
12222219;-0.30000
12224997;-0.31000
12227774;-0.31500
12230552;-0.31000
12233330;-0.31000
12236108;-0.30000
12238885;-0.30000
12241663;-0.32000
12244441;-0.33500
12247219;-0.31500
12249997;-0.31000
12252774;-0.30500
12255552;-0.31000
12258330;-0.32000
12261108;-0.32000
12263885;-0.31500
12266663;-0.31000
12269441;-0.31000
12272219;-0.32000
12274997;-0.32000
12277774;-0.33500
12280552;-0.33500
12283330;-0.32000
12286108;-0.31000
12288885;-0.31500
12291663;-0.32000
12294441;-0.33000
12297219;-0.33000
12299997;-0.31000
12302774;-0.28500
12305552;-0.31000
12308330;-0.32000
12311108;-0.32000
12313885;-0.32000
12316663;-0.31000
12319441;-0.30000
12322219;-0.30500
12324997;-0.32500
12327774;-0.32500
12330552;-0.32500
12333330;-0.32000
12336108;-0.31000
12338885;-0.31500
12341663;-0.31500
12344441;-0.32000
12347219;-0.31500
12349997;-0.31000
12352774;-0.30000
12355552;-0.30500
12358330;-0.31000
12361108;-0.32500
12363885;-0.31000
12366663;-0.30000
12369441;-0.30000
12372219;-0.30000
12374997;-0.30500
12377774;-0.32000
12380552;-0.31000
12383330;-0.29500
12386108;-0.30500
12388885;-0.30500
12391663;-0.31000
12394441;-0.32500
12397219;-0.32000
12399997;-0.31500
12402774;-0.30500
12405552;-0.31500
12408330;-0.33000
12411108;-0.34000
12413885;-0.32500
12416663;-0.31500
12419441;-0.31000
12422219;-0.30500
12424997;-0.31500
12427774;-0.32500
12430552;-0.31000
12433330;-0.29000
12436108;-0.28500
12438885;-0.30000
12441663;-0.30500
12444441;-0.31500
12447219;-0.31500
12449997;-0.31000
12452774;-0.28500
12455552;-0.29500
12458330;-0.29500
12461108;-0.30000
12463885;-0.28500
12466663;-0.27500
12469441;-0.26500
12472219;-0.26500
12474997;-0.27000
12477774;-0.26000
12480552;-0.25500
12483330;-0.22500
12486108;-0.21500
12488885;-0.20500
12491663;-0.20500
12494441;-0.20500
12497219;-0.19500
12499996;-0.18500
12502774;-0.17000
12505552;-0.17000
12508330;-0.18000
12511108;-0.19000
12513885;-0.17500
12516663;-0.17500
12519441;-0.16000
12522219;-0.17500
12524996;-0.18500
12527774;-0.17500
12530552;-0.17000
