time_ms;ecg_value
0;-0.51500
2778;-0.51500
5556;-0.51000
8333;-0.50500
11111;-0.49500
13889;-0.49500
16667;-0.50500
19444;-0.51500
22222;-0.50000
25000;-0.49500
27778;-0.50500
30556;-0.50500
33333;-0.50500
36111;-0.51000
38889;-0.50500
41667;-0.49000
44444;-0.48500
47222;-0.49500
50000;-0.50000
52778;-0.51500
55556;-0.52000
58333;-0.51000
61111;-0.50500
63889;-0.50500
66667;-0.53000
69444;-0.52500
72222;-0.50500
75000;-0.49500
77778;-0.49500
80556;-0.50000
83333;-0.51000
86111;-0.50500
88889;-0.49500
91667;-0.49000
94444;-0.50000
97222;-0.51000
100000;-0.51500
102778;-0.53000
105556;-0.51500
108333;-0.51000
111111;-0.51000
113889;-0.53500
116667;-0.54000
119444;-0.54000
122222;-0.52500
125000;-0.52000
127778;-0.53000
130556;-0.52000
133333;-0.53000
136111;-0.53000
138889;-0.52500
141667;-0.52000
144444;-0.52000
147222;-0.52000
150000;-0.52000
152778;-0.54000
155556;-0.52000
158333;-0.51500
161111;-0.51500
163889;-0.51500
166667;-0.52500
169444;-0.53500
172222;-0.52500
175000;-0.52500
177778;-0.52500
180556;-0.52500
183333;-0.53000
186111;-0.52500
188889;-0.51500
191667;-0.51000
194444;-0.52000
197222;-0.53500
200000;-0.55000
202778;-0.54500
205555;-0.54000
208333;-0.53000
211111;-0.54000
213889;-0.55000
216667;-0.56000
219444;-0.57000
222222;-0.56500
225000;-0.57500
227778;-0.57000
230555;-0.57500
233333;-0.57000
236111;-0.58000
238889;-0.57000
241667;-0.55500
244444;-0.55500
247222;-0.54000
250000;-0.55500
252778;-0.54500
255555;-0.52500
258333;-0.50500
261111;-0.48000
263889;-0.48000
266667;-0.47000
269444;-0.46500
272222;-0.43500
275000;-0.42000
277778;-0.41000
280555;-0.40000
283333;-0.40500
286111;-0.40000
288889;-0.39000
291667;-0.37000
294444;-0.37500
297222;-0.37500
300000;-0.37500
302778;-0.38000
305555;-0.37000
308333;-0.35500
311111;-0.36000
313889;-0.36500
316667;-0.36000
319444;-0.36500
322222;-0.36000
325000;-0.35000
327778;-0.34000
330555;-0.35000
333333;-0.36000
336111;-0.35500
338889;-0.35000
341667;-0.34000
344444;-0.33500
347222;-0.34000
350000;-0.32500
352778;-0.32000
355555;-0.31000
358333;-0.29000
361111;-0.27500
363889;-0.27000
366667;-0.28500
369444;-0.30000
372222;-0.27500
375000;-0.25500
377778;-0.25500
380555;-0.26000
383333;-0.26500
386111;-0.26000
388889;-0.23500
391667;-0.21500
394444;-0.22500
397222;-0.26000
400000;-0.28000
402778;-0.30000
405555;-0.29500
408333;-0.31000
411111;-0.32500
413889;-0.34500
416667;-0.36500
419444;-0.36500
422222;-0.36000
425000;-0.36500
427778;-0.37000
430555;-0.39000
433333;-0.40500
436111;-0.42000
438889;-0.41500
441667;-0.40500
444444;-0.40500
447222;-0.42000
450000;-0.42500
452778;-0.43000
455555;-0.42000
458333;-0.41000
461111;-0.41500
463889;-0.42500
466667;-0.43000
469444;-0.43000
472222;-0.42500
475000;-0.42000
477778;-0.42000
480555;-0.42000
483333;-0.42500
486111;-0.43000
488889;-0.43000
491667;-0.41500
494444;-0.41500
497222;-0.41500
500000;-0.43500
502778;-0.43500
505555;-0.44500
508333;-0.46000
511111;-0.48500
513889;-0.53000
516667;-0.56000
519444;-0.58500
522222;-0.60500
525000;-0.64000
527778;-0.67500
530555;-0.68500
533333;-0.66000
536111;-0.54500
538889;-0.38500
541667;-0.21500
544444;-0.03000
547222;0.18000
550000;0.42500
552778;0.67000
555555;0.88000
558333;0.99000
561111;0.92500
563889;0.65500
566667;0.22500
569444;-0.22500
572222;-0.49000
575000;-0.54000
577778;-0.47000
580555;-0.44500
583333;-0.43500
586111;-0.45000
588889;-0.44500
591667;-0.43500
594444;-0.44000
597222;-0.44000
600000;-0.44500
602778;-0.47000
605555;-0.45500
608333;-0.45000
611111;-0.44500
613889;-0.45000
616666;-0.46000
619444;-0.47000
622222;-0.47000
625000;-0.45000
627778;-0.46000
630555;-0.46500
633333;-0.47500
636111;-0.48500
638889;-0.47000
641666;-0.46500
644444;-0.46000
647222;-0.46500
650000;-0.48500
652778;-0.49000
655555;-0.48500
658333;-0.47500
661111;-0.47000
663889;-0.47500
666666;-0.48000
669444;-0.48000
672222;-0.47500
675000;-0.46000
677778;-0.46500
680555;-0.47500
683333;-0.47000
686111;-0.48500
688889;-0.47000
691666;-0.46000
694444;-0.46500
697222;-0.47000
700000;-0.48500
702778;-0.49000
705555;-0.47000
708333;-0.45500
711111;-0.46500
713889;-0.47500
716666;-0.48000
719444;-0.48000
722222;-0.47000
725000;-0.46000
727778;-0.45500
730555;-0.46500
733333;-0.46500
736111;-0.47500
738889;-0.47000
741666;-0.46000
744444;-0.45500
747222;-0.47000
750000;-0.47500
752778;-0.48000
755555;-0.48000
758333;-0.49000
761111;-0.49500
763889;-0.48500
766666;-0.49000
769444;-0.49500
772222;-0.49500
775000;-0.49000
777778;-0.49000
780555;-0.49000
783333;-0.49000
786111;-0.50500
788889;-0.49500
791666;-0.49000
794444;-0.48500
797222;-0.49500
800000;-0.51000
802778;-0.51500
805555;-0.51000
808333;-0.50000
811111;-0.49500
813889;-0.50000
816666;-0.50500
819444;-0.50000
822222;-0.47500
825000;-0.46500
827778;-0.46000
830555;-0.45000
833333;-0.43500
836111;-0.43000
838889;-0.42000
841666;-0.40500
844444;-0.39500
847222;-0.39000
850000;-0.40000
852778;-0.38500
855555;-0.37000
858333;-0.35500
861111;-0.34500
863889;-0.35500
866666;-0.35500
869444;-0.37000
872222;-0.36500
875000;-0.34500
877778;-0.35500
880555;-0.35500
883333;-0.35500
886111;-0.36500
888889;-0.35000
891666;-0.34500
894444;-0.34500
897222;-0.35500
900000;-0.35500
902778;-0.36500
905555;-0.36000
908333;-0.35500
911111;-0.35500
913889;-0.35500
916666;-0.37000
919444;-0.38000
922222;-0.37500
925000;-0.36500
927778;-0.36500
930555;-0.36000
933333;-0.37000
936111;-0.38000
938889;-0.38000
941666;-0.37000
944444;-0.36500
947222;-0.37000
950000;-0.37000
952778;-0.39000
955555;-0.37500
958333;-0.36500
961111;-0.36500
963889;-0.37000
966666;-0.38000
969444;-0.37500
972222;-0.37000
975000;-0.36000
977778;-0.35500
980555;-0.37500
983333;-0.39000
986111;-0.38500
988889;-0.38500
991666;-0.37500
994444;-0.37000
997222;-0.38500
1000000;-0.39000
1002777;-0.40500
1005555;-0.39500
1008333;-0.38500
1011111;-0.38000
1013889;-0.37000
1016666;-0.39000
1019444;-0.39000
1022222;-0.37500
1025000;-0.37000
1027777;-0.37000
1030555;-0.37000
1033333;-0.37000
1036111;-0.37000
1038889;-0.37500
1041666;-0.37000
1044444;-0.37500
1047222;-0.36000
1050000;-0.36500
1052777;-0.36500
1055555;-0.37000
1058333;-0.36500
1061111;-0.35500
1063889;-0.38000
1066666;-0.38000
1069444;-0.39500
1072222;-0.39000
1075000;-0.36500
1077777;-0.36000
1080555;-0.35500
1083333;-0.36500
1086111;-0.37500
1088889;-0.36500
1091666;-0.35000
1094444;-0.36000
1097222;-0.36500
1100000;-0.38000
1102777;-0.37500
1105555;-0.36000
1108333;-0.35000
1111111;-0.35000
1113889;-0.36000
1116666;-0.35500
1119444;-0.35500
1122222;-0.36500
1125000;-0.34500
1127777;-0.36000
1130555;-0.34500
1133333;-0.36000
1136111;-0.36500
1138889;-0.37000
1141666;-0.35500
1144444;-0.35500
1147222;-0.35500
1150000;-0.36000
1152777;-0.37000
1155555;-0.36000
1158333;-0.36000
1161111;-0.34500
1163889;-0.36500
1166666;-0.36000
1169444;-0.37000
1172222;-0.36000
1175000;-0.36000
1177777;-0.36000
1180555;-0.34500
1183333;-0.34500
1186111;-0.35500
1188889;-0.35000
1191666;-0.34500
1194444;-0.34500
1197222;-0.34000
1200000;-0.35500
1202777;-0.35500
1205555;-0.36000
1208333;-0.35500
1211111;-0.35000
1213889;-0.35500
1216666;-0.36000
1219444;-0.36000
1222222;-0.35500
1225000;-0.35500
1227777;-0.34500
1230555;-0.34500
1233333;-0.34500
1236111;-0.37000
1238889;-0.36500
1241666;-0.35500
1244444;-0.34000
1247222;-0.35500
1250000;-0.35000
1252777;-0.35000
1255555;-0.33000
1258333;-0.32000
1261111;-0.31500
1263889;-0.30500
1266666;-0.29500
1269444;-0.29500
1272222;-0.28000
1275000;-0.27000
1277777;-0.26500
1280555;-0.26500
1283333;-0.26000
1286111;-0.26500
1288889;-0.26000
1291666;-0.24500
1294444;-0.24500
1297222;-0.24000
1300000;-0.26500
1302777;-0.28000
1305555;-0.26500
1308333;-0.25500
1311111;-0.24500
1313889;-0.24500
1316666;-0.25000
1319444;-0.25500
1322222;-0.23000
1325000;-0.21000
1327777;-0.20000
1330555;-0.23500
1333333;-0.28500
1336111;-0.31000
1338889;-0.30500
1341666;-0.29500
1344444;-0.30500
1347222;-0.31500
1350000;-0.33500
1352777;-0.36000
1355555;-0.36000
1358333;-0.36000
1361111;-0.36500
1363889;-0.37500
1366666;-0.37000
1369444;-0.38500
1372222;-0.38000
1375000;-0.36500
1377777;-0.37000
1380555;-0.37500
1383333;-0.39000
1386111;-0.38500
1388888;-0.38500
1391666;-0.37500
1394444;-0.37500
1397222;-0.38500
1400000;-0.39000
1402777;-0.41000
1405555;-0.39500
1408333;-0.37000
1411111;-0.38500
1413888;-0.38000
1416666;-0.39000
1419444;-0.40000
1422222;-0.42500
1425000;-0.45000
1427777;-0.47000
1430555;-0.50000
1433333;-0.52500
1436111;-0.56500
1438888;-0.58000
1441666;-0.53000
1444444;-0.43500
1447222;-0.27500
1450000;-0.11500
1452777;0.06000
1455555;0.30500
1458333;0.59000
1461111;0.82000
1463888;0.98500
1466666;1.02500
1469444;0.91000
1472222;0.57000
1475000;0.11500
1477777;-0.27500
1480555;-0.50000
1483333;-0.54500
1486111;-0.51000
1488888;-0.47000
1491666;-0.43000
1494444;-0.40000
1497222;-0.40500
1500000;-0.42000
1502777;-0.43500
1505555;-0.43000
1508333;-0.42500
1511111;-0.43000
1513888;-0.43000
1516666;-0.43500
1519444;-0.44500
1522222;-0.45000
1525000;-0.43000
1527777;-0.43000
1530555;-0.43000
1533333;-0.45000
1536111;-0.44000
1538888;-0.44500
1541666;-0.43500
1544444;-0.44000
1547222;-0.43500
1550000;-0.43000
1552777;-0.45000
1555555;-0.43000
1558333;-0.44000
1561111;-0.43500
1563888;-0.44000
1566666;-0.44000
1569444;-0.45000
1572222;-0.44500
1575000;-0.43500
1577777;-0.44000
1580555;-0.43500
1583333;-0.44000
1586111;-0.44500
1588888;-0.44500
1591666;-0.43000
1594444;-0.43000
1597222;-0.42500
1600000;-0.44000
1602777;-0.45000
1605555;-0.44000
1608333;-0.43500
1611111;-0.43000
1613888;-0.43500
1616666;-0.43000
1619444;-0.43500
1622222;-0.44000
1625000;-0.42500
1627777;-0.42000
1630555;-0.43000
1633333;-0.43500
1636111;-0.44500
1638888;-0.43500
1641666;-0.43000
1644444;-0.43500
1647222;-0.42000
1650000;-0.44000
1652777;-0.44500
1655555;-0.44000
1658333;-0.43000
1661111;-0.41500
1663888;-0.43000
1666666;-0.43500
1669444;-0.43500
1672222;-0.43000
1675000;-0.42500
1677777;-0.42000
1680555;-0.42500
1683333;-0.43500
1686111;-0.45000
1688888;-0.44000
1691666;-0.42500
1694444;-0.42500
1697222;-0.44000
1700000;-0.45000
1702777;-0.45000
1705555;-0.44500
1708333;-0.44500
1711111;-0.43000
1713888;-0.43000
1716666;-0.43500
1719444;-0.43500
1722222;-0.43500
1725000;-0.42000
1727777;-0.41500
1730555;-0.41000
1733333;-0.42500
1736111;-0.43000
1738888;-0.42000
1741666;-0.41500
1744444;-0.39500
1747222;-0.39500
1750000;-0.39500
1752777;-0.38500
1755555;-0.36000
1758333;-0.36000
1761111;-0.33000
1763888;-0.33500
1766666;-0.33000
1769444;-0.32500
1772222;-0.30500
1775000;-0.30000
1777777;-0.28000
1780555;-0.27500
1783333;-0.28500
1786111;-0.29000
1788888;-0.28000
1791666;-0.27000
1794444;-0.26000
1797222;-0.27000
1799999;-0.27500
1802777;-0.28000
1805555;-0.27500
1808333;-0.26500
1811111;-0.26000
1813888;-0.26000
1816666;-0.26000
1819444;-0.27500
1822222;-0.27000
1824999;-0.26500
1827777;-0.26000
1830555;-0.26000
1833333;-0.27000
1836111;-0.28000
1838888;-0.27500
1841666;-0.27000
1844444;-0.27000
1847222;-0.26500
1849999;-0.27500
1852777;-0.28500
1855555;-0.28000
1858333;-0.27500
1861111;-0.26500
1863888;-0.27000
1866666;-0.28500
1869444;-0.29500
1872222;-0.29000
1874999;-0.28000
1877777;-0.28000
1880555;-0.28500
1883333;-0.28500
1886111;-0.30000
1888888;-0.29000
1891666;-0.28500
1894444;-0.27500
1897222;-0.28500
1899999;-0.29500
1902777;-0.30000
1905555;-0.30500
1908333;-0.30000
1911111;-0.29000
1913888;-0.29500
1916666;-0.30500
1919444;-0.31500
1922222;-0.32000
1924999;-0.31000
1927777;-0.30500
1930555;-0.31000
1933333;-0.32500
1936111;-0.32500
1938888;-0.32500
1941666;-0.31500
1944444;-0.31000
1947222;-0.32000
1949999;-0.32500
1952777;-0.33000
1955555;-0.33000
1958333;-0.31000
1961111;-0.30500
1963888;-0.31500
1966666;-0.31500
1969444;-0.32500
1972222;-0.32000
1974999;-0.31500
1977777;-0.30500
1980555;-0.30000
1983333;-0.32000
1986111;-0.34000
1988888;-0.31500
1991666;-0.30000
1994444;-0.29500
1997222;-0.30000
1999999;-0.31000
2002777;-0.32000
2005555;-0.31000
2008333;-0.30500
2011111;-0.30000
2013888;-0.30500
2016666;-0.31000
2019444;-0.32000
2022222;-0.30000
2024999;-0.30000
2027777;-0.30500
2030555;-0.29000
2033333;-0.30500
2036111;-0.31000
2038888;-0.30000
2041666;-0.28500
2044444;-0.28500
2047222;-0.28500
2049999;-0.30000
2052777;-0.31000
2055555;-0.30000
2058333;-0.29000
2061111;-0.28500
2063888;-0.28500
2066666;-0.30500
2069444;-0.30500
2072222;-0.29500
2074999;-0.29000
2077777;-0.27500
2080555;-0.27000
2083333;-0.28500
2086111;-0.26500
2088888;-0.26000
2091666;-0.24000
2094444;-0.23000
2097222;-0.21500
2099999;-0.22000
2102777;-0.22500
2105555;-0.22500
2108333;-0.20000
2111111;-0.19000
2113888;-0.18500
2116666;-0.18000
2119444;-0.18500
2122222;-0.17500
2124999;-0.17000
2127777;-0.18000
2130555;-0.19000
2133333;-0.19000
2136111;-0.20500
2138888;-0.19500
2141666;-0.18000
2144444;-0.18500
2147222;-0.19500
2149999;-0.19500
2152777;-0.19500
2155555;-0.17500
2158333;-0.17000
2161111;-0.19000
2163888;-0.21500
2166666;-0.24500
2169444;-0.25500
2172222;-0.26000
2174999;-0.25500
2177777;-0.27500
2180555;-0.28500
2183333;-0.31000
2186110;-0.32000
2188888;-0.31500
2191666;-0.30000
2194444;-0.29500
2197222;-0.30500
2199999;-0.31000
2202777;-0.31000
2205555;-0.31500
2208333;-0.31000
2211110;-0.31500
2213888;-0.31500
2216666;-0.31000
2219444;-0.33500
2222222;-0.32000
2224999;-0.31500
2227777;-0.30000
2230555;-0.30500
2233333;-0.32500
2236110;-0.32500
2238888;-0.32500
2241666;-0.31500
2244444;-0.30500
2247222;-0.31000
2249999;-0.31500
2252777;-0.31500
2255555;-0.31500
2258333;-0.32000
2261110;-0.34000
2263888;-0.38000
2266666;-0.43500
2269444;-0.46000
2272222;-0.48500
2274999;-0.51500
2277777;-0.53000
2280555;-0.48000
2283333;-0.37000
2286110;-0.23000
2288888;-0.05000
2291666;0.16000
2294444;0.41500
2297222;0.67500
2299999;0.86500
2302777;0.95500
2305555;0.92000
2308333;0.71500
2311110;0.33000
2313888;-0.08000
2316666;-0.36000
2319444;-0.46500
2322222;-0.44500
2324999;-0.38500
2327777;-0.35000
2330555;-0.35000
2333333;-0.35500
2336110;-0.37000
2338888;-0.36000
2341666;-0.34500
2344444;-0.34000
2347222;-0.34500
2349999;-0.35000
2352777;-0.36500
2355555;-0.37000
2358333;-0.36500
2361110;-0.35000
2363888;-0.35000
2366666;-0.35000
2369444;-0.37000
2372222;-0.36000
2374999;-0.35000
2377777;-0.34000
2380555;-0.34000
2383333;-0.35000
2386110;-0.36000
2388888;-0.35500
2391666;-0.34500
2394444;-0.34000
2397222;-0.34500
2399999;-0.35500
2402777;-0.36000
2405555;-0.35000
2408333;-0.34000
2411110;-0.33500
2413888;-0.35000
2416666;-0.35500
2419444;-0.35500
2422222;-0.34500
2424999;-0.34500
2427777;-0.34000
2430555;-0.34500
2433333;-0.35500
2436110;-0.35500
2438888;-0.36000
2441666;-0.34000
2444444;-0.34000
2447222;-0.34500
2449999;-0.34500
2452777;-0.36000
2455555;-0.34500
2458333;-0.34500
2461110;-0.34500
2463888;-0.34000
2466666;-0.35500
2469444;-0.37000
2472222;-0.35000
2474999;-0.35500
2477777;-0.35500
2480555;-0.35000
2483333;-0.35000
2486110;-0.35500
2488888;-0.34500
2491666;-0.34500
2494444;-0.33500
2497222;-0.34500
2499999;-0.35000
2502777;-0.35500
2505555;-0.35500
2508333;-0.34000
2511110;-0.33500
2513888;-0.33000
2516666;-0.33500
2519444;-0.34500
2522222;-0.34500
2524999;-0.35000
2527777;-0.34000
2530555;-0.34500
2533333;-0.35000
2536110;-0.35500
2538888;-0.35000
2541666;-0.35000
2544444;-0.35500
2547222;-0.36000
2549999;-0.36500
2552777;-0.36500
2555555;-0.36500
2558333;-0.35000
2561110;-0.35000
2563888;-0.34500
2566666;-0.36000
2569444;-0.35000
2572222;-0.35000
2574999;-0.34500
2577777;-0.34000
2580555;-0.34000
2583333;-0.34000
2586110;-0.34500
2588888;-0.33000
2591666;-0.31000
2594444;-0.30000
2597221;-0.29500
2599999;-0.29500
2602777;-0.29000
2605555;-0.27500
2608333;-0.26000
2611110;-0.25000
2613888;-0.25500
2616666;-0.26000
2619444;-0.25500
2622221;-0.25000
2624999;-0.24000
2627777;-0.22500
2630555;-0.23500
2633333;-0.23500
2636110;-0.24000
2638888;-0.23000
2641666;-0.22000
2644444;-0.22500
2647221;-0.23000
2649999;-0.22500
2652777;-0.24500
2655555;-0.23500
2658333;-0.22500
2661110;-0.23000
2663888;-0.22500
2666666;-0.24500
2669444;-0.24500
2672221;-0.24500
2674999;-0.23000
2677777;-0.22000
2680555;-0.22500
2683333;-0.24000
2686110;-0.23500
2688888;-0.23500
2691666;-0.23000
2694444;-0.22000
2697221;-0.24000
2699999;-0.25000
2702777;-0.25500
2705555;-0.25000
2708333;-0.23500
2711110;-0.23000
2713888;-0.24000
2716666;-0.24500
2719444;-0.26000
2722221;-0.26000
2724999;-0.25500
2727777;-0.24500
2730555;-0.23500
2733333;-0.24500
2736110;-0.26500
2738888;-0.26000
2741666;-0.24500
2744444;-0.25000
2747221;-0.26500
2749999;-0.27000
2752777;-0.29000
2755555;-0.27500
2758333;-0.27000
2761110;-0.26000
2763888;-0.28000
2766666;-0.28000
2769444;-0.27500
2772221;-0.27500
2774999;-0.29000
2777777;-0.27500
2780555;-0.28500
2783333;-0.27500
2786110;-0.28500
2788888;-0.30000
2791666;-0.29000
2794444;-0.28500
2797221;-0.29500
2799999;-0.30000
2802777;-0.32000
2805555;-0.28500
2808333;-0.29000
2811110;-0.26500
2813888;-0.28000
2816666;-0.28000
2819444;-0.29500
2822221;-0.28500
2824999;-0.28000
2827777;-0.28000
2830555;-0.28500
2833333;-0.29500
2836110;-0.31000
2838888;-0.31500
2841666;-0.29500
2844444;-0.28000
2847221;-0.29000
2849999;-0.29000
2852777;-0.29500
2855555;-0.29000
2858333;-0.27500
2861110;-0.26500
2863888;-0.28000
2866666;-0.29000
2869444;-0.29500
2872221;-0.28500
2874999;-0.27500
2877777;-0.26500
2880555;-0.27500
2883333;-0.28000
2886110;-0.29000
2888888;-0.29000
2891666;-0.27500
2894444;-0.26500
2897221;-0.27000
2899999;-0.27500
2902777;-0.28500
2905555;-0.28000
2908333;-0.26500
2911110;-0.25500
2913888;-0.25000
2916666;-0.24000
2919444;-0.24000
2922221;-0.22500
2924999;-0.22000
2927777;-0.20500
2930555;-0.21000
2933333;-0.22000
2936110;-0.21500
2938888;-0.20500
2941666;-0.19000
2944444;-0.18500
2947221;-0.17500
2949999;-0.17500
2952777;-0.16500
2955555;-0.17000
2958333;-0.15500
2961110;-0.15500
2963888;-0.17500
2966666;-0.19000
2969444;-0.19000
2972221;-0.18000
2974999;-0.17000
2977777;-0.18000
2980555;-0.18500
2983332;-0.19500
2986110;-0.21500
2988888;-0.21000
2991666;-0.20500
2994444;-0.19000
2997221;-0.18500
2999999;-0.18000
3002777;-0.19000
3005555;-0.20000
3008332;-0.21000
3011110;-0.21500
3013888;-0.24000
3016666;-0.27000
3019444;-0.28500
3022221;-0.29500
3024999;-0.29000
3027777;-0.29000
3030555;-0.29000
3033332;-0.29500
3036110;-0.29000
3038888;-0.29500
3041666;-0.29500
3044444;-0.28500
3047221;-0.28500
3049999;-0.29500
3052777;-0.32000
3055555;-0.30500
3058332;-0.30500
3061110;-0.30000
3063888;-0.30000
3066666;-0.29500
3069444;-0.31500
3072221;-0.31000
3074999;-0.28500
3077777;-0.29500
3080555;-0.30000
3083332;-0.30500
3086110;-0.32000
3088888;-0.31000
3091666;-0.30500
3094444;-0.31500
3097221;-0.33000
3099999;-0.35000
3102777;-0.38000
3105555;-0.39000
3108332;-0.41000
3111110;-0.40000
3113888;-0.43000
3116666;-0.48500
3119444;-0.52500
3122221;-0.49000
3124999;-0.39000
3127777;-0.25500
3130555;-0.10500
3133332;0.04500
3136110;0.25000
3138888;0.50500
3141666;0.73000
3144444;0.88000
3147221;0.93500
3149999;0.87000
3152777;0.62500
3155555;0.27500
3158332;-0.05500
3161110;-0.27000
3163888;-0.40500
3166666;-0.46000
3169444;-0.46000
3172221;-0.42000
3174999;-0.37500
3177777;-0.35500
3180555;-0.34500
3183332;-0.36000
3186110;-0.37500
3188888;-0.36500
3191666;-0.34000
3194444;-0.32500
3197221;-0.33000
3199999;-0.36000
3202777;-0.36500
3205555;-0.37000
3208332;-0.35500
3211110;-0.36000
3213888;-0.36500
3216666;-0.37000
3219444;-0.37500
3222221;-0.36500
3224999;-0.35000
3227777;-0.34000
3230555;-0.34500
3233332;-0.35500
3236110;-0.37500
3238888;-0.35500
3241666;-0.36000
3244444;-0.36000
3247221;-0.34500
3249999;-0.36000
3252777;-0.37000
3255555;-0.36000
3258332;-0.36000
3261110;-0.34000
3263888;-0.35500
3266666;-0.37000
3269444;-0.38500
3272221;-0.38000
3274999;-0.37000
3277777;-0.36500
3280555;-0.36000
3283332;-0.36000
3286110;-0.37500
3288888;-0.37500
3291666;-0.38000
3294444;-0.36000
3297221;-0.35500
3299999;-0.37000
3302777;-0.38500
3305555;-0.37500
3308332;-0.36000
3311110;-0.35000
3313888;-0.36000
3316666;-0.37500
3319444;-0.39000
3322221;-0.38500
3324999;-0.38500
3327777;-0.37500
3330555;-0.38500
3333332;-0.38000
3336110;-0.37500
3338888;-0.36000
3341666;-0.35500
3344444;-0.36000
3347221;-0.36500
3349999;-0.37500
3352777;-0.37500
3355555;-0.37500
3358332;-0.37000
3361110;-0.37000
3363888;-0.37000
3366666;-0.38500
3369444;-0.39500
3372221;-0.38500
3374999;-0.38000
3377777;-0.37000
3380555;-0.37500
3383332;-0.39500
3386110;-0.41000
3388888;-0.40000
3391666;-0.39500
3394443;-0.39000
3397221;-0.40500
3399999;-0.39500
3402777;-0.40500
3405555;-0.41500
3408332;-0.41500
3411110;-0.41500
3413888;-0.42000
3416666;-0.43000
3419443;-0.46000
3422221;-0.45000
3424999;-0.42500
3427777;-0.41500
3430555;-0.41500
3433332;-0.42500
3436110;-0.43500
3438888;-0.42000
3441666;-0.42000
3444443;-0.41000
3447221;-0.40500
3449999;-0.40500
3452777;-0.40500
3455555;-0.39500
3458332;-0.37500
3461110;-0.35500
3463888;-0.35000
3466666;-0.34500
3469443;-0.34000
3472221;-0.31000
3474999;-0.30000
3477777;-0.29000
3480555;-0.28000
3483332;-0.28500
3486110;-0.27000
3488888;-0.26000
3491666;-0.25500
3494443;-0.25000
3497221;-0.25500
3499999;-0.25500
3502777;-0.27000
3505555;-0.26000
3508332;-0.26000
3511110;-0.24500
3513888;-0.24500
3516666;-0.25000
3519443;-0.26000
3522221;-0.25000
3524999;-0.23500
3527777;-0.23000
3530555;-0.23500
3533332;-0.25000
3536110;-0.26000
3538888;-0.25000
3541666;-0.25500
3544443;-0.23500
3547221;-0.23500
3549999;-0.25000
3552777;-0.25000
3555555;-0.25500
3558332;-0.24500
3561110;-0.23500
3563888;-0.25000
3566666;-0.25500
3569443;-0.26500
3572221;-0.26500
3574999;-0.25000
3577777;-0.24500
3580555;-0.25500
3583332;-0.25000
3586110;-0.25500
3588888;-0.25500
3591666;-0.26000
3594443;-0.25500
3597221;-0.27500
3599999;-0.26500
3602777;-0.27500
3605555;-0.27000
3608332;-0.26000
3611110;-0.25500
3613888;-0.25500
3616666;-0.28000
3619443;-0.28000
3622221;-0.28500
3624999;-0.27500
3627777;-0.26000
3630555;-0.27500
3633332;-0.28000
3636110;-0.29500
3638888;-0.29000
3641666;-0.27500
3644443;-0.25500
3647221;-0.25000
3649999;-0.26500
3652777;-0.28500
3655555;-0.28000
3658332;-0.27000
3661110;-0.26500
3663888;-0.25500
3666666;-0.27000
3669443;-0.26500
3672221;-0.26500
3674999;-0.26500
3677777;-0.26500
3680555;-0.26000
3683332;-0.26500
3686110;-0.27000
3688888;-0.27500
3691666;-0.26500
3694443;-0.25500
3697221;-0.26500
3699999;-0.26000
3702777;-0.28500
3705555;-0.27500
3708332;-0.27500
3711110;-0.26500
3713888;-0.25000
3716666;-0.26000
3719443;-0.27500
3722221;-0.25500
3724999;-0.25500
3727777;-0.25500
3730555;-0.25000
3733332;-0.26500
3736110;-0.27000
3738888;-0.26500
3741666;-0.25000
3744443;-0.24000
3747221;-0.24000
3749999;-0.24000
3752777;-0.25500
3755555;-0.24500
3758332;-0.23000
3761110;-0.23500
3763888;-0.24000
3766666;-0.24000
3769443;-0.23000
3772221;-0.22500
3774999;-0.20500
3777777;-0.19500
3780554;-0.19000
3783332;-0.18500
3786110;-0.20000
3788888;-0.18000
3791666;-0.16000
3794443;-0.16000
3797221;-0.15000
3799999;-0.15500
3802777;-0.15500
3805554;-0.14000
3808332;-0.13500
3811110;-0.13000
3813888;-0.14000
3816666;-0.15000
3819443;-0.17000
3822221;-0.16000
3824999;-0.16000
3827777;-0.14500
3830554;-0.15500
3833332;-0.16500
3836110;-0.17500
3838888;-0.16000
3841666;-0.14000
3844443;-0.12000
3847221;-0.13500
3849999;-0.16000
3852777;-0.19500
3855554;-0.20000
3858332;-0.21500
3861110;-0.22000
3863888;-0.23500
3866666;-0.25000
3869443;-0.26500
3872221;-0.26000
3874999;-0.25000
3877777;-0.24500
3880554;-0.24500
3883332;-0.25000
3886110;-0.27000
3888888;-0.26500
3891666;-0.25500
3894443;-0.25500
3897221;-0.25000
3899999;-0.25500
3902777;-0.26500
3905554;-0.26500
3908332;-0.25000
3911110;-0.25000
3913888;-0.25500
3916666;-0.27000
3919443;-0.28000
3922221;-0.26000
3924999;-0.25000
3927777;-0.24500
3930554;-0.26000
3933332;-0.28500
3936110;-0.32000
3938888;-0.35000
3941666;-0.37000
3944443;-0.38500
3947221;-0.42000
3949999;-0.45000
3952777;-0.45000
3955554;-0.36500
3958332;-0.23500
3961110;-0.10500
3963888;0.03000
3966666;0.15000
3969443;0.32000
3972221;0.53500
3974999;0.73500
3977777;0.88000
3980554;0.97000
3983332;1.05500
3986110;1.13000
3988888;1.19500
3991666;1.19500
3994443;1.05500
3997221;0.78500
3999999;0.43500
4002777;0.06000
4005554;-0.22500
4008332;-0.37000
4011110;-0.37500
4013888;-0.34000
4016666;-0.31500
4019443;-0.30000
4022221;-0.29500
4024999;-0.29500
4027777;-0.29000
4030554;-0.29000
4033332;-0.30000
4036110;-0.31000
4038888;-0.31000
4041666;-0.31500
4044443;-0.30000
4047221;-0.30500
4049999;-0.30000
4052777;-0.32500
4055554;-0.32000
4058332;-0.31500
4061110;-0.31000
4063888;-0.31000
4066666;-0.31500
4069443;-0.32500
4072221;-0.32000
4074999;-0.32000
4077777;-0.31500
4080554;-0.32000
4083332;-0.31500
4086110;-0.33500
4088888;-0.32000
4091666;-0.32500
4094443;-0.31000
4097221;-0.31000
4099999;-0.32500
4102777;-0.32500
4105554;-0.32500
4108332;-0.32000
4111110;-0.31000
4113888;-0.31000
4116666;-0.31500
4119443;-0.32000
4122221;-0.32000
4124999;-0.30500
4127777;-0.30000
4130554;-0.31500
4133332;-0.32000
4136110;-0.32500
4138888;-0.31500
4141666;-0.32000
4144443;-0.31500
4147221;-0.32000
4149999;-0.32000
4152777;-0.34500
4155554;-0.32500
4158332;-0.32000
4161110;-0.31000
4163888;-0.31000
4166666;-0.32500
4169443;-0.33500
4172221;-0.33000
4174999;-0.32000
4177777;-0.30000
4180554;-0.31500
4183332;-0.31500
4186110;-0.33500
4188888;-0.34000
4191665;-0.34000
4194443;-0.32500
4197221;-0.33000
4199999;-0.33500
4202777;-0.34500
4205554;-0.34000
4208332;-0.33500
4211110;-0.33500
4213888;-0.34500
4216665;-0.35000
4219443;-0.35500
4222221;-0.35500
4224999;-0.34000
4227777;-0.34000
4230554;-0.35500
4233332;-0.35500
4236110;-0.37000
4238888;-0.36500
4241665;-0.35500
4244443;-0.35500
4247221;-0.36000
4249999;-0.36000
4252777;-0.37000
4255554;-0.37500
4258332;-0.36500
4261110;-0.35500
4263888;-0.36500
4266665;-0.37000
4269443;-0.37000
4272221;-0.36000
4274999;-0.36500
4277777;-0.35500
4280554;-0.34500
4283332;-0.35000
4286110;-0.34500
4288888;-0.33500
4291665;-0.31500
4294443;-0.30000
4297221;-0.28500
4299999;-0.28000
4302777;-0.28000
4305554;-0.26500
4308332;-0.23500
4311110;-0.23500
4313888;-0.23500
4316665;-0.23500
4319443;-0.23000
4322221;-0.21500
4324999;-0.20000
4327777;-0.20500
4330554;-0.19500
4333332;-0.20000
4336110;-0.21500
4338888;-0.20500
4341665;-0.20000
4344443;-0.18500
4347221;-0.19500
4349999;-0.19500
4352777;-0.20500
4355554;-0.20500
4358332;-0.20000
4361110;-0.19000
4363888;-0.19000
4366665;-0.19500
4369443;-0.21000
4372221;-0.20500
4374999;-0.21000
4377777;-0.18500
4380554;-0.19000
4383332;-0.21000
4386110;-0.20500
4388888;-0.21500
4391665;-0.21000
4394443;-0.20000
4397221;-0.20000
4399999;-0.22000
4402777;-0.22500
4405554;-0.22500
4408332;-0.22000
4411110;-0.21000
4413888;-0.21000
4416665;-0.22500
4419443;-0.23500
4422221;-0.22000
4424999;-0.22000
4427777;-0.22000
4430554;-0.21500
4433332;-0.23000
4436110;-0.23000
4438888;-0.22500
4441665;-0.23000
4444443;-0.22000
4447221;-0.22500
4449999;-0.23500
4452777;-0.23500
4455554;-0.23500
4458332;-0.24000
4461110;-0.23500
4463888;-0.23000
4466665;-0.24500
4469443;-0.25500
4472221;-0.25500
4474999;-0.25000
4477777;-0.24000
4480554;-0.24000
4483332;-0.24000
4486110;-0.25500
4488888;-0.24500
4491665;-0.25000
4494443;-0.24000
4497221;-0.25000
4499999;-0.24500
4502777;-0.27000
4505554;-0.26000
4508332;-0.24500
4511110;-0.24500
4513888;-0.25000
4516665;-0.25500
4519443;-0.26000
4522221;-0.25000
4524999;-0.25000
4527777;-0.24000
4530554;-0.24500
4533332;-0.25000
4536110;-0.25500
4538888;-0.25500
4541665;-0.23500
4544443;-0.23500
4547221;-0.24500
4549999;-0.24500
4552777;-0.25000
4555554;-0.24500
4558332;-0.23000
4561110;-0.22500
4563888;-0.23500
4566665;-0.24500
4569443;-0.25500
4572221;-0.24500
4574999;-0.22500
4577776;-0.22000
4580554;-0.21500
4583332;-0.21500
4586110;-0.20000
4588888;-0.21000
4591665;-0.18000
4594443;-0.17500
4597221;-0.16500
4599999;-0.17500
4602776;-0.17000
4605554;-0.15500
4608332;-0.15000
4611110;-0.14000
4613888;-0.13500
4616665;-0.14000
4619443;-0.13000
4622221;-0.12500
4624999;-0.12000
4627776;-0.11000
4630554;-0.11500
4633332;-0.13000
4636110;-0.15500
4638888;-0.16000
4641665;-0.13500
4644443;-0.11500
4647221;-0.12000
4649999;-0.13000
4652776;-0.13000
4655554;-0.12000
4658332;-0.09500
4661110;-0.09500
4663888;-0.13000
4666665;-0.16500
4669443;-0.19000
4672221;-0.19000
4674999;-0.20500
4677776;-0.21500
4680554;-0.24000
4683332;-0.25000
4686110;-0.26500
4688888;-0.26000
4691665;-0.25500
4694443;-0.23000
4697221;-0.24000
4699999;-0.24500
4702776;-0.28000
4705554;-0.27000
4708332;-0.26000
4711110;-0.27000
4713888;-0.27000
4716665;-0.27500
4719443;-0.28500
4722221;-0.27500
4724999;-0.26500
4727776;-0.26000
4730554;-0.26500
4733332;-0.26500
4736110;-0.28500
4738888;-0.28000
4741665;-0.27000
4744443;-0.25500
4747221;-0.26500
4749999;-0.27500
4752776;-0.30500
4755554;-0.31500
4758332;-0.35500
4761110;-0.39000
4763888;-0.41000
4766665;-0.44500
4769443;-0.48000
4772221;-0.45500
4774999;-0.33500
4777776;-0.18000
4780554;-0.00500
4783332;0.17500
4786110;0.41000
4788888;0.70500
4791665;0.94500
4794443;1.09000
4797221;1.08000
4799999;0.85000
4802776;0.42000
4805554;-0.03500
4808332;-0.31500
4811110;-0.40500
4813888;-0.37500
4816665;-0.32000
4819443;-0.31000
4822221;-0.31000
4824999;-0.30500
4827776;-0.30500
4830554;-0.31000
4833332;-0.31500
4836110;-0.32000
4838888;-0.32500
4841665;-0.32000
4844443;-0.31500
4847221;-0.32000
4849999;-0.32500
4852776;-0.35000
4855554;-0.34000
4858332;-0.33500
4861110;-0.32000
4863888;-0.32500
4866665;-0.33500
4869443;-0.35000
4872221;-0.34000
4874999;-0.34000
4877776;-0.32500
4880554;-0.34000
4883332;-0.34000
4886110;-0.34500
4888888;-0.34000
4891665;-0.33000
4894443;-0.33500
4897221;-0.33000
4899999;-0.34500
4902776;-0.34500
4905554;-0.34000
4908332;-0.33000
4911110;-0.33000
4913888;-0.34000
4916665;-0.34000
4919443;-0.34500
4922221;-0.33500
4924999;-0.34000
4927776;-0.34000
4930554;-0.32500
4933332;-0.33500
4936110;-0.34500
4938888;-0.34500
4941665;-0.34000
4944443;-0.33000
4947221;-0.33000
4949999;-0.33500
4952776;-0.35000
4955554;-0.34000
4958332;-0.34000
4961110;-0.32500
4963887;-0.33000
4966665;-0.34500
4969443;-0.34500
4972221;-0.35500
4974999;-0.33500
4977776;-0.32500
4980554;-0.33000
4983332;-0.35000
4986110;-0.35000
4988887;-0.35500
4991665;-0.34000
4994443;-0.33000
4997221;-0.33000
4999999;-0.35000
5002776;-0.35500
5005554;-0.35000
5008332;-0.34000
5011110;-0.32500
5013887;-0.33000
5016665;-0.34000
5019443;-0.34500
5022221;-0.36000
5024999;-0.34500
5027776;-0.33500
5030554;-0.34000
5033332;-0.35000
5036110;-0.37500
5038887;-0.37000
5041665;-0.34500
5044443;-0.33500
5047221;-0.33500
5049999;-0.35000
5052776;-0.36000
5055554;-0.34000
5058332;-0.33000
5061110;-0.32500
5063887;-0.32500
5066665;-0.32000
5069443;-0.33500
5072221;-0.34500
5074999;-0.33000
5077776;-0.31000
5080554;-0.30500
5083332;-0.31500
5086110;-0.31000
5088887;-0.30500
5091665;-0.28500
5094443;-0.27500
5097221;-0.26000
5099999;-0.26500
5102776;-0.26500
5105554;-0.26000
5108332;-0.23500
5111110;-0.23000
5113887;-0.21500
5116665;-0.22500
5119443;-0.22500
5122221;-0.23000
5124999;-0.22000
5127776;-0.22000
5130554;-0.21000
5133332;-0.22500
5136110;-0.24000
5138887;-0.22500
5141665;-0.22000
5144443;-0.21000
5147221;-0.22000
5149999;-0.22500
5152776;-0.22500
5155554;-0.23000
5158332;-0.22000
5161110;-0.20500
5163887;-0.21500
5166665;-0.21500
5169443;-0.24000
5172221;-0.23000
5174999;-0.23000
5177776;-0.22500
5180554;-0.22500
5183332;-0.22500
5186110;-0.23500
5188887;-0.22500
5191665;-0.22500
5194443;-0.21500
5197221;-0.22000
5199999;-0.23000
5202776;-0.24000
5205554;-0.23500
5208332;-0.24000
5211110;-0.22500
5213887;-0.23500
5216665;-0.23500
5219443;-0.25500
5222221;-0.24500
5224999;-0.24500
5227776;-0.23000
5230554;-0.24500
5233332;-0.25500
5236110;-0.27000
5238887;-0.26500
5241665;-0.27500
5244443;-0.27000
5247221;-0.26000
5249999;-0.27500
5252776;-0.29000
5255554;-0.27000
5258332;-0.27000
5261110;-0.26000
5263887;-0.27000
5266665;-0.28000
5269443;-0.29000
5272221;-0.27500
5274999;-0.27000
5277776;-0.26500
5280554;-0.27000
5283332;-0.28000
5286110;-0.29000
5288887;-0.28000
5291665;-0.27500
5294443;-0.27000
5297221;-0.27500
5299999;-0.28000
5302776;-0.29000
5305554;-0.28500
5308332;-0.27500
5311110;-0.27000
5313887;-0.26500
5316665;-0.27500
5319443;-0.28000
5322221;-0.27500
5324999;-0.27000
5327776;-0.26000
5330554;-0.27000
5333332;-0.27500
5336110;-0.29000
5338887;-0.28500
5341665;-0.28000
5344443;-0.28000
5347221;-0.26000
5349999;-0.26000
5352776;-0.27500
5355554;-0.27000
5358332;-0.24500
5361110;-0.23000
5363887;-0.22500
5366665;-0.23500
5369443;-0.23500
5372221;-0.22000
5374998;-0.20500
5377776;-0.19000
5380554;-0.19500
5383332;-0.19000
5386110;-0.19500
5388887;-0.18000
5391665;-0.17000
5394443;-0.15000
5397221;-0.14500
5399998;-0.15500
5402776;-0.16500
5405554;-0.16000
5408332;-0.17000
5411110;-0.17000
5413887;-0.17000
5416665;-0.16000
5419443;-0.17500
5422221;-0.16500
5424998;-0.15000
5427776;-0.13500
5430554;-0.11500
5433332;-0.14500
5436110;-0.18500
5438887;-0.21500
5441665;-0.22000
5444443;-0.22000
5447221;-0.21500
5449998;-0.24500
5452776;-0.27000
5455554;-0.26500
5458332;-0.27000
5461110;-0.28000
5463887;-0.29000
5466665;-0.29500
5469443;-0.30000
5472221;-0.30000
5474998;-0.28000
5477776;-0.28000
5480554;-0.29000
5483332;-0.30000
5486110;-0.31500
5488887;-0.30500
5491665;-0.30000
5494443;-0.29000
5497221;-0.30500
5499998;-0.31000
5502776;-0.31500
5505554;-0.31500
5508332;-0.31000
5511110;-0.29500
5513887;-0.30500
5516665;-0.31000
5519443;-0.33000
5522221;-0.31500
5524998;-0.31500
5527776;-0.30500
5530554;-0.32500
5533332;-0.37000
5536110;-0.42000
5538887;-0.45000
5541665;-0.46000
5544443;-0.48000
5547221;-0.50000
5549998;-0.46500
5552776;-0.35000
5555554;-0.18000
5558332;-0.01000
5561110;0.22000
5563887;0.48500
5566665;0.75500
5569443;0.93500
5572221;1.01000
5574998;0.93000
5577776;0.64500
5580554;0.20500
5583332;-0.19000
5586110;-0.41500
5588887;-0.47000
5591665;-0.42000
5594443;-0.36000
5597221;-0.34000
5599998;-0.34500
5602776;-0.37500
5605554;-0.36500
5608332;-0.35000
5611110;-0.35500
5613887;-0.36000
5616665;-0.37000
5619443;-0.38500
5622221;-0.36500
5624998;-0.36500
5627776;-0.36000
5630554;-0.36000
5633332;-0.37000
5636110;-0.37500
5638887;-0.36000
5641665;-0.35500
5644443;-0.35000
5647221;-0.35500
5649998;-0.37000
5652776;-0.38500
5655554;-0.38500
5658332;-0.37500
5661110;-0.36000
5663887;-0.36500
5666665;-0.37000
5669443;-0.37500
5672221;-0.38000
5674998;-0.38500
5677776;-0.36500
5680554;-0.37500
5683332;-0.37500
5686110;-0.39500
5688887;-0.39000
5691665;-0.37500
5694443;-0.37500
5697221;-0.36000
5699998;-0.38000
5702776;-0.38500
5705554;-0.38000
5708332;-0.37000
5711110;-0.36500
5713887;-0.36000
5716665;-0.37000
5719443;-0.38500
5722221;-0.38500
5724998;-0.37000
5727776;-0.36000
5730554;-0.36000
5733332;-0.36500
5736110;-0.37500
5738887;-0.37500
5741665;-0.37500
5744443;-0.36000
5747221;-0.36500
5749998;-0.36500
5752776;-0.38500
5755554;-0.38000
5758332;-0.37000
5761109;-0.36500
5763887;-0.37000
5766665;-0.37500
5769443;-0.38000
5772221;-0.37000
5774998;-0.37000
5777776;-0.35500
5780554;-0.36500
5783332;-0.37500
5786109;-0.40000
5788887;-0.38500
5791665;-0.37500
5794443;-0.36500
5797221;-0.38000
5799998;-0.38500
5802776;-0.38500
5805554;-0.38500
5808332;-0.38000
5811109;-0.38000
5813887;-0.36000
5816665;-0.38000
5819443;-0.37500
5822221;-0.37000
5824998;-0.37500
5827776;-0.36500
5830554;-0.37000
5833332;-0.37500
5836109;-0.38500
5838887;-0.38500
5841665;-0.38000
5844443;-0.36000
5847221;-0.36000
5849998;-0.37000
5852776;-0.36000
5855554;-0.35500
5858332;-0.34000
5861109;-0.32000
5863887;-0.33000
5866665;-0.32000
5869443;-0.32500
5872221;-0.30500
5874998;-0.29500
5877776;-0.27000
5880554;-0.26500
5883332;-0.27500
5886109;-0.27000
5888887;-0.26000
5891665;-0.25000
5894443;-0.24500
5897221;-0.25000
5899998;-0.24500
5902776;-0.26000
5905554;-0.26000
5908332;-0.25500
5911109;-0.24000
5913887;-0.24500
5916665;-0.25000
5919443;-0.26500
5922221;-0.25500
5924998;-0.24500
5927776;-0.23000
5930554;-0.24000
5933332;-0.25000
5936109;-0.26000
5938887;-0.27000
5941665;-0.26000
5944443;-0.24500
5947221;-0.24000
5949998;-0.25000
5952776;-0.26000
5955554;-0.26000
5958332;-0.25000
5961109;-0.25000
5963887;-0.26000
5966665;-0.26500
5969443;-0.28000
5972221;-0.27000
5974998;-0.27000
5977776;-0.26000
5980554;-0.25500
5983332;-0.26000
5986109;-0.27500
5988887;-0.27000
5991665;-0.26500
5994443;-0.27000
5997221;-0.27000
5999998;-0.28000
6002776;-0.28000
6005554;-0.27000
6008332;-0.26500
6011109;-0.24000
6013887;-0.25000
6016665;-0.26000
6019443;-0.24500
6022221;-0.25000
6024998;-0.24000
6027776;-0.22500
6030554;-0.21500
6033332;-0.21500
6036109;-0.22000
6038887;-0.20500
6041665;-0.20500
6044443;-0.20000
6047221;-0.19500
6049998;-0.19500
6052776;-0.21500
6055554;-0.21000
6058332;-0.20000
6061109;-0.16000
6063887;-0.15000
6066665;-0.17000
6069443;-0.19500
6072221;-0.21500
6074998;-0.20000
6077776;-0.20000
6080554;-0.22500
6083332;-0.24500
6086109;-0.27000
6088887;-0.28500
6091665;-0.27500
6094443;-0.26500
6097221;-0.27000
6099998;-0.29500
6102776;-0.31000
6105554;-0.30500
6108332;-0.30500
6111109;-0.29500
6113887;-0.29500
6116665;-0.32500
6119443;-0.31500
6122221;-0.31500
6124998;-0.31000
6127776;-0.30500
6130554;-0.30000
6133332;-0.30000
6136109;-0.31000
6138887;-0.31000
6141665;-0.31000
6144443;-0.30500
6147221;-0.30500
6149998;-0.32000
6152776;-0.33000
6155554;-0.33000
6158332;-0.31500
6161109;-0.30500
6163887;-0.30500
6166665;-0.31000
6169443;-0.32000
6172220;-0.34000
6174998;-0.36000
6177776;-0.39500
6180554;-0.42500
6183332;-0.45000
6186109;-0.50000
6188887;-0.52500
6191665;-0.48500
6194443;-0.38000
6197220;-0.22500
6199998;-0.06500
6202776;0.12500
6205554;0.40500
6208332;0.68000
6211109;0.89000
6213887;0.97500
6216665;0.88500
6219443;0.58000
6222220;0.13000
6224998;-0.24000
6227776;-0.42000
6230554;-0.43000
6233332;-0.39000
6236109;-0.35500
6238887;-0.34000
6241665;-0.34000
6244443;-0.33500
6247220;-0.32500
6249998;-0.34000
6252776;-0.34500
6255554;-0.33500
6258332;-0.32000
6261109;-0.33000
6263887;-0.33500
6266665;-0.34000
6269443;-0.35000
6272220;-0.35500
6274998;-0.34500
6277776;-0.33500
6280554;-0.34000
6283332;-0.36000
6286109;-0.37000
6288887;-0.37500
6291665;-0.36000
6294443;-0.35000
6297220;-0.34000
6299998;-0.36500
6302776;-0.38500
6305554;-0.37000
6308332;-0.37500
6311109;-0.35500
6313887;-0.35000
6316665;-0.36000
6319443;-0.37000
6322220;-0.38000
6324998;-0.36000
6327776;-0.36500
6330554;-0.36500
6333332;-0.37000
6336109;-0.37500
6338887;-0.38000
6341665;-0.37500
6344443;-0.36500
6347220;-0.37000
6349998;-0.38500
6352776;-0.38500
6355554;-0.37500
6358332;-0.37500
6361109;-0.36500
6363887;-0.37500
6366665;-0.38000
6369443;-0.39500
6372220;-0.38500
6374998;-0.38000
6377776;-0.38000
6380554;-0.37500
6383332;-0.38500
6386109;-0.39500
6388887;-0.39500
6391665;-0.38500
6394443;-0.36500
6397220;-0.37500
6399998;-0.37500
6402776;-0.39000
6405554;-0.38000
6408332;-0.38000
6411109;-0.37500
6413887;-0.37000
6416665;-0.38000
6419443;-0.40000
6422220;-0.39500
6424998;-0.39000
6427776;-0.39000
6430554;-0.39500
6433332;-0.41500
6436109;-0.42500
6438887;-0.41500
6441665;-0.41000
6444443;-0.39500
6447220;-0.40500
6449998;-0.40000
6452776;-0.41000
6455554;-0.40000
6458332;-0.40500
6461109;-0.39000
6463887;-0.39500
6466665;-0.41000
6469443;-0.40000
6472220;-0.39500
6474998;-0.38500
6477776;-0.38000
6480554;-0.37000
6483332;-0.37500
6486109;-0.37000
6488887;-0.35000
6491665;-0.34000
6494443;-0.31000
6497220;-0.30500
6499998;-0.31000
6502776;-0.32000
6505554;-0.31500
6508332;-0.29500
6511109;-0.30000
6513887;-0.29500
6516665;-0.30000
6519443;-0.30500
6522220;-0.29500
6524998;-0.28500
6527776;-0.28500
6530554;-0.28000
6533332;-0.27500
6536109;-0.29000
6538887;-0.28500
6541665;-0.28000
6544443;-0.28000
6547220;-0.28000
6549998;-0.29000
6552776;-0.29500
6555554;-0.30500
6558331;-0.30000
6561109;-0.29000
6563887;-0.27500
6566665;-0.30000
6569443;-0.30000
6572220;-0.30000
6574998;-0.29500
6577776;-0.29500
6580554;-0.30500
6583331;-0.31500
6586109;-0.30500
6588887;-0.30000
6591665;-0.29000
6594443;-0.28500
6597220;-0.30500
6599998;-0.32000
6602776;-0.33500
6605554;-0.32000
6608331;-0.31500
6611109;-0.31500
6613887;-0.31000
6616665;-0.31500
6619443;-0.34000
6622220;-0.34500
6624998;-0.33500
6627776;-0.32000
6630554;-0.33500
6633331;-0.33500
6636109;-0.34000
6638887;-0.35000
6641665;-0.34500
6644443;-0.33000
6647220;-0.33000
6649998;-0.34500
6652776;-0.33000
6655554;-0.33500
6658331;-0.33500
6661109;-0.34000
6663887;-0.33000
6666665;-0.33000
6669443;-0.35000
6672220;-0.34500
6674998;-0.34000
6677776;-0.32500
6680554;-0.33500
6683331;-0.34000
6686109;-0.36000
6688887;-0.37000
6691665;-0.35000
6694443;-0.35000
6697220;-0.33500
6699998;-0.36500
6702776;-0.36000
6705554;-0.34000
6708331;-0.33000
6711109;-0.32000
6713887;-0.32000
6716665;-0.34000
6719443;-0.33500
6722220;-0.35500
6724998;-0.34000
6727776;-0.32500
6730554;-0.34000
6733331;-0.34500
6736109;-0.36000
6738887;-0.35500
6741665;-0.34000
6744443;-0.33000
6747220;-0.35000
6749998;-0.35000
6752776;-0.36000
6755554;-0.34500
6758331;-0.33000
6761109;-0.32000
6763887;-0.34000
6766665;-0.33500
6769443;-0.34000
6772220;-0.33000
6774998;-0.32500
6777776;-0.31000
6780554;-0.32000
6783331;-0.33000
6786109;-0.35500
6788887;-0.35000
6791665;-0.35000
6794443;-0.34500
6797220;-0.32500
6799998;-0.34500
6802776;-0.35500
6805554;-0.34500
6808331;-0.32500
6811109;-0.32000
6813887;-0.32500
6816665;-0.35500
6819443;-0.35500
6822220;-0.34500
6824998;-0.34500
6827776;-0.32500
6830554;-0.32500
6833331;-0.33500
6836109;-0.33500
6838887;-0.34000
6841665;-0.33500
6844443;-0.33000
6847220;-0.34000
6849998;-0.34500
6852776;-0.35500
6855554;-0.34500
6858331;-0.34500
6861109;-0.33500
6863887;-0.33000
6866665;-0.33500
6869443;-0.36000
6872220;-0.34500
6874998;-0.33000
6877776;-0.31500
6880554;-0.29500
6883331;-0.29500
6886109;-0.31500
6888887;-0.31500
6891665;-0.29500
6894443;-0.28500
6897220;-0.28000
6899998;-0.27500
6902776;-0.30000
6905554;-0.26500
6908331;-0.24500
6911109;-0.23500
6913887;-0.23000
6916665;-0.25000
6919443;-0.26500
6922220;-0.25500
6924998;-0.24000
6927776;-0.24500
6930554;-0.22500
6933331;-0.24500
6936109;-0.26500
6938887;-0.26500
6941665;-0.26500
6944442;-0.24500
6947220;-0.23500
6949998;-0.24500
6952776;-0.25000
6955554;-0.24500
6958331;-0.22500
6961109;-0.22000
6963887;-0.25000
6966665;-0.28500
6969442;-0.31500
6972220;-0.33000
6974998;-0.33000
6977776;-0.34500
6980554;-0.34000
6983331;-0.35000
6986109;-0.37500
6988887;-0.38000
6991665;-0.36500
6994442;-0.36000
6997220;-0.36500
6999998;-0.38000
7002776;-0.39000
7005554;-0.37500
7008331;-0.37000
7011109;-0.37500
7013887;-0.38500
7016665;-0.39000
7019442;-0.41000
7022220;-0.40000
7024998;-0.38500
7027776;-0.36500
7030554;-0.36500
7033331;-0.38500
7036109;-0.38500
7038887;-0.39500
7041665;-0.38500
7044442;-0.40000
7047220;-0.43500
7049998;-0.48500
7052776;-0.52500
7055554;-0.51500
7058331;-0.49500
7061109;-0.49500
7063887;-0.51500
7066665;-0.56000
7069442;-0.60500
7072220;-0.59500
7074998;-0.54000
7077776;-0.41500
7080554;-0.27500
7083331;-0.10000
7086109;0.10000
7088887;0.37000
7091665;0.62000
7094442;0.82500
7097220;0.91000
7099998;0.79500
7102776;0.44500
7105554;0.01500
7108331;-0.30500
7111109;-0.48500
7113887;-0.52000
7116665;-0.50500
7119442;-0.48500
7122220;-0.45500
7124998;-0.43500
7127776;-0.42500
7130554;-0.43500
7133331;-0.45000
7136109;-0.46500
7138887;-0.44500
7141665;-0.44000
7144442;-0.44000
7147220;-0.45000
7149998;-0.45500
7152776;-0.46500
7155554;-0.46000
7158331;-0.45000
7161109;-0.45000
7163887;-0.44500
7166665;-0.45000
7169442;-0.47000
7172220;-0.46500
7174998;-0.45500
7177776;-0.44500
7180554;-0.44500
7183331;-0.46000
7186109;-0.46000
7188887;-0.46500
7191665;-0.45500
7194442;-0.46000
7197220;-0.45500
7199998;-0.45000
7202776;-0.46000
7205554;-0.45000
7208331;-0.45000
7211109;-0.45500
7213887;-0.45500
7216665;-0.46000
7219442;-0.47500
7222220;-0.47000
7224998;-0.46500
7227776;-0.46000
7230554;-0.45000
7233331;-0.46000
7236109;-0.46500
7238887;-0.46000
7241665;-0.44500
7244442;-0.45000
7247220;-0.45000
7249998;-0.45000
7252776;-0.49000
7255554;-0.47000
7258331;-0.46000
7261109;-0.44500
7263887;-0.45000
7266665;-0.45500
7269442;-0.48000
7272220;-0.47000
7274998;-0.46500
7277776;-0.45000
7280554;-0.45000
7283331;-0.47000
7286109;-0.46500
7288887;-0.46500
7291665;-0.46000
7294442;-0.46000
7297220;-0.46000
7299998;-0.47500
7302776;-0.47500
7305554;-0.47500
7308331;-0.47000
7311109;-0.46000
7313887;-0.46500
7316665;-0.47000
7319442;-0.49500
7322220;-0.49000
7324998;-0.48000
7327776;-0.47000
7330554;-0.48500
7333331;-0.50000
7336109;-0.50500
7338887;-0.50500
7341665;-0.49500
7344442;-0.49000
7347220;-0.49000
7349998;-0.50000
7352776;-0.50500
7355553;-0.51500
7358331;-0.50000
7361109;-0.48500
7363887;-0.48500
7366665;-0.48500
7369442;-0.47500
7372220;-0.47000
7374998;-0.44000
7377776;-0.42000
7380553;-0.40500
7383331;-0.40000
7386109;-0.39500
7388887;-0.39500
7391665;-0.36500
7394442;-0.35000
7397220;-0.33500
7399998;-0.32500
7402776;-0.33500
7405553;-0.32500
7408331;-0.31000
7411109;-0.30000
7413887;-0.29500
7416665;-0.31000
7419442;-0.31500
7422220;-0.30000
7424998;-0.29000
7427776;-0.27500
7430553;-0.30000
7433331;-0.30000
7436109;-0.31000
7438887;-0.30500
7441665;-0.29500
7444442;-0.28000
7447220;-0.28500
7449998;-0.28500
7452776;-0.29000
7455553;-0.29000
7458331;-0.28500
7461109;-0.27500
7463887;-0.28500
7466665;-0.29000
7469442;-0.31000
7472220;-0.30000
7474998;-0.29000
7477776;-0.28000
7480553;-0.29000
7483331;-0.29500
7486109;-0.30000
7488887;-0.30000
7491665;-0.29000
7494442;-0.28000
7497220;-0.28000
7499998;-0.29500
7502776;-0.30500
7505553;-0.29500
7508331;-0.30000
7511109;-0.29500
7513887;-0.30000
7516665;-0.30000
7519442;-0.31000
7522220;-0.31000
7524998;-0.31000
7527776;-0.30500
7530553;-0.30500
7533331;-0.31000
7536109;-0.32000
7538887;-0.31000
7541665;-0.31000
7544442;-0.31000
7547220;-0.29500
7549998;-0.31500
7552776;-0.33000
7555553;-0.32000
7558331;-0.31500
7561109;-0.31000
7563887;-0.31500
7566665;-0.31500
7569442;-0.33000
7572220;-0.33000
7574998;-0.33000
7577776;-0.32000
7580553;-0.31500
7583331;-0.33500
7586109;-0.34000
7588887;-0.33500
7591665;-0.32000
7594442;-0.32000
7597220;-0.32000
7599998;-0.32500
7602776;-0.34500
7605553;-0.34000
7608331;-0.32500
7611109;-0.32500
7613887;-0.34000
7616665;-0.33500
7619442;-0.34000
7622220;-0.34000
7624998;-0.33500
7627776;-0.32500
7630553;-0.32500
7633331;-0.33500
7636109;-0.33000
7638887;-0.34000
7641665;-0.33000
7644442;-0.32500
7647220;-0.33000
7649998;-0.32500
7652776;-0.34000
7655553;-0.33000
7658331;-0.32000
7661109;-0.32000
7663887;-0.31500
7666665;-0.32000
7669442;-0.33500
7672220;-0.32500
7674998;-0.30000
7677776;-0.28500
7680553;-0.29000
7683331;-0.29500
7686109;-0.29500
7688887;-0.28000
7691665;-0.27000
7694442;-0.24500
7697220;-0.23500
7699998;-0.25000
7702776;-0.25500
7705553;-0.24500
7708331;-0.22500
7711109;-0.20500
7713887;-0.20000
7716665;-0.21000
7719442;-0.22000
7722220;-0.21000
7724998;-0.21500
7727776;-0.20500
7730553;-0.22000
7733331;-0.22500
7736109;-0.22500
7738887;-0.23000
7741664;-0.21500
7744442;-0.21000
7747220;-0.21000
7749998;-0.21500
7752776;-0.23000
7755553;-0.21000
7758331;-0.18500
7761109;-0.16500
7763887;-0.17000
7766664;-0.21000
7769442;-0.25500
7772220;-0.28000
7774998;-0.27500
7777776;-0.28000
7780553;-0.29500
7783331;-0.30500
7786109;-0.33500
7788887;-0.33500
7791664;-0.34500
7794442;-0.33000
7797220;-0.34000
7799998;-0.34000
7802776;-0.35000
7805553;-0.35500
7808331;-0.35000
7811109;-0.35500
7813887;-0.35000
7816664;-0.35500
7819442;-0.37500
7822220;-0.37000
7824998;-0.35000
7827776;-0.36000
7830553;-0.35000
7833331;-0.36000
7836109;-0.36500
7838887;-0.36500
7841664;-0.36000
7844442;-0.35000
7847220;-0.36000
7849998;-0.37500
7852776;-0.39500
7855553;-0.43500
7858331;-0.46500
7861109;-0.49000
7863887;-0.50500
7866664;-0.54000
7869442;-0.55000
7872220;-0.46500
7874998;-0.29500
7877776;-0.11500
7880553;0.06000
7883331;0.29500
7886109;0.55000
7888887;0.81500
7891664;0.99000
7894442;1.04000
7897220;0.90000
7899998;0.54000
7902776;0.07500
7905553;-0.32500
7908331;-0.49500
7911109;-0.49000
7913887;-0.42500
7916664;-0.39500
7919442;-0.38500
7922220;-0.38500
7924998;-0.38500
7927776;-0.38500
7930553;-0.38500
7933331;-0.39000
7936109;-0.40000
7938887;-0.39000
7941664;-0.38000
7944442;-0.38000
7947220;-0.39000
7949998;-0.39500
7952776;-0.41000
7955553;-0.41000
7958331;-0.39500
7961109;-0.38500
7963887;-0.39000
7966664;-0.40500
7969442;-0.42500
7972220;-0.41500
7974998;-0.41000
7977776;-0.39500
7980553;-0.40500
7983331;-0.41500
7986109;-0.42000
7988887;-0.42000
7991664;-0.42500
7994442;-0.40000
7997220;-0.40000
7999998;-0.41000
8002776;-0.42500
8005553;-0.41500
8008331;-0.40500
8011109;-0.40000
8013887;-0.40500
8016664;-0.41000
8019442;-0.41500
8022220;-0.41000
8024998;-0.40500
8027776;-0.41000
8030553;-0.40500
8033331;-0.41500
8036109;-0.42500
8038887;-0.42000
8041664;-0.40000
8044442;-0.40000
8047220;-0.40000
8049998;-0.40500
8052776;-0.42500
8055553;-0.42000
8058331;-0.40500
8061109;-0.40500
8063887;-0.40500
8066664;-0.41000
8069442;-0.41500
8072220;-0.41500
8074998;-0.40500
8077776;-0.41500
8080553;-0.40000
8083331;-0.41500
8086109;-0.42000
8088887;-0.42000
8091664;-0.40500
8094442;-0.40500
8097220;-0.40000
8099998;-0.41000
8102776;-0.42000
8105553;-0.41500
8108331;-0.41000
8111109;-0.40000
8113887;-0.41000
8116664;-0.41000
8119442;-0.43000
8122220;-0.42000
8124998;-0.41000
8127776;-0.40500
8130553;-0.40500
8133331;-0.42500
8136109;-0.44000
8138887;-0.42500
8141664;-0.42500
8144442;-0.41000
8147220;-0.41500
8149998;-0.40500
8152775;-0.41000
8155553;-0.41500
8158331;-0.40500
8161109;-0.40000
8163887;-0.40000
8166664;-0.40500
8169442;-0.42000
8172220;-0.41000
8174998;-0.39500
8177775;-0.37500
8180553;-0.39000
8183331;-0.39000
8186109;-0.38500
8188887;-0.38000
8191664;-0.36000
8194442;-0.34500
8197220;-0.34000
8199998;-0.33000
8202775;-0.34000
8205553;-0.32500
8208331;-0.31000
8211109;-0.29000
8213887;-0.29000
8216664;-0.28500
8219442;-0.30000
8222220;-0.29000
8224998;-0.28000
8227775;-0.28000
8230553;-0.28000
8233331;-0.28000
8236109;-0.29500
8238887;-0.28500
8241664;-0.26500
8244442;-0.27000
8247220;-0.27500
8249998;-0.27500
8252775;-0.28500
8255553;-0.28500
8258331;-0.29000
8261109;-0.27500
8263887;-0.28000
8266664;-0.28000
8269442;-0.29500
8272220;-0.29500
8274998;-0.29000
8277775;-0.27500
8280553;-0.27500
8283331;-0.29000
8286109;-0.29000
8288887;-0.30000
8291664;-0.29000
8294442;-0.27000
8297220;-0.28500
8299998;-0.30000
8302775;-0.30500
8305553;-0.31000
8308331;-0.29500
8311109;-0.30000
8313887;-0.29500
8316664;-0.30000
8319442;-0.31000
8322220;-0.31000
8324998;-0.30500
8327775;-0.30000
8330553;-0.30000
8333331;-0.31500
8336109;-0.32000
8338887;-0.32000
8341664;-0.31000
8344442;-0.31000
8347220;-0.32500
8349998;-0.31500
8352775;-0.33000
8355553;-0.32500
8358331;-0.32500
8361109;-0.31500
8363887;-0.31500
8366664;-0.33000
8369442;-0.34000
8372220;-0.32000
8374998;-0.33000
8377775;-0.32000
8380553;-0.33500
8383331;-0.33500
8386109;-0.34500
8388887;-0.33000
8391664;-0.33000
8394442;-0.32000
8397220;-0.32000
8399998;-0.34500
8402775;-0.35000
8405553;-0.34500
8408331;-0.33000
8411109;-0.32000
8413887;-0.32000
8416664;-0.33500
8419442;-0.34500
8422220;-0.34000
8424998;-0.31500
8427775;-0.30500
8430553;-0.29000
8433331;-0.28000
8436109;-0.29500
8438887;-0.28500
8441664;-0.27000
8444442;-0.25500
8447220;-0.24000
8449998;-0.25000
8452775;-0.26000
8455553;-0.25500
8458331;-0.23000
8461109;-0.22500
8463887;-0.21500
8466664;-0.22000
8469442;-0.21500
8472220;-0.20500
8474998;-0.21500
8477775;-0.20000
8480553;-0.20500
8483331;-0.22000
8486109;-0.24000
8488887;-0.23000
8491664;-0.22000
8494442;-0.20000
8497220;-0.21500
8499998;-0.21000
8502775;-0.20000
8505553;-0.18000
8508331;-0.17500
8511109;-0.18500
8513887;-0.22500
8516664;-0.25000
8519442;-0.27500
8522220;-0.27500
8524998;-0.28000
8527775;-0.28500
8530553;-0.30500
8533331;-0.32000
8536109;-0.34000
8538886;-0.33500
8541664;-0.33500
8544442;-0.33000
8547220;-0.32000
8549998;-0.33000
8552775;-0.33000
8555553;-0.33500
8558331;-0.33000
8561109;-0.32000
8563886;-0.33500
8566664;-0.34500
8569442;-0.35000
8572220;-0.35000
8574998;-0.34000
8577775;-0.33500
8580553;-0.33500
8583331;-0.34500
8586109;-0.35500
8588886;-0.35500
8591664;-0.35000
8594442;-0.34000
8597220;-0.33500
8599998;-0.35500
8602775;-0.35000
8605553;-0.36000
8608331;-0.35500
8611109;-0.35000
8613886;-0.36500
8616664;-0.40500
8619442;-0.44000
8622220;-0.46500
8624998;-0.47000
8627775;-0.48500
8630553;-0.52500
8633331;-0.52000
8636109;-0.46500
8638886;-0.33500
8641664;-0.17000
8644442;0.00000
8647220;0.19500
8649998;0.44000
8652775;0.69000
8655553;0.89000
8658331;0.98500
8661109;0.98000
8663886;0.75000
8666664;0.35500
8669442;-0.07000
8672220;-0.37000
8674998;-0.49000
8677775;-0.47000
8680553;-0.42000
8683331;-0.39500
8686109;-0.38500
8688886;-0.40500
8691664;-0.39500
8694442;-0.38500
8697220;-0.38000
8699998;-0.39000
8702775;-0.41000
8705553;-0.40500
8708331;-0.40000
8711109;-0.39500
8713886;-0.40000
8716664;-0.41500
8719442;-0.42500
8722220;-0.40500
8724998;-0.39500
8727775;-0.39500
8730553;-0.40000
8733331;-0.42000
8736109;-0.42000
8738886;-0.41500
8741664;-0.41000
8744442;-0.40500
8747220;-0.40000
8749998;-0.41000
8752775;-0.41000
8755553;-0.41500
8758331;-0.40500
8761109;-0.40500
8763886;-0.41500
8766664;-0.41000
8769442;-0.41000
8772220;-0.42000
8774998;-0.41000
8777775;-0.39500
8780553;-0.40500
8783331;-0.41500
8786109;-0.42500
8788886;-0.42500
8791664;-0.41500
8794442;-0.41000
8797220;-0.40000
8799998;-0.41500
8802775;-0.43000
8805553;-0.42000
8808331;-0.40500
8811109;-0.41500
8813886;-0.42000
8816664;-0.41500
8819442;-0.42000
8822220;-0.42500
8824998;-0.43000
8827775;-0.41500
8830553;-0.41500
8833331;-0.42000
8836109;-0.43000
8838886;-0.42500
8841664;-0.41000
8844442;-0.41000
8847220;-0.41000
8849998;-0.41000
8852775;-0.42000
8855553;-0.42000
8858331;-0.40500
8861109;-0.40000
8863886;-0.41000
8866664;-0.41500
8869442;-0.42000
8872220;-0.42000
8874998;-0.41500
8877775;-0.40500
8880553;-0.40500
8883331;-0.42000
8886109;-0.43500
8888886;-0.42000
8891664;-0.41500
8894442;-0.41500
8897220;-0.41500
8899998;-0.41500
8902775;-0.42500
8905553;-0.43000
8908331;-0.42500
8911109;-0.41000
8913886;-0.42000
8916664;-0.42500
8919442;-0.42500
8922220;-0.43500
8924998;-0.41500
8927775;-0.39500
8930553;-0.40000
8933331;-0.41500
8936109;-0.41500
8938886;-0.41000
8941664;-0.40000
8944442;-0.38000
8947220;-0.38500
8949997;-0.39000
8952775;-0.38500
8955553;-0.37000
8958331;-0.35500
8961109;-0.34000
8963886;-0.32500
8966664;-0.32000
8969442;-0.32000
8972220;-0.33000
8974997;-0.31000
8977775;-0.29500
8980553;-0.29500
8983331;-0.29000
8986109;-0.30000
8988886;-0.31000
8991664;-0.28500
8994442;-0.27500
8997220;-0.28000
8999997;-0.27500
9002775;-0.29500
9005553;-0.30000
9008331;-0.28500
9011109;-0.28500
9013886;-0.27500
9016664;-0.28500
9019442;-0.28500
9022220;-0.28500
9024997;-0.27500
9027775;-0.28500
9030553;-0.28500
9033331;-0.30000
9036109;-0.30500
9038886;-0.30000
9041664;-0.29000
9044442;-0.28000
9047220;-0.28500
9049997;-0.29500
9052775;-0.29500
9055553;-0.29500
9058331;-0.31000
9061109;-0.29000
9063886;-0.30500
9066664;-0.31000
9069442;-0.31500
9072220;-0.31500
9074997;-0.31500
9077775;-0.30000
9080553;-0.30500
9083331;-0.31500
9086109;-0.33000
9088886;-0.33500
9091664;-0.32000
9094442;-0.32000
9097220;-0.32000
9099997;-0.32000
9102775;-0.34000
9105553;-0.34500
9108331;-0.32000
9111109;-0.32500
9113886;-0.32500
9116664;-0.33500
9119442;-0.35000
9122220;-0.35000
9124997;-0.33000
9127775;-0.33000
9130553;-0.33500
9133331;-0.34000
9136109;-0.35000
9138886;-0.36000
9141664;-0.34000
9144442;-0.33000
9147220;-0.33000
9149997;-0.34500
9152775;-0.34500
9155553;-0.35500
9158331;-0.34500
9161109;-0.33500
9163886;-0.35000
9166664;-0.34000
9169442;-0.35500
9172220;-0.36500
9174997;-0.34000
9177775;-0.32500
9180553;-0.33500
9183331;-0.35000
9186109;-0.35000
9188886;-0.35000
9191664;-0.34500
9194442;-0.33000
9197220;-0.32500
9199997;-0.34000
9202775;-0.34500
9205553;-0.33500
9208331;-0.32500
9211109;-0.32000
9213886;-0.32500
9216664;-0.33000
9219442;-0.33000
9222220;-0.34000
9224997;-0.32500
9227775;-0.31000
9230553;-0.30500
9233331;-0.31000
9236109;-0.30500
9238886;-0.31000
9241664;-0.29000
9244442;-0.27500
9247220;-0.27000
9249997;-0.26500
9252775;-0.28000
9255553;-0.27500
9258331;-0.25000
9261109;-0.24500
9263886;-0.24500
9266664;-0.23000
9269442;-0.23500
9272220;-0.23500
9274997;-0.21500
9277775;-0.20500
9280553;-0.22000
9283331;-0.23000
9286109;-0.24500
9288886;-0.24500
9291664;-0.24000
9294442;-0.21500
9297220;-0.23000
9299997;-0.23500
9302775;-0.22500
9305553;-0.21500
9308331;-0.19000
9311109;-0.17500
9313886;-0.22000
9316664;-0.24500
9319442;-0.27500
9322220;-0.29500
9324997;-0.29000
9327775;-0.29500
9330553;-0.30500
9333331;-0.32500
9336108;-0.34500
9338886;-0.35500
9341664;-0.34500
9344442;-0.33500
9347220;-0.33500
9349997;-0.35000
9352775;-0.36000
9355553;-0.36500
9358331;-0.36000
9361108;-0.34500
9363886;-0.35000
9366664;-0.36000
9369442;-0.36500
9372220;-0.36500
9374997;-0.35500
9377775;-0.35000
9380553;-0.35500
9383331;-0.36500
9386108;-0.37000
9388886;-0.37500
9391664;-0.36000
9394442;-0.35500
9397220;-0.37000
9399997;-0.36500
9402775;-0.37500
9405553;-0.38000
9408331;-0.38000
9411108;-0.39000
9413886;-0.42000
9416664;-0.45500
9419442;-0.49000
9422220;-0.51000
9424997;-0.53000
9427775;-0.54000
9430553;-0.53000
9433331;-0.48000
9436108;-0.35000
9438886;-0.19500
9441664;-0.03000
9444442;0.15500
9447220;0.40500
9449997;0.66000
9452775;0.82500
9455553;0.90500
9458331;0.84000
9461108;0.60000
9463886;0.19000
9466664;-0.19000
9469442;-0.43500
9472220;-0.51500
9474997;-0.47500
9477775;-0.40500
9480553;-0.38000
9483331;-0.38500
9486108;-0.40000
9488886;-0.40500
9491664;-0.38500
9494442;-0.38000
9497220;-0.38500
9499997;-0.39500
9502775;-0.40000
9505553;-0.41000
9508331;-0.39000
9511108;-0.38500
9513886;-0.39000
9516664;-0.38500
9519442;-0.40000
9522220;-0.40000
9524997;-0.40000
9527775;-0.39000
9530553;-0.39500
9533331;-0.40000
9536108;-0.40000
9538886;-0.41500
9541664;-0.41000
9544442;-0.39000
9547220;-0.39500
9549997;-0.40000
9552775;-0.41500
9555553;-0.41500
9558331;-0.40000
9561108;-0.39500
9563886;-0.40000
9566664;-0.41000
9569442;-0.42500
9572220;-0.41500
9574997;-0.41000
9577775;-0.41000
9580553;-0.41500
9583331;-0.41000
9586108;-0.41500
9588886;-0.42000
9591664;-0.41000
9594442;-0.39000
9597220;-0.40000
9599997;-0.41000
9602775;-0.42000
9605553;-0.42500
9608331;-0.41500
9611108;-0.41000
9613886;-0.41500
9616664;-0.42000
9619442;-0.42500
9622220;-0.42000
9624997;-0.42000
9627775;-0.40500
9630553;-0.40000
9633331;-0.41000
9636108;-0.41500
9638886;-0.41000
9641664;-0.40500
9644442;-0.40500
9647220;-0.40500
9649997;-0.41000
9652775;-0.42500
9655553;-0.42000
9658331;-0.41500
9661108;-0.41000
9663886;-0.40500
9666664;-0.41000
9669442;-0.42000
9672220;-0.41500
9674997;-0.41500
9677775;-0.40500
9680553;-0.39500
9683331;-0.41000
9686108;-0.41000
9688886;-0.42000
9691664;-0.41500
9694442;-0.40500
9697220;-0.40500
9699997;-0.42000
9702775;-0.43000
9705553;-0.42000
9708331;-0.42000
9711108;-0.41000
9713886;-0.41000
9716664;-0.41000
9719442;-0.41500
9722220;-0.40500
9724997;-0.40000
9727775;-0.39500
9730553;-0.39500
9733331;-0.41000
9736108;-0.42500
9738886;-0.42500
9741664;-0.41000
9744442;-0.40500
9747219;-0.41000
9749997;-0.40500
9752775;-0.41000
9755553;-0.41000
9758331;-0.40500
9761108;-0.37500
9763886;-0.38500
9766664;-0.38000
9769442;-0.38000
9772219;-0.37000
9774997;-0.35000
9777775;-0.33000
9780553;-0.33500
9783331;-0.32500
9786108;-0.33500
9788886;-0.33500
9791664;-0.32000
9794442;-0.31000
9797219;-0.30500
9799997;-0.31500
9802775;-0.31500
9805553;-0.32000
9808331;-0.32000
9811108;-0.31000
9813886;-0.31000
9816664;-0.30500
9819442;-0.30500
9822219;-0.32500
9824997;-0.32000
9827775;-0.31000
9830553;-0.31000
9833331;-0.32000
9836108;-0.32500
9838886;-0.32000
9841664;-0.32000
9844442;-0.31500
9847219;-0.31500
9849997;-0.32500
9852775;-0.34000
9855553;-0.32500
9858331;-0.31500
9861108;-0.32000
9863886;-0.31500
9866664;-0.32000
9869442;-0.33500
9872219;-0.34500
9874997;-0.33000
9877775;-0.32500
9880553;-0.33000
9883331;-0.32500
9886108;-0.34000
9888886;-0.35500
9891664;-0.36000
9894442;-0.34000
9897219;-0.34500
9899997;-0.33500
9902775;-0.34500
9905553;-0.34500
9908331;-0.34500
9911108;-0.35000
9913886;-0.34500
9916664;-0.36000
9919442;-0.37000
9922219;-0.37000
9924997;-0.37000
9927775;-0.35000
9930553;-0.37500
9933331;-0.38000
9936108;-0.38000
9938886;-0.38500
9941664;-0.37000
9944442;-0.35000
9947219;-0.36000
9949997;-0.36000
9952775;-0.37000
9955553;-0.37000
9958331;-0.36000
9961108;-0.36000
9963886;-0.36500
9966664;-0.36500
9969442;-0.37000
9972219;-0.38000
9974997;-0.36500
9977775;-0.36000
9980553;-0.37000
9983331;-0.37500
9986108;-0.38000
9988886;-0.37500
9991664;-0.36000
9994442;-0.35500
9997219;-0.37000
9999997;-0.37000
10002775;-0.36500
10005553;-0.38500
10008331;-0.36000
10011108;-0.36000
10013886;-0.36000
10016664;-0.36000
10019442;-0.36500
10022219;-0.37500
10024997;-0.36500
10027775;-0.37000
10030553;-0.36000
10033331;-0.37000
10036108;-0.38500
10038886;-0.37500
10041664;-0.36000
10044442;-0.35500
10047219;-0.36500
10049997;-0.38000
10052775;-0.37500
10055553;-0.37500
10058331;-0.37000
10061108;-0.35000
10063886;-0.34000
10066664;-0.34500
10069442;-0.35500
10072219;-0.35500
10074997;-0.33500
10077775;-0.31000
10080553;-0.31000
10083331;-0.31000
10086108;-0.32500
10088886;-0.31500
10091664;-0.31000
10094442;-0.28000
10097219;-0.29000
10099997;-0.28000
10102775;-0.28500
10105553;-0.28000
10108331;-0.27000
10111108;-0.25500
10113886;-0.24000
10116664;-0.24000
10119442;-0.24500
10122219;-0.25500
10124997;-0.26000
10127775;-0.25000
10130553;-0.26000
10133330;-0.27000
10136108;-0.27500
10138886;-0.27000
10141664;-0.25500
10144442;-0.24000
10147219;-0.24000
10149997;-0.23000
10152775;-0.24500
10155553;-0.27500
10158330;-0.28500
10161108;-0.30500
10163886;-0.30000
10166664;-0.32000
10169442;-0.36000
10172219;-0.37500
10174997;-0.37000
10177775;-0.36500
10180553;-0.37500
10183330;-0.40000
10186108;-0.39000
10188886;-0.40000
10191664;-0.39000
10194442;-0.37500
10197219;-0.37500
10199997;-0.38000
10202775;-0.39000
10205553;-0.40500
10208330;-0.39500
10211108;-0.39500
10213886;-0.39500
10216664;-0.40000
10219442;-0.39500
10222219;-0.40500
10224997;-0.39000
10227775;-0.40000
10230553;-0.41000
10233330;-0.41000
10236108;-0.41500
10238886;-0.41500
10241664;-0.40500
10244442;-0.39500
10247219;-0.40000
10249997;-0.41000
10252775;-0.42000
10255553;-0.45000
10258330;-0.47500
10261108;-0.48500
10263886;-0.51000
10266664;-0.52500
10269442;-0.56500
10272219;-0.60000
10274997;-0.60000
10277775;-0.52000
10280553;-0.41500
10283330;-0.28500
10286108;-0.15500
10288886;0.04500
10291664;0.30000
10294442;0.54500
10297219;0.73500
10299997;0.85500
10302775;0.87000
10305553;0.74500
10308330;0.50500
10311108;0.23000
10313886;-0.05000
10316664;-0.24500
10319442;-0.39000
10322219;-0.48500
10324997;-0.54500
10327775;-0.58000
10330553;-0.58500
10333330;-0.56000
10336108;-0.51000
10338886;-0.48500
10341664;-0.46000
10344442;-0.45000
10347219;-0.45500
10349997;-0.46500
10352775;-0.45500
10355553;-0.46000
10358330;-0.43500
10361108;-0.43000
10363886;-0.44000
10366664;-0.45500
10369442;-0.46000
10372219;-0.46000
10374997;-0.46000
10377775;-0.44500
10380553;-0.46000
10383330;-0.47000
10386108;-0.47000
10388886;-0.46500
10391664;-0.45000
10394442;-0.44500
10397219;-0.44000
10399997;-0.45500
10402775;-0.46500
10405553;-0.47000
10408330;-0.46000
10411108;-0.44000
10413886;-0.44500
10416664;-0.45500
10419442;-0.45000
10422219;-0.46500
10424997;-0.45000
10427775;-0.43500
10430553;-0.45000
10433330;-0.45500
10436108;-0.47500
10438886;-0.49500
10441664;-0.48000
10444442;-0.46000
10447219;-0.45500
10449997;-0.46000
10452775;-0.46500
10455553;-0.46000
10458330;-0.45500
10461108;-0.44000
10463886;-0.45000
10466664;-0.45000
10469442;-0.45500
10472219;-0.46000
10474997;-0.45000
10477775;-0.44500
10480553;-0.46000
10483330;-0.47000
10486108;-0.48500
10488886;-0.48500
10491664;-0.46500
10494442;-0.45500
10497219;-0.45500
10499997;-0.46500
10502775;-0.47000
10505553;-0.48000
10508330;-0.46500
10511108;-0.45500
10513886;-0.44500
10516664;-0.46000
10519441;-0.47000
10522219;-0.47500
10524997;-0.47500
10527775;-0.46500
10530553;-0.46000
10533330;-0.46000
10536108;-0.47000
10538886;-0.47500
10541664;-0.48500
10544441;-0.47000
10547219;-0.47500
10549997;-0.48000
10552775;-0.48000
10555553;-0.49500
10558330;-0.50000
10561108;-0.50500
10563886;-0.50500
10566664;-0.50500
10569441;-0.50000
10572219;-0.52000
10574997;-0.52000
10577775;-0.51000
10580553;-0.51000
10583330;-0.52000
10586108;-0.52000
10588886;-0.51000
10591664;-0.49500
10594441;-0.48000
10597219;-0.46500
10599997;-0.48500
10602775;-0.50000
10605553;-0.48500
10608330;-0.47500
10611108;-0.46500
10613886;-0.46000
10616664;-0.47000
10619441;-0.47500
10622219;-0.46000
10624997;-0.44000
10627775;-0.41500
10630553;-0.39500
10633330;-0.39000
10636108;-0.39500
10638886;-0.39000
10641664;-0.38000
10644441;-0.36500
10647219;-0.35500
10649997;-0.35500
10652775;-0.35500
10655553;-0.34500
10658330;-0.32500
10661108;-0.31000
10663886;-0.33000
10666664;-0.34000
10669441;-0.36000
10672219;-0.36000
10674997;-0.35000
10677775;-0.33500
10680553;-0.33000
10683330;-0.34500
10686108;-0.36000
10688886;-0.36500
10691664;-0.35500
10694441;-0.34000
10697219;-0.33500
10699997;-0.32500
10702775;-0.34500
10705553;-0.33500
10708330;-0.34000
10711108;-0.33500
10713886;-0.34500
10716664;-0.35500
10719441;-0.36000
10722219;-0.36500
10724997;-0.35500
10727775;-0.34000
10730553;-0.34500
10733330;-0.36500
10736108;-0.37000
10738886;-0.38500
10741664;-0.37500
10744441;-0.36000
10747219;-0.35000
10749997;-0.35500
10752775;-0.36500
10755553;-0.36500
10758330;-0.36000
10761108;-0.35000
10763886;-0.36000
10766664;-0.37500
10769441;-0.38000
10772219;-0.38000
10774997;-0.38000
10777775;-0.38500
10780553;-0.38000
10783330;-0.39500
10786108;-0.39000
10788886;-0.40000
10791664;-0.40000
10794441;-0.39000
10797219;-0.39000
10799997;-0.39000
10802775;-0.39500
10805553;-0.40000
10808330;-0.39000
10811108;-0.37500
10813886;-0.38500
10816664;-0.39000
10819441;-0.39500
10822219;-0.40500
10824997;-0.39000
10827775;-0.37500
10830553;-0.38500
10833330;-0.38000
10836108;-0.41500
10838886;-0.40000
10841664;-0.38000
10844441;-0.37000
10847219;-0.37500
10849997;-0.38500
10852775;-0.38500
10855553;-0.39000
10858330;-0.38000
10861108;-0.37000
10863886;-0.37000
10866664;-0.37000
10869441;-0.38500
10872219;-0.38000
10874997;-0.38000
10877775;-0.36000
10880553;-0.37500
10883330;-0.38500
10886108;-0.38500
10888886;-0.39000
10891664;-0.39000
10894441;-0.37500
10897219;-0.38000
10899997;-0.38000
10902775;-0.39000
10905553;-0.39000
10908330;-0.36500
10911108;-0.36000
10913886;-0.35500
10916664;-0.35500
10919441;-0.34000
10922219;-0.34000
10924997;-0.32500
10927775;-0.30500
10930552;-0.30500
10933330;-0.30000
10936108;-0.30500
10938886;-0.31000
10941664;-0.29500
10944441;-0.28000
10947219;-0.26000
10949997;-0.26500
10952775;-0.26000
10955552;-0.26500
10958330;-0.26500
10961108;-0.24000
10963886;-0.25000
10966664;-0.25500
10969441;-0.27500
10972219;-0.28000
10974997;-0.26000
10977775;-0.24500
10980552;-0.25000
10983330;-0.24500
10986108;-0.26000
10988886;-0.24500
10991664;-0.22500
10994441;-0.22000
10997219;-0.26000
10999997;-0.28500
11002775;-0.29500
11005552;-0.31000
11008330;-0.31500
11011108;-0.32000
11013886;-0.34500
11016664;-0.35000
11019441;-0.36000
11022219;-0.37000
11024997;-0.36500
11027775;-0.36500
11030552;-0.35500
11033330;-0.36500
11036108;-0.37000
11038886;-0.38500
11041664;-0.38000
11044441;-0.36000
11047219;-0.37000
11049997;-0.37500
11052775;-0.38500
11055552;-0.38500
11058330;-0.38000
11061108;-0.36500
11063886;-0.37000
11066664;-0.37500
11069441;-0.39000
11072219;-0.39500
11074997;-0.38000
11077775;-0.37000
11080552;-0.38000
11083330;-0.39500
11086108;-0.44000
11088886;-0.48000
11091664;-0.48000
11094441;-0.49000
11097219;-0.53000
11099997;-0.55500
11102775;-0.55000
11105552;-0.43000
11108330;-0.29000
11111108;-0.18000
11113886;-0.07500
11116664;0.05000
11119441;0.22000
11122219;0.43500
11124997;0.68000
11127775;0.84000
11130552;0.93000
11133330;0.99000
11136108;0.97000
11138886;0.80000
11141664;0.46000
11144441;0.08000
11147219;-0.27000
11149997;-0.46000
11152775;-0.51500
11155552;-0.49000
11158330;-0.44000
11161108;-0.39000
11163886;-0.38500
11166664;-0.39500
11169441;-0.41000
11172219;-0.40500
11174997;-0.39000
11177775;-0.38500
11180552;-0.38500
11183330;-0.40500
11186108;-0.40500
11188886;-0.41000
11191664;-0.41500
11194441;-0.39500
11197219;-0.40000
11199997;-0.41000
11202775;-0.41500
11205552;-0.41000
11208330;-0.41000
11211108;-0.40000
11213886;-0.40500
11216664;-0.41000
11219441;-0.41000
11222219;-0.41500
11224997;-0.41000
11227775;-0.40500
11230552;-0.41000
11233330;-0.41000
11236108;-0.41500
11238886;-0.42500
11241664;-0.42000
11244441;-0.41000
11247219;-0.41500
11249997;-0.42000
11252775;-0.43000
11255552;-0.42000
11258330;-0.41500
11261108;-0.40500
11263886;-0.41500
11266664;-0.40500
11269441;-0.41500
11272219;-0.42000
11274997;-0.40500
11277775;-0.39500
11280552;-0.40500
11283330;-0.40500
11286108;-0.41000
11288886;-0.41000
11291664;-0.39500
11294441;-0.39500
11297219;-0.41000
11299997;-0.41500
11302775;-0.42000
11305552;-0.43000
11308330;-0.42500
11311108;-0.41500
11313886;-0.40500
11316663;-0.41500
11319441;-0.42500
11322219;-0.43000
11324997;-0.41500
11327775;-0.40500
11330552;-0.40500
11333330;-0.41500
11336108;-0.41500
11338886;-0.42000
11341663;-0.41500
11344441;-0.41500
11347219;-0.41500
11349997;-0.43000
11352775;-0.44500
11355552;-0.43500
11358330;-0.43000
11361108;-0.42500
11363886;-0.42500
11366663;-0.44000
11369441;-0.45000
11372219;-0.45500
11374997;-0.44500
11377775;-0.43500
11380552;-0.44500
11383330;-0.44500
11386108;-0.45500
11388886;-0.45000
11391663;-0.44000
11394441;-0.43000
11397219;-0.43000
11399997;-0.44000
11402775;-0.44000
11405552;-0.44500
11408330;-0.41000
11411108;-0.39500
11413886;-0.38000
11416663;-0.38000
11419441;-0.38500
11422219;-0.37500
11424997;-0.35500
11427775;-0.33500
11430552;-0.31000
11433330;-0.32000
11436108;-0.32000
11438886;-0.30500
11441663;-0.30000
11444441;-0.28500
11447219;-0.28000
11449997;-0.28500
11452775;-0.28500
11455552;-0.28000
11458330;-0.27500
11461108;-0.26500
11463886;-0.27000
11466663;-0.27000
11469441;-0.27500
11472219;-0.27500
11474997;-0.26500
11477775;-0.27000
11480552;-0.26000
11483330;-0.27500
11486108;-0.27500
11488886;-0.28500
11491663;-0.27000
11494441;-0.27000
11497219;-0.26500
11499997;-0.27000
11502775;-0.28000
11505552;-0.28000
11508330;-0.27000
11511108;-0.28000
11513886;-0.27000
11516663;-0.28500
11519441;-0.28500
11522219;-0.28500
11524997;-0.28500
11527775;-0.27500
11530552;-0.27500
11533330;-0.27500
11536108;-0.29500
11538886;-0.30000
11541663;-0.29000
11544441;-0.27500
11547219;-0.28000
11549997;-0.28500
11552775;-0.30000
11555552;-0.31000
11558330;-0.29500
11561108;-0.29000
11563886;-0.29500
11566663;-0.30000
11569441;-0.31500
11572219;-0.33000
11574997;-0.32000
11577775;-0.31500
11580552;-0.30000
11583330;-0.31000
11586108;-0.32500
11588886;-0.32000
11591663;-0.32000
11594441;-0.31000
11597219;-0.31000
11599997;-0.31500
11602775;-0.31000
11605552;-0.32000
11608330;-0.31000
11611108;-0.30000
11613886;-0.30500
11616663;-0.31000
11619441;-0.31000
11622219;-0.31500
11624997;-0.30500
11627775;-0.30500
11630552;-0.31000
11633330;-0.31500
11636108;-0.30500
11638886;-0.32000
11641663;-0.31000
11644441;-0.30000
11647219;-0.29000
11649997;-0.29500
11652775;-0.28500
11655552;-0.29000
11658330;-0.27000
11661108;-0.25500
11663886;-0.25000
11666663;-0.25500
11669441;-0.26000
11672219;-0.25500
11674997;-0.24500
11677775;-0.23500
11680552;-0.22500
11683330;-0.23000
11686108;-0.23500
11688886;-0.22000
11691663;-0.22000
11694441;-0.20000
11697219;-0.20500
11699997;-0.19500
11702775;-0.19500
11705552;-0.20500
11708330;-0.19000
11711108;-0.19500
11713886;-0.20500
11716663;-0.21000
11719441;-0.21500
11722219;-0.21000
11724997;-0.19500
11727774;-0.19000
11730552;-0.18500
11733330;-0.17000
11736108;-0.16000
11738886;-0.20500
11741663;-0.23500
11744441;-0.24500
11747219;-0.26000
11749997;-0.27500
11752774;-0.29500
11755552;-0.32500
11758330;-0.32000
11761108;-0.33500
11763886;-0.33000
11766663;-0.33000
11769441;-0.32500
11772219;-0.33500
11774997;-0.32500
11777774;-0.33500
11780552;-0.34000
11783330;-0.34000
11786108;-0.35000
11788886;-0.36000
11791663;-0.34500
11794441;-0.33500
11797219;-0.34000
11799997;-0.34500
11802774;-0.35500
11805552;-0.36500
11808330;-0.35500
11811108;-0.34500
11813886;-0.34500
11816663;-0.34500
11819441;-0.36000
11822219;-0.36000
11824997;-0.36500
11827774;-0.36500
11830552;-0.39500
11833330;-0.46000
11836108;-0.48500
11838886;-0.51000
11841663;-0.53500
11844441;-0.52500
11847219;-0.45000
11849997;-0.29500
11852774;-0.11000
11855552;0.09000
11858330;0.36500
11861108;0.65500
11863886;0.91000
11866663;1.04000
11869441;0.99500
11872219;0.72000
11874997;0.27000
11877774;-0.17000
11880552;-0.44500
11883330;-0.50000
11886108;-0.44500
11888886;-0.38500
11891663;-0.37500
11894441;-0.36500
11897219;-0.38000
11899997;-0.38500
11902774;-0.39000
11905552;-0.39500
11908330;-0.39500
11911108;-0.39000
11913886;-0.39000
11916663;-0.40500
11919441;-0.41000
11922219;-0.41000
11924997;-0.40000
11927774;-0.39500
11930552;-0.39000
11933330;-0.40500
11936108;-0.40500
11938886;-0.42000
11941663;-0.40500
11944441;-0.40500
11947219;-0.40000
11949997;-0.40000
11952774;-0.41000
11955552;-0.41500
11958330;-0.41500
11961108;-0.40000
11963886;-0.41000
11966663;-0.40500
11969441;-0.42000
11972219;-0.42000
11974997;-0.40500
11977774;-0.39500
11980552;-0.40000
11983330;-0.40500
11986108;-0.40500
11988886;-0.40500
11991663;-0.41000
11994441;-0.39000
11997219;-0.38500
11999997;-0.40000
12002774;-0.41000
12005552;-0.40500
12008330;-0.40500
12011108;-0.39500
12013886;-0.39000
12016663;-0.40000
12019441;-0.41500
12022219;-0.42000
12024997;-0.40500
12027774;-0.40000
12030552;-0.39500
12033330;-0.40500
12036108;-0.41000
12038886;-0.40500
12041663;-0.40500
12044441;-0.39000
12047219;-0.39000
12049997;-0.40500
12052774;-0.40000
12055552;-0.41000
12058330;-0.40000
12061108;-0.40000
12063886;-0.39500
12066663;-0.40000
12069441;-0.41500
12072219;-0.41000
12074997;-0.40500
12077774;-0.40500
12080552;-0.40000
12083330;-0.41500
12086108;-0.41500
12088886;-0.42500
12091663;-0.42500
12094441;-0.40000
12097219;-0.40000
12099997;-0.42000
12102774;-0.41500
12105552;-0.41500
12108330;-0.40000
12111108;-0.39000
12113885;-0.40000
12116663;-0.41000
12119441;-0.40000
12122219;-0.40500
12124997;-0.39000
12127774;-0.38500
12130552;-0.38000
12133330;-0.38000
12136108;-0.37500
12138885;-0.37500
12141663;-0.35000
12144441;-0.35000
12147219;-0.34000
12149997;-0.33000
12152774;-0.33500
12155552;-0.32500
12158330;-0.32000
12161108;-0.30500
12163885;-0.29000
12166663;-0.29500
12169441;-0.30000
12172219;-0.30500
12174997;-0.29500
12177774;-0.28500
12180552;-0.28000
12183330;-0.28500
12186108;-0.29000
12188885;-0.30000
12191663;-0.27000
12194441;-0.27500
12197219;-0.27500
12199997;-0.28000
12202774;-0.30500
12205552;-0.30500
12208330;-0.29500
12211108;-0.27500
12213885;-0.28000
12216663;-0.29000
12219441;-0.29500
12222219;-0.30000
12224997;-0.29000
12227774;-0.28500
12230552;-0.28500
12233330;-0.29000
12236108;-0.29000
12238885;-0.30000
12241663;-0.30000
12244441;-0.29500
12247219;-0.29000
12249997;-0.30000
12252774;-0.30500
12255552;-0.31000
12258330;-0.30500
12261108;-0.30500
12263885;-0.29500
12266663;-0.30500
12269441;-0.31500
12272219;-0.32000
12274997;-0.31000
12277774;-0.30500
12280552;-0.30500
12283330;-0.33000
12286108;-0.34000
12288885;-0.34500
12291663;-0.34000
12294441;-0.33000
12297219;-0.33500
12299997;-0.34500
12302774;-0.34000
12305552;-0.36500
12308330;-0.35000
12311108;-0.34500
12313885;-0.33500
12316663;-0.35000
12319441;-0.36000
12322219;-0.36500
12324997;-0.35500
12327774;-0.35000
12330552;-0.34500
12333330;-0.34500
12336108;-0.36500
12338885;-0.36000
12341663;-0.35500
12344441;-0.34500
12347219;-0.35000
12349997;-0.34500
12352774;-0.37000
12355552;-0.37000
12358330;-0.35500
12361108;-0.35000
12363885;-0.35000
12366663;-0.35500
12369441;-0.36500
12372219;-0.37000
12374997;-0.35000
12377774;-0.34000
12380552;-0.35500
12383330;-0.33500
12386108;-0.34500
12388885;-0.35500
12391663;-0.33000
12394441;-0.33000
12397219;-0.33500
12399997;-0.34500
12402774;-0.34000
12405552;-0.32000
12408330;-0.31500
12411108;-0.30000
12413885;-0.29500
12416663;-0.30000
12419441;-0.30500
12422219;-0.29500
12424997;-0.28000
12427774;-0.25500
12430552;-0.26000
12433330;-0.27000
12436108;-0.27500
12438885;-0.27000
12441663;-0.26000
12444441;-0.23500
12447219;-0.23000
12449997;-0.23000
12452774;-0.23500
12455552;-0.24000
12458330;-0.24000
12461108;-0.23000
12463885;-0.23000
12466663;-0.23500
12469441;-0.24500
12472219;-0.24000
12474997;-0.23500
12477774;-0.23000
12480552;-0.20000
12483330;-0.19000
12486108;-0.20000
12488885;-0.24500
12491663;-0.27000
12494441;-0.27500
12497219;-0.29500
12499996;-0.31000
12502774;-0.34000
12505552;-0.34500
12508330;-0.37000
12511108;-0.35000
12513885;-0.36000
12516663;-0.36000
12519441;-0.37000
12522219;-0.36500
12524996;-0.37000
12527774;-0.36000
12530552;-0.36000
12533330;-0.35500
12536108;-0.38500
12538885;-0.38500
12541663;-0.39000
12544441;-0.36500
12547219;-0.37500
12549996;-0.37500
12552774;-0.39000
12555552;-0.39000
12558330;-0.37000
12561108;-0.37000
12563885;-0.38000
12566663;-0.38000
12569441;-0.38500
12572219;-0.40500
12574996;-0.43000
12577774;-0.45500
12580552;-0.48000
12583330;-0.49500
12586108;-0.50000
12588885;-0.49000
12591663;-0.50000
12594441;-0.55000
12597219;-0.58500
12599996;-0.58500
12602774;-0.51500
12605552;-0.37000
12608330;-0.19000
12611108;0.01000
12613885;0.24000
12616663;0.50000
12619441;0.76000
12622219;0.90500
12624996;0.93000
12627774;0.78000
12630552;0.40000
12633330;-0.05000
12636108;-0.38000
12638885;-0.51500
12641663;-0.49000
12644441;-0.43000
12647219;-0.38500
12649996;-0.40000
12652774;-0.41000
12655552;-0.42000
12658330;-0.41000
12661108;-0.40000
12663885;-0.41000
12666663;-0.41500
12669441;-0.41500
12672219;-0.42500
12674996;-0.41500
12677774;-0.41500
12680552;-0.41000
12683330;-0.41500
12686108;-0.43000
12688885;-0.42500
12691663;-0.42500
12694441;-0.42500
12697219;-0.41500
12699996;-0.42000
12702774;-0.43500
12705552;-0.43500
12708330;-0.42500
12711108;-0.42000
12713885;-0.42000
12716663;-0.42500
12719441;-0.43000
12722219;-0.43000
12724996;-0.42500
12727774;-0.42000
12730552;-0.40500
12733330;-0.42500
12736108;-0.42500
12738885;-0.44000
12741663;-0.42500
12744441;-0.41500
12747219;-0.41000
12749996;-0.42500
12752774;-0.43500
12755552;-0.44000
12758330;-0.42000
12761108;-0.41500
12763885;-0.40500
12766663;-0.42000
12769441;-0.42500
12772219;-0.42500
12774996;-0.42000
12777774;-0.40500
12780552;-0.42000
12783330;-0.42500
12786108;-0.42500
12788885;-0.42500
12791663;-0.42000
12794441;-0.41500
12797219;-0.42500
12799996;-0.42500
12802774;-0.43500
12805552;-0.43500
12808330;-0.43000
12811108;-0.41500
12813885;-0.41500
12816663;-0.41000
12819441;-0.42000
12822219;-0.43000
12824996;-0.42500
12827774;-0.41500
12830552;-0.42000
12833330;-0.41500
12836108;-0.43500
12838885;-0.42500
12841663;-0.42000
12844441;-0.41500
12847219;-0.43000
12849996;-0.43000
12852774;-0.44000
12855552;-0.42500
12858330;-0.42000
12861108;-0.41500
12863885;-0.42000
12866663;-0.42000
12869441;-0.42500
12872219;-0.43000
12874996;-0.41500
12877774;-0.41000
12880552;-0.40500
12883330;-0.41500
12886108;-0.41500
12888885;-0.42000
12891663;-0.40500
12894441;-0.37500
12897219;-0.38000
12899996;-0.37000
12902774;-0.37000
12905552;-0.36500
12908330;-0.34500
12911107;-0.33000
12913885;-0.32000
12916663;-0.32000
12919441;-0.32500
12922219;-0.32000
12924996;-0.31500
12927774;-0.29500
12930552;-0.29500
12933330;-0.29500
12936107;-0.31000
12938885;-0.30500
12941663;-0.29000
12944441;-0.28000
12947219;-0.29000
12949996;-0.29000
12952774;-0.29000
12955552;-0.29500
12958330;-0.30000
12961107;-0.28500
12963885;-0.28500
12966663;-0.30000
12969441;-0.30000
12972219;-0.32000
12974996;-0.30000
12977774;-0.29000
12980552;-0.30000
12983330;-0.30000
12986107;-0.31500
12988885;-0.32500
12991663;-0.30500
12994441;-0.29000
12997219;-0.29000
12999996;-0.30500
13002774;-0.31000
13005552;-0.32000
13008330;-0.31500
13011107;-0.29500
13013885;-0.30500
13016663;-0.30500
13019441;-0.32000
13022219;-0.32000
13024996;-0.32000
13027774;-0.31000
13030552;-0.30500
13033330;-0.31500
13036107;-0.32500
13038885;-0.33500
13041663;-0.32500
13044441;-0.32000
13047219;-0.33000
13049996;-0.33500
13052774;-0.34500
13055552;-0.34500
13058330;-0.34500
13061107;-0.33000
13063885;-0.33000
13066663;-0.34000
13069441;-0.36000
13072219;-0.36000
13074996;-0.35000
13077774;-0.35000
13080552;-0.35000
13083330;-0.35000
13086107;-0.35500
13088885;-0.37000
13091663;-0.35500
13094441;-0.34000
13097219;-0.36000
13099996;-0.36000
13102774;-0.38000
13105552;-0.36000
13108330;-0.36000
13111107;-0.35000
13113885;-0.35500
13116663;-0.36500
13119441;-0.36500
13122219;-0.36500
13124996;-0.34000
13127774;-0.33500
13130552;-0.34500
13133330;-0.35500
13136107;-0.36500
13138885;-0.38000
13141663;-0.36000
13144441;-0.35500
13147219;-0.35500
13149996;-0.36000
13152774;-0.37000
13155552;-0.38500
13158330;-0.36500
13161107;-0.35000
13163885;-0.36000
13166663;-0.36000
13169441;-0.36500
13172219;-0.37000
13174996;-0.36000
13177774;-0.34500
13180552;-0.35500
13183330;-0.36000
13186107;-0.37000
13188885;-0.36500
13191663;-0.34500
13194441;-0.33000
13197219;-0.31000
13199996;-0.31000
13202774;-0.31000
13205552;-0.31000
13208330;-0.30500
13211107;-0.30000
13213885;-0.27500
13216663;-0.27500
13219441;-0.28000
13222219;-0.27000
13224996;-0.26000
13227774;-0.24500
13230552;-0.23500
13233330;-0.25000
13236107;-0.26000
13238885;-0.26500
13241663;-0.27000
13244441;-0.25500
13247219;-0.24000
13249996;-0.24500
13252774;-0.24500
13255552;-0.26000
13258330;-0.24500
13261107;-0.22500
13263885;-0.21500
13266663;-0.23500
13269441;-0.27500
13272219;-0.31000
13274996;-0.31500
13277774;-0.32500
13280552;-0.33000
13283330;-0.34500
13286107;-0.36000
13288885;-0.37500
13291663;-0.36500
13294441;-0.36500
13297218;-0.38000
13299996;-0.36500
13302774;-0.38000
13305552;-0.38000
13308330;-0.37000
13311107;-0.37000
13313885;-0.37500
13316663;-0.38500
13319441;-0.40000
13322218;-0.40500
13324996;-0.39500
13327774;-0.38500
13330552;-0.38500
13333330;-0.39000
13336107;-0.40000
13338885;-0.40000
13341663;-0.39500
13344441;-0.39500
13347218;-0.38000
13349996;-0.39500
13352774;-0.40500
13355552;-0.40000
13358330;-0.39500
13361107;-0.39500
13363885;-0.43000
13366663;-0.48000
13369441;-0.52000
13372218;-0.53000
13374996;-0.57000
13377774;-0.58000
13380552;-0.52500
13383330;-0.42500
13386107;-0.28500
13388885;-0.11000
13391663;0.13500
13394441;0.41000
13397218;0.65500
13399996;0.81500
13402774;0.85000
13405552;0.68000
13408330;0.33500
13411107;-0.05500
13413885;-0.37500
13416663;-0.54000
13419441;-0.55500
13422218;-0.50000
13424996;-0.45000
13427774;-0.42500
13430552;-0.43000
13433330;-0.44500
13436107;-0.43500
13438885;-0.43500
13441663;-0.43500
13444441;-0.43000
13447218;-0.43000
13449996;-0.45000
13452774;-0.45000
13455552;-0.44500
13458330;-0.44500
13461107;-0.43500
13463885;-0.44000
13466663;-0.44000
13469441;-0.44000
13472218;-0.43500
13474996;-0.42000
13477774;-0.42500
13480552;-0.43000
13483330;-0.43000
13486107;-0.43500
13488885;-0.44500
13491663;-0.45000
13494441;-0.44000
13497218;-0.44000
13499996;-0.44500
13502774;-0.45000
13505552;-0.44500
13508330;-0.44000
13511107;-0.43000
13513885;-0.43500
13516663;-0.44000
13519441;-0.46000
13522218;-0.46000
13524996;-0.45500
13527774;-0.44000
13530552;-0.44500
13533330;-0.45500
13536107;-0.46000
13538885;-0.44500
13541663;-0.43500
13544441;-0.45000
13547218;-0.45000
13549996;-0.46000
13552774;-0.48000
13555552;-0.47000
13558330;-0.45500
13561107;-0.44000
13563885;-0.43500
13566663;-0.43500
13569441;-0.45000
13572218;-0.46500
13574996;-0.45000
13577774;-0.44000
13580552;-0.43500
13583330;-0.44500
13586107;-0.45500
13588885;-0.45500
13591663;-0.45000
13594441;-0.45000
13597218;-0.44500
13599996;-0.44000
13602774;-0.44000
13605552;-0.45000
13608330;-0.45000
13611107;-0.44500
13613885;-0.44500
13616663;-0.45000
13619441;-0.47000
13622218;-0.47500
13624996;-0.47000
13627774;-0.46500
13630552;-0.47500
13633330;-0.47000
13636107;-0.48500
13638885;-0.49000
13641663;-0.49000
13644441;-0.48500
13647218;-0.49000
13649996;-0.48500
13652774;-0.48500
13655552;-0.49500
13658330;-0.47500
13661107;-0.47500
13663885;-0.47500
13666663;-0.47500
13669441;-0.47500
13672218;-0.48500
13674996;-0.47000
13677774;-0.45500
13680552;-0.45500
13683330;-0.45500
13686107;-0.45000
13688885;-0.45000
13691663;-0.42500
13694441;-0.41000
13697218;-0.40000
13699996;-0.39500
13702774;-0.40000
13705552;-0.39500
13708329;-0.37500
13711107;-0.35000
13713885;-0.34000
13716663;-0.33500
13719441;-0.35000
13722218;-0.34000
13724996;-0.34500
13727774;-0.34000
13730552;-0.32500
13733329;-0.32000
13736107;-0.34000
13738885;-0.36000
13741663;-0.36000
13744441;-0.34000
13747218;-0.33000
13749996;-0.33500
13752774;-0.35500
13755552;-0.35500
13758329;-0.34500
13761107;-0.32500
13763885;-0.32500
13766663;-0.33500
13769441;-0.35500
13772218;-0.34000
13774996;-0.34500
13777774;-0.34500
13780552;-0.35000
13783329;-0.33500
13786107;-0.35500
13788885;-0.37000
13791663;-0.35500
13794441;-0.34000
13797218;-0.35000
13799996;-0.33000
13802774;-0.34000
13805552;-0.36500
13808329;-0.36500
13811107;-0.37500
13813885;-0.37000
13816663;-0.37500
13819441;-0.38500
13822218;-0.38500
13824996;-0.37000
13827774;-0.35500
13830552;-0.34000
13833329;-0.34000
13836107;-0.34500
13838885;-0.36500
13841663;-0.36000
13844441;-0.36000
13847218;-0.36500
13849996;-0.37000
13852774;-0.38500
13855552;-0.38000
13858329;-0.38000
13861107;-0.38000
13863885;-0.37000
13866663;-0.37000
13869441;-0.38500
13872218;-0.38500
13874996;-0.38500
13877774;-0.38000
13880552;-0.37000
13883329;-0.37500
13886107;-0.39500
13888885;-0.38500
13891663;-0.36500
13894441;-0.36500
13897218;-0.37500
13899996;-0.37500
13902774;-0.39000
13905552;-0.38500
13908329;-0.38000
13911107;-0.37500
13913885;-0.37000
13916663;-0.37000
13919441;-0.37000
13922218;-0.38000
13924996;-0.39500
13927774;-0.38000
13930552;-0.37500
13933329;-0.37000
13936107;-0.36500
13938885;-0.36000
13941663;-0.37000
13944441;-0.38000
13947218;-0.39000
13949996;-0.36500
13952774;-0.37000
13955552;-0.36500
13958329;-0.36500
13961107;-0.35500
13963885;-0.36000
13966663;-0.37000
13969441;-0.37000
13972218;-0.37500
13974996;-0.37500
13977774;-0.34500
13980552;-0.33500
13983329;-0.33500
13986107;-0.34000
13988885;-0.34500
13991663;-0.33500
13994441;-0.32000
13997218;-0.30000
13999996;-0.29000
14002774;-0.31000
14005552;-0.31500
14008329;-0.30500
14011107;-0.28500
14013885;-0.29000
14016663;-0.29000
14019441;-0.28500
14022218;-0.28000
14024996;-0.27000
14027774;-0.26000
14030552;-0.25000
14033329;-0.25000
14036107;-0.26500
14038885;-0.27000
14041663;-0.26500
14044441;-0.25500
14047218;-0.26500
14049996;-0.28000
14052774;-0.28500
14055552;-0.27500
14058329;-0.26000
14061107;-0.25500
14063885;-0.25000
14066663;-0.25500
14069441;-0.25000
14072218;-0.26500
14074996;-0.25500
14077774;-0.27000
14080552;-0.30000
14083329;-0.31500
14086107;-0.34000
14088885;-0.36500
14091663;-0.36500
14094440;-0.37000
14097218;-0.37500
14099996;-0.39000
14102774;-0.39000
14105552;-0.40000
14108329;-0.38500
14111107;-0.38500
14113885;-0.38000
14116663;-0.39500
14119440;-0.39500
14122218;-0.39000
14124996;-0.38500
14127774;-0.38000
14130552;-0.37000
14133329;-0.38000
14136107;-0.39500
14138885;-0.40000
14141663;-0.39500
14144440;-0.39000
14147218;-0.38500
14149996;-0.39000
14152774;-0.40000
14155552;-0.42000
14158329;-0.40500
14161107;-0.39000
14163885;-0.41500
14166663;-0.45000
14169440;-0.49000
14172218;-0.52500
14174996;-0.52000
14177774;-0.54500
14180552;-0.57500
14183329;-0.57000
14186107;-0.53000
14188885;-0.43000
14191663;-0.30000
14194440;-0.19500
14197218;-0.10000
14199996;0.01000
14202774;0.13000
14205552;0.27000
14208329;0.45000
14211107;0.60500
14213885;0.72000
14216663;0.81500
14219440;0.90500
14222218;0.94000
14224996;0.85500
14227774;0.56500
14230552;0.12500
14233329;-0.26000
14236107;-0.48500
14238885;-0.54500
14241663;-0.49000
14244440;-0.43500
14247218;-0.41000
14249996;-0.41000
14252774;-0.41000
14255552;-0.42500
14258329;-0.41000
14261107;-0.41000
14263885;-0.40500
14266663;-0.40500
14269440;-0.42000
14272218;-0.43000
14274996;-0.41500
14277774;-0.42000
14280552;-0.41000
14283329;-0.42500
14286107;-0.43000
14288885;-0.42500
14291663;-0.42000
14294440;-0.40500
14297218;-0.42000
14299996;-0.42000
14302774;-0.44000
14305552;-0.44000
14308329;-0.43500
14311107;-0.42000
14313885;-0.42000
14316663;-0.43000
14319440;-0.43500
14322218;-0.44000
14324996;-0.41500
14327774;-0.41500
14330552;-0.42000
14333329;-0.42000
14336107;-0.43000
14338885;-0.43500
14341663;-0.43000
14344440;-0.42500
14347218;-0.42500
14349996;-0.42500
14352774;-0.43000
14355552;-0.44500
14358329;-0.43500
14361107;-0.42000
14363885;-0.42500
14366663;-0.43000
14369440;-0.44500
14372218;-0.45000
14374996;-0.43500
14377774;-0.41500
14380552;-0.42000
14383329;-0.42000
14386107;-0.43500
14388885;-0.43500
14391663;-0.42000
14394440;-0.41000
14397218;-0.41500
14399996;-0.42000
14402774;-0.43000
14405552;-0.43000
14408329;-0.42500
14411107;-0.41500
14413885;-0.41500
14416663;-0.42500
14419440;-0.42500
14422218;-0.43500
14424996;-0.43500
14427774;-0.43500
14430552;-0.43500
14433329;-0.43000
14436107;-0.43500
14438885;-0.44500
14441663;-0.44500
14444440;-0.44000
14447218;-0.43500
14449996;-0.46000
14452774;-0.45500
14455552;-0.46500
14458329;-0.47000
14461107;-0.46000
14463885;-0.45000
14466663;-0.46000
14469440;-0.47500
14472218;-0.48500
14474996;-0.48500
14477774;-0.47500
14480552;-0.47000
14483329;-0.48500
14486107;-0.48000
14488885;-0.49000
14491663;-0.46500
14494440;-0.45000
14497218;-0.44500
14499996;-0.44000
14502774;-0.42500
14505551;-0.41000
14508329;-0.39500
14511107;-0.38500
14513885;-0.37000
14516663;-0.36500
14519440;-0.36000
14522218;-0.35000
14524996;-0.33000
14527774;-0.31500
14530551;-0.31000
14533329;-0.31000
14536107;-0.31500
14538885;-0.31000
14541663;-0.29500
14544440;-0.29000
14547218;-0.28500
14549996;-0.29000
14552774;-0.30000
14555551;-0.31000
14558329;-0.28500
14561107;-0.27500
14563885;-0.29000
14566663;-0.28000
14569440;-0.30000
14572218;-0.30000
14574996;-0.29500
14577774;-0.27500
14580551;-0.28000
14583329;-0.29000
14586107;-0.29000
14588885;-0.30000
14591663;-0.29000
14594440;-0.28000
14597218;-0.28000
14599996;-0.29000
14602774;-0.29500
14605551;-0.31000
14608329;-0.30000
14611107;-0.28500
14613885;-0.29500
14616663;-0.30000
14619440;-0.30500
14622218;-0.31000
14624996;-0.31500
14627774;-0.30500
14630551;-0.30500
14633329;-0.31000
14636107;-0.32500
14638885;-0.32000
14641663;-0.31000
14644440;-0.30500
14647218;-0.32000
14649996;-0.31500
14652774;-0.32000
14655551;-0.33000
14658329;-0.31500
14661107;-0.30500
14663885;-0.31000
14666663;-0.32500
14669440;-0.32500
14672218;-0.33000
14674996;-0.32500
14677774;-0.31000
14680551;-0.31500
14683329;-0.32000
14686107;-0.33000
14688885;-0.34000
14691663;-0.33000
14694440;-0.32000
14697218;-0.31500
14699996;-0.32500
14702774;-0.33500
14705551;-0.34000
14708329;-0.33500
14711107;-0.33500
14713885;-0.32000
14716663;-0.33500
14719440;-0.33000
14722218;-0.33500
14724996;-0.33000
14727774;-0.33500
14730551;-0.32000
14733329;-0.33000
14736107;-0.32500
14738885;-0.34000
14741663;-0.32000
14744440;-0.32000
14747218;-0.32000
14749996;-0.32000
14752774;-0.33500
14755551;-0.33000
14758329;-0.33000
14761107;-0.32500
14763885;-0.32000
14766663;-0.33500
14769440;-0.33500
14772218;-0.34000
14774996;-0.32500
14777774;-0.32000
14780551;-0.30500
14783329;-0.30500
14786107;-0.31000
14788885;-0.30500
14791663;-0.28000
14794440;-0.26500
14797218;-0.25500
14799996;-0.25500
14802774;-0.25500
14805551;-0.25000
14808329;-0.24000
14811107;-0.22500
14813885;-0.22000
14816663;-0.21500
14819440;-0.22500
14822218;-0.22500
14824996;-0.20500
14827774;-0.20000
14830551;-0.20000
14833329;-0.20500
14836107;-0.23500
14838885;-0.24000
14841663;-0.23500
14844440;-0.21500
14847218;-0.20500
14849996;-0.21500
14852774;-0.22000
14855551;-0.20500
14858329;-0.19000
14861107;-0.17500
14863885;-0.16500
14866663;-0.20500
14869440;-0.24000
14872218;-0.28000
14874996;-0.27000
14877774;-0.27500
14880551;-0.28000
14883329;-0.31500
14886107;-0.33500
14888885;-0.34500
14891662;-0.34000
14894440;-0.33500
14897218;-0.34000
14899996;-0.34000
14902774;-0.34500
14905551;-0.34500
14908329;-0.34500
14911107;-0.33500
14913885;-0.34500
14916662;-0.36000
14919440;-0.36000
14922218;-0.36000
14924996;-0.35000
14927774;-0.34500
14930551;-0.34500
14933329;-0.36000
14936107;-0.36500
14938885;-0.35500
14941662;-0.36000
14944440;-0.35500
14947218;-0.35500
14949996;-0.36000
14952774;-0.37000
14955551;-0.37000
14958329;-0.36500
14961107;-0.35000
14963885;-0.34500
14966662;-0.35500
14969440;-0.36500
14972218;-0.39500
14974996;-0.41500
14977774;-0.45000
14980551;-0.48000
14983329;-0.50500
14986107;-0.53000
14988885;-0.56500
14991662;-0.54000
14994440;-0.47000
14997218;-0.36000
14999996;-0.19500
15002774;-0.05500
15005551;0.13000
15008329;0.37000
15011107;0.63500
15013885;0.87000
15016662;1.01000
15019440;1.04000
15022218;0.92500
15024996;0.63000
15027774;0.22000
15030551;-0.20000
15033329;-0.43500
15036107;-0.50000
15038885;-0.45500
15041662;-0.40000
15044440;-0.36500
15047218;-0.37500
15049996;-0.39000
15052774;-0.40000
15055551;-0.40000
15058329;-0.39500
15061107;-0.39500
15063885;-0.39000
15066662;-0.40000
15069440;-0.41500
15072218;-0.41500
15074996;-0.41500
15077774;-0.40000
15080551;-0.40000
15083329;-0.41000
15086107;-0.41500
15088885;-0.42500
15091662;-0.40500
15094440;-0.39000
15097218;-0.39500
15099996;-0.39000
15102774;-0.40500
15105551;-0.40500
15108329;-0.40000
15111107;-0.40500
15113885;-0.39500
15116662;-0.40000
15119440;-0.40500
15122218;-0.40500
15124996;-0.41000
15127774;-0.40000
15130551;-0.41000
15133329;-0.41000
15136107;-0.41000
15138885;-0.41500
15141662;-0.41500
15144440;-0.39000
15147218;-0.39000
15149996;-0.39500
15152774;-0.41000
15155551;-0.41000
15158329;-0.40500
15161107;-0.40000
15163885;-0.40000
15166662;-0.41000
15169440;-0.42500
15172218;-0.42500
15174996;-0.40500
15177774;-0.40000
15180551;-0.40000
15183329;-0.41000
15186107;-0.42500
15188885;-0.42000
15191662;-0.41000
15194440;-0.39500
15197218;-0.39500
15199996;-0.40500
15202774;-0.41000
15205551;-0.41500
15208329;-0.41500
15211107;-0.39000
15213885;-0.40000
15216662;-0.40500
15219440;-0.42000
15222218;-0.42000
15224996;-0.41500
15227774;-0.40500
15230551;-0.40000
15233329;-0.40500
15236107;-0.41000
15238885;-0.42000
15241662;-0.41000
15244440;-0.40000
15247218;-0.41000
15249996;-0.41000
15252774;-0.42000
15255551;-0.41000
15258329;-0.39500
15261107;-0.40500
15263885;-0.40500
15266662;-0.41000
15269440;-0.42000
15272218;-0.43000
15274996;-0.42000
15277774;-0.40500
15280551;-0.40500
15283329;-0.41000
15286107;-0.41500
15288885;-0.43000
15291662;-0.40500
15294440;-0.39000
15297218;-0.39500
15299996;-0.40500
15302773;-0.41000
15305551;-0.40500
15308329;-0.38500
15311107;-0.36500
15313885;-0.36000
15316662;-0.35000
15319440;-0.35000
15322218;-0.34000
15324996;-0.33500
15327773;-0.31500
15330551;-0.31000
15333329;-0.30000
15336107;-0.30500
15338885;-0.31000
15341662;-0.29500
15344440;-0.30000
15347218;-0.29000
15349996;-0.30000
15352773;-0.29500
15355551;-0.28500
15358329;-0.28500
15361107;-0.28000
15363885;-0.27500
15366662;-0.28000
15369440;-0.28500
15372218;-0.29000
15374996;-0.28000
15377773;-0.26500
15380551;-0.27000
15383329;-0.27500
15386107;-0.28500
15388885;-0.29000
15391662;-0.28000
15394440;-0.27500
15397218;-0.27500
15399996;-0.28000
15402773;-0.28500
15405551;-0.29500
15408329;-0.28500
15411107;-0.28000
15413885;-0.27000
15416662;-0.28500
15419440;-0.29500
15422218;-0.30000
15424996;-0.29000
15427773;-0.29000
15430551;-0.29000
15433329;-0.29000
15436107;-0.30500
15438885;-0.31000
15441662;-0.29500
15444440;-0.29000
15447218;-0.29500
15449996;-0.30500
15452773;-0.30500
15455551;-0.31000
15458329;-0.31000
15461107;-0.29000
15463885;-0.30500
15466662;-0.30000
15469440;-0.31500
15472218;-0.33000
15474996;-0.32000
15477773;-0.32000
15480551;-0.31500
15483329;-0.32500
15486107;-0.32000
15488885;-0.33500
15491662;-0.33500
15494440;-0.32500
15497218;-0.31500
15499996;-0.32500
15502773;-0.33500
15505551;-0.34500
15508329;-0.33000
15511107;-0.33500
15513885;-0.32500
15516662;-0.34000
15519440;-0.34500
15522218;-0.35000
15524996;-0.33000
15527773;-0.32500
15530551;-0.33500
15533329;-0.33000
15536107;-0.33000
15538885;-0.34500
15541662;-0.34000
15544440;-0.32500
15547218;-0.32000
15549996;-0.32500
15552773;-0.33500
15555551;-0.34000
15558329;-0.33500
15561107;-0.33500
15563885;-0.33000
15566662;-0.32000
15569440;-0.33000
15572218;-0.33500
15574996;-0.32000
15577773;-0.31000
15580551;-0.30000
15583329;-0.30000
15586107;-0.29500
15588885;-0.28500
15591662;-0.28500
15594440;-0.26000
15597218;-0.25000
15599996;-0.26000
15602773;-0.25000
15605551;-0.26000
15608329;-0.23500
15611107;-0.22500
15613885;-0.21500
15616662;-0.22000
15619440;-0.21000
15622218;-0.21500
15624996;-0.20500
15627773;-0.19500
15630551;-0.20500
15633329;-0.21000
15636107;-0.23000
15638885;-0.24000
15641662;-0.22500
15644440;-0.21000
15647218;-0.21000
15649996;-0.22500
15652773;-0.21500
15655551;-0.21000
15658329;-0.18500
15661107;-0.16500
15663885;-0.18500
15666662;-0.22500
15669440;-0.25000
15672218;-0.28000
15674996;-0.28000
15677773;-0.27500
15680551;-0.28000
15683329;-0.30500
15686107;-0.33500
15688884;-0.34500
15691662;-0.35000
15694440;-0.33500
15697218;-0.32000
15699996;-0.32500
15702773;-0.34000
15705551;-0.34000
15708329;-0.34500
15711107;-0.34000
15713884;-0.34000
15716662;-0.35000
15719440;-0.36000
15722218;-0.36500
15724996;-0.35500
15727773;-0.35000
15730551;-0.35000
15733329;-0.35000
15736107;-0.36000
15738884;-0.36500
15741662;-0.35000
15744440;-0.36000
15747218;-0.34500
15749996;-0.35000
15752773;-0.36000
15755551;-0.36500
15758329;-0.36000
15761107;-0.36500
15763884;-0.39500
15766662;-0.42500
15769440;-0.48000
15772218;-0.50000
15774996;-0.51000
15777773;-0.52500
15780551;-0.54500
15783329;-0.51500
15786107;-0.43500
15788884;-0.28500
15791662;-0.12500
15794440;0.04500
15797218;0.25500
15799996;0.50000
15802773;0.73000
15805551;0.90500
15808329;1.00500
