time_ms;ecg_value
0;0.98500
2778;1.11000
5556;1.09500
8333;0.91500
11111;0.54500
13889;0.10000
16667;-0.23500
19444;-0.42000
22222;-0.49000
25000;-0.49000
27778;-0.48000
30556;-0.43500
33333;-0.40000
36111;-0.36500
38889;-0.36500
41667;-0.37500
44444;-0.40000
47222;-0.39000
50000;-0.38500
52778;-0.38000
55556;-0.38000
58333;-0.39000
61111;-0.40000
63889;-0.40000
66667;-0.39500
69444;-0.39500
72222;-0.38500
75000;-0.38500
77778;-0.40500
80556;-0.41000
83333;-0.40500
86111;-0.39500
88889;-0.39000
91667;-0.40000
94444;-0.40000
97222;-0.40000
100000;-0.39500
102778;-0.38000
105556;-0.38000
108333;-0.39000
111111;-0.39000
113889;-0.39000
116667;-0.38500
119444;-0.38500
122222;-0.38500
125000;-0.38500
127778;-0.39500
130556;-0.40000
133333;-0.39500
136111;-0.37000
138889;-0.39000
141667;-0.39000
144444;-0.40500
147222;-0.39500
150000;-0.38500
152778;-0.37000
155556;-0.37000
158333;-0.39000
161111;-0.41000
163889;-0.40000
166667;-0.39500
169444;-0.38000
172222;-0.38000
175000;-0.39500
177778;-0.40000
180556;-0.39500
183333;-0.40000
186111;-0.39500
188889;-0.39500
191667;-0.39000
194444;-0.40000
197222;-0.40500
200000;-0.40000
202778;-0.37500
205555;-0.38500
208333;-0.39500
211111;-0.41000
213889;-0.40000
216667;-0.40000
219444;-0.39000
222222;-0.39500
225000;-0.40000
227778;-0.40000
230555;-0.40000
233333;-0.39000
236111;-0.38000
238889;-0.39500
241667;-0.40000
244444;-0.40000
247222;-0.41000
250000;-0.40000
252778;-0.39000
255555;-0.40500
258333;-0.41500
261111;-0.41500
263889;-0.41500
266667;-0.42000
269444;-0.39500
272222;-0.40000
275000;-0.40500
277778;-0.41000
280555;-0.41000
283333;-0.40000
286111;-0.39000
288889;-0.38000
291667;-0.38000
294444;-0.40000
297222;-0.39500
300000;-0.37500
302778;-0.35000
305555;-0.34500
308333;-0.35000
311111;-0.33500
313889;-0.33500
316667;-0.31500
319444;-0.30000
322222;-0.29000
325000;-0.28000
327778;-0.28500
330555;-0.27500
333333;-0.27000
336111;-0.26500
338889;-0.26500
341667;-0.26000
344444;-0.27000
347222;-0.27000
350000;-0.26500
352778;-0.25000
355555;-0.24000
358333;-0.25500
361111;-0.25500
363889;-0.26500
366667;-0.24500
369444;-0.24000
372222;-0.24000
375000;-0.25000
377778;-0.25500
380555;-0.26500
383333;-0.24500
386111;-0.25000
388889;-0.24000
391667;-0.25000
394444;-0.25500
397222;-0.26000
400000;-0.25000
402778;-0.24500
405555;-0.25500
408333;-0.26500
411111;-0.26500
413889;-0.27500
416667;-0.26000
419444;-0.25000
422222;-0.26000
425000;-0.26500
427778;-0.27500
430555;-0.28000
433333;-0.27000
436111;-0.26500
438889;-0.26000
441667;-0.28000
444444;-0.29000
447222;-0.29500
450000;-0.28500
452778;-0.27500
455555;-0.27500
458333;-0.28000
461111;-0.28500
463889;-0.29000
466667;-0.30500
469444;-0.27000
472222;-0.27500
475000;-0.28000
477778;-0.30000
480555;-0.30500
483333;-0.29500
486111;-0.28000
488889;-0.28000
491667;-0.29000
494444;-0.30500
497222;-0.30500
500000;-0.29500
502778;-0.29000
505555;-0.29500
508333;-0.30000
511111;-0.30500
513889;-0.32500
516667;-0.30500
519444;-0.29000
522222;-0.28500
525000;-0.30500
527778;-0.30500
530555;-0.31000
533333;-0.30000
536111;-0.29000
538889;-0.30000
541667;-0.31000
544444;-0.30500
547222;-0.31500
550000;-0.30500
552778;-0.28000
555555;-0.28500
558333;-0.29000
561111;-0.29500
563889;-0.30500
566667;-0.30500
569444;-0.28000
572222;-0.28000
575000;-0.28500
577778;-0.28500
580555;-0.29000
583333;-0.28000
586111;-0.27000
588889;-0.27500
591667;-0.27500
594444;-0.27500
597222;-0.26500
600000;-0.25000
602778;-0.23500
605555;-0.23000
608333;-0.23000
611111;-0.22500
613889;-0.22500
616666;-0.21500
619444;-0.21000
622222;-0.19000
625000;-0.18500
627778;-0.19000
630555;-0.19000
633333;-0.17500
636111;-0.16000
638889;-0.16000
641666;-0.16000
644444;-0.17000
647222;-0.17500
650000;-0.16500
652778;-0.16000
655555;-0.17000
658333;-0.18500
661111;-0.18500
663889;-0.19000
666666;-0.16500
669444;-0.17500
672222;-0.17000
675000;-0.16000
677778;-0.14500
680555;-0.15000
683333;-0.17000
686111;-0.20000
688889;-0.21500
691666;-0.22500
694444;-0.25000
697222;-0.27500
700000;-0.27000
702778;-0.28000
705555;-0.29000
708333;-0.30500
711111;-0.31000
713889;-0.31500
716666;-0.29500
719444;-0.30000
722222;-0.30500
725000;-0.32000
727778;-0.32000
730555;-0.33000
733333;-0.32000
736111;-0.32000
738889;-0.31000
741666;-0.33500
744444;-0.33000
747222;-0.34500
750000;-0.33000
752778;-0.31500
755555;-0.31500
758333;-0.32500
761111;-0.34000
763889;-0.34000
766666;-0.33000
769444;-0.33500
772222;-0.31500
775000;-0.31500
777778;-0.34500
780555;-0.36500
783333;-0.41000
786111;-0.43000
788889;-0.45000
791666;-0.48500
794444;-0.53000
797222;-0.54500
800000;-0.50500
802778;-0.39000
805555;-0.24500
808333;-0.09500
811111;0.07500
813889;0.29500
816666;0.56500
819444;0.80000
822222;0.96000
825000;1.01000
827778;0.92000
830555;0.62500
833333;0.23000
836111;-0.12500
838889;-0.36000
841666;-0.45500
844444;-0.45000
847222;-0.41000
850000;-0.36500
852778;-0.35000
855555;-0.36000
858333;-0.37500
861111;-0.38500
863889;-0.38000
866666;-0.37500
869444;-0.36500
872222;-0.37000
875000;-0.38500
877778;-0.40000
880555;-0.40500
883333;-0.40000
886111;-0.38000
888889;-0.38500
891666;-0.39000
894444;-0.39000
897222;-0.40000
900000;-0.38500
902778;-0.38000
905555;-0.38500
908333;-0.38000
911111;-0.39500
913889;-0.39000
916666;-0.38000
919444;-0.36000
922222;-0.37500
925000;-0.38000
927778;-0.39000
930555;-0.38500
933333;-0.38000
936111;-0.37000
938889;-0.38000
941666;-0.38500
944444;-0.39500
947222;-0.41000
950000;-0.38500
952778;-0.38500
955555;-0.37500
958333;-0.38500
961111;-0.39500
963889;-0.40000
966666;-0.40000
969444;-0.38500
972222;-0.39000
975000;-0.39000
977778;-0.40000
980555;-0.40000
983333;-0.39000
986111;-0.38500
988889;-0.37500
991666;-0.38500
994444;-0.40000
997222;-0.41000
1000000;-0.39500
1002777;-0.38500
1005555;-0.39000
1008333;-0.40000
1011111;-0.41500
1013889;-0.40500
1016666;-0.38000
1019444;-0.38000
1022222;-0.38500
1025000;-0.38500
1027777;-0.39000
1030555;-0.39000
1033333;-0.39000
1036111;-0.38500
1038889;-0.39000
1041666;-0.40500
1044444;-0.41500
1047222;-0.41500
1050000;-0.39500
1052777;-0.39000
1055555;-0.37500
1058333;-0.39000
1061111;-0.39000
1063889;-0.40500
1066666;-0.39500
1069444;-0.38500
1072222;-0.39000
1075000;-0.39500
1077777;-0.39500
1080555;-0.41500
1083333;-0.40000
1086111;-0.39500
1088889;-0.39500
1091666;-0.40000
1094444;-0.40000
1097222;-0.40500
1100000;-0.39000
1102777;-0.39000
1105555;-0.39000
1108333;-0.39500
1111111;-0.40500
1113889;-0.39500
1116666;-0.39000
1119444;-0.38000
1122222;-0.37000
1125000;-0.37000
1127777;-0.37000
1130555;-0.36500
1133333;-0.34500
1136111;-0.33000
1138889;-0.33000
1141666;-0.31500
1144444;-0.32000
1147222;-0.31500
1150000;-0.31500
1152777;-0.29500
1155555;-0.28000
1158333;-0.28000
1161111;-0.29000
1163889;-0.29000
1166666;-0.28000
1169444;-0.26000
1172222;-0.26500
1175000;-0.27500
1177777;-0.28000
1180555;-0.27500
1183333;-0.27000
1186111;-0.26500
1188889;-0.26000
1191666;-0.27000
1194444;-0.26500
1197222;-0.27000
1200000;-0.27500
1202777;-0.25000
1205555;-0.25000
1208333;-0.26500
1211111;-0.27000
1213889;-0.25500
1216666;-0.26000
1219444;-0.25500
1222222;-0.25500
1225000;-0.26500
1227777;-0.28500
1230555;-0.28500
1233333;-0.27500
1236111;-0.27500
1238889;-0.27000
1241666;-0.27000
1244444;-0.28000
1247222;-0.27500
1250000;-0.26500
1252777;-0.27000
1255555;-0.28500
1258333;-0.28000
1261111;-0.29500
1263889;-0.30500
1266666;-0.30000
1269444;-0.28500
1272222;-0.29000
1275000;-0.29000
1277777;-0.30500
1280555;-0.32000
1283333;-0.31000
1286111;-0.30000
1288889;-0.30000
1291666;-0.30500
1294444;-0.31000
1297222;-0.31000
1300000;-0.31500
1302777;-0.30500
1305555;-0.31000
1308333;-0.31000
1311111;-0.31500
1313889;-0.32500
1316666;-0.31500
1319444;-0.31000
1322222;-0.31500
1325000;-0.33000
1327777;-0.33000
1330555;-0.33500
1333333;-0.33000
1336111;-0.32500
1338889;-0.32500
1341666;-0.33500
1344444;-0.34500
1347222;-0.33500
1350000;-0.33500
1352777;-0.33000
1355555;-0.34000
1358333;-0.34000
1361111;-0.34000
1363889;-0.33000
1366666;-0.33500
1369444;-0.32500
1372222;-0.32500
1375000;-0.33000
1377777;-0.34500
1380555;-0.36000
1383333;-0.34500
1386111;-0.33500
1388888;-0.32000
1391666;-0.32000
1394444;-0.33500
1397222;-0.33500
1400000;-0.32000
1402777;-0.31500
1405555;-0.31500
1408333;-0.32500
1411111;-0.33500
1413888;-0.33000
1416666;-0.33000
1419444;-0.32500
1422222;-0.33000
1425000;-0.33500
1427777;-0.34500
1430555;-0.34000
1433333;-0.32000
1436111;-0.31500
1438888;-0.31500
1441666;-0.33000
1444444;-0.33000
1447222;-0.32500
1450000;-0.30000
1452777;-0.29000
1455555;-0.28500
1458333;-0.28000
1461111;-0.28000
1463888;-0.27000
1466666;-0.25500
1469444;-0.24000
1472222;-0.24000
1475000;-0.24500
1477777;-0.25000
1480555;-0.23500
1483333;-0.23000
1486111;-0.22000
1488888;-0.21500
1491666;-0.21000
1494444;-0.22000
1497222;-0.21500
1500000;-0.21500
1502777;-0.22500
1505555;-0.23000
1508333;-0.23500
1511111;-0.24000
1513888;-0.23500
1516666;-0.22500
1519444;-0.22000
1522222;-0.22500
1525000;-0.23000
1527777;-0.22000
1530555;-0.21500
1533333;-0.21000
1536111;-0.24000
1538888;-0.25000
1541666;-0.27000
1544444;-0.31000
1547222;-0.33000
1550000;-0.33500
1552777;-0.34000
1555555;-0.34500
1558333;-0.36000
1561111;-0.36500
1563888;-0.37000
1566666;-0.35500
1569444;-0.34500
1572222;-0.35500
1575000;-0.35500
1577777;-0.38000
1580555;-0.39000
1583333;-0.38500
1586111;-0.37500
1588888;-0.37500
1591666;-0.37500
1594444;-0.37000
1597222;-0.37500
1600000;-0.36500
1602777;-0.35500
1605555;-0.36500
1608333;-0.38000
1611111;-0.38500
1613888;-0.38500
1616666;-0.37500
1619444;-0.37500
1622222;-0.39000
1625000;-0.41500
1627777;-0.47000
1630555;-0.49500
1633333;-0.50500
1636111;-0.48000
1638888;-0.46500
1641666;-0.48000
1644444;-0.52000
1647222;-0.58000
1650000;-0.61000
1652777;-0.59500
1655555;-0.54500
1658333;-0.45500
1661111;-0.35000
1663888;-0.22500
1666666;-0.05500
1669444;0.16500
1672222;0.43500
1675000;0.66000
1677777;0.83000
1680555;0.91000
1683333;0.88500
1686111;0.65000
1688888;0.27000
1691666;-0.12500
1694444;-0.38500
1697222;-0.51000
1700000;-0.52500
1702777;-0.48500
1705555;-0.45000
1708333;-0.43000
1711111;-0.44500
1713888;-0.44500
1716666;-0.42000
1719444;-0.41500
1722222;-0.40000
1725000;-0.40500
1727777;-0.43000
1730555;-0.43500
1733333;-0.42500
1736111;-0.43000
1738888;-0.43000
1741666;-0.43000
1744444;-0.43000
1747222;-0.43000
1750000;-0.41500
1752777;-0.42500
1755555;-0.43000
1758333;-0.43000
1761111;-0.44000
1763888;-0.44000
1766666;-0.43500
1769444;-0.43000
1772222;-0.43000
1775000;-0.43000
1777777;-0.44500
1780555;-0.44000
1783333;-0.43000
1786111;-0.43000
1788888;-0.43000
1791666;-0.43500
1794444;-0.45000
1797222;-0.45500
1799999;-0.43500
1802777;-0.42500
1805555;-0.41500
1808333;-0.42500
1811111;-0.42500
1813888;-0.44500
1816666;-0.44000
1819444;-0.43500
1822222;-0.44000
1824999;-0.45000
1827777;-0.45000
1830555;-0.44500
1833333;-0.43500
1836111;-0.42000
1838888;-0.41000
1841666;-0.43500
1844444;-0.45000
1847222;-0.45000
1849999;-0.44500
1852777;-0.43000
1855555;-0.44000
1858333;-0.44000
1861111;-0.45000
1863888;-0.44000
1866666;-0.44000
1869444;-0.43000
1872222;-0.43500
1874999;-0.43500
1877777;-0.44500
1880555;-0.45000
1883333;-0.44500
1886111;-0.43500
1888888;-0.42500
1891666;-0.43000
1894444;-0.44000
1897222;-0.44000
1899999;-0.43000
1902777;-0.43000
1905555;-0.44000
1908333;-0.46000
1911111;-0.47000
1913888;-0.48000
1916666;-0.47000
1919444;-0.47000
1922222;-0.46000
1924999;-0.45000
1927777;-0.46500
1930555;-0.48000
1933333;-0.47500
1936111;-0.47500
1938888;-0.47000
1941666;-0.49000
1944444;-0.49000
1947222;-0.50500
1949999;-0.50000
1952777;-0.49500
1955555;-0.49500
1958333;-0.49500
1961111;-0.50500
1963888;-0.51500
1966666;-0.50500
1969444;-0.48500
1972222;-0.47000
1974999;-0.47000
1977777;-0.47000
1980555;-0.47000
1983333;-0.45000
1986111;-0.42500
1988888;-0.39500
1991666;-0.39000
1994444;-0.39500
1997222;-0.39000
1999999;-0.37000
2002777;-0.36000
2005555;-0.34500
2008333;-0.34500
2011111;-0.34500
2013888;-0.34500
2016666;-0.34000
2019444;-0.33000
2022222;-0.33000
2024999;-0.32000
2027777;-0.32000
2030555;-0.32500
2033333;-0.33000
2036111;-0.32000
2038888;-0.33000
2041666;-0.32500
2044444;-0.33000
2047222;-0.33000
2049999;-0.32000
2052777;-0.31000
2055555;-0.30000
2058333;-0.31500
2061111;-0.33500
2063888;-0.34000
2066666;-0.33500
2069444;-0.33000
2072222;-0.33500
2074999;-0.34000
2077777;-0.34000
2080555;-0.33000
2083333;-0.33000
2086111;-0.32500
2088888;-0.33000
2091666;-0.33500
2094444;-0.34000
2097222;-0.34000
2099999;-0.33500
2102777;-0.33000
2105555;-0.33500
2108333;-0.33500
2111111;-0.35500
2113888;-0.36500
2116666;-0.35000
2119444;-0.35500
2122222;-0.35500
2124999;-0.35500
2127777;-0.37000
2130555;-0.38500
2133333;-0.36500
2136111;-0.35000
2138888;-0.34500
2141666;-0.36500
2144444;-0.37500
2147222;-0.37000
2149999;-0.37000
2152777;-0.36500
2155555;-0.37000
2158333;-0.36500
2161111;-0.37500
2163888;-0.40000
2166666;-0.37000
2169444;-0.38000
2172222;-0.37000
2174999;-0.39000
2177777;-0.39000
2180555;-0.39000
2183333;-0.38000
2186110;-0.35500
2188888;-0.38500
2191666;-0.38000
2194444;-0.37500
2197222;-0.39500
2199999;-0.37500
2202777;-0.37500
2205555;-0.38500
2208333;-0.38000
2211110;-0.39000
2213888;-0.39000
2216666;-0.39000
2219444;-0.38000
2222222;-0.38500
2224999;-0.38500
2227777;-0.38000
2230555;-0.38500
2233333;-0.37000
2236110;-0.38500
2238888;-0.38000
2241666;-0.37000
2244444;-0.37500
2247222;-0.39500
2249999;-0.38500
2252777;-0.37500
2255555;-0.37000
2258333;-0.37000
2261110;-0.39000
2263888;-0.38000
2266666;-0.38500
2269444;-0.37000
2272222;-0.37500
2274999;-0.37000
2277777;-0.37000
2280555;-0.37500
2283333;-0.37000
2286110;-0.37500
2288888;-0.36500
2291666;-0.37000
2294444;-0.38000
2297222;-0.38000
2299999;-0.37000
2302777;-0.35500
2305555;-0.34000
2308333;-0.34000
2311110;-0.35000
2313888;-0.35500
2316666;-0.32500
2319444;-0.31000
2322222;-0.31000
2324999;-0.31000
2327777;-0.32000
2330555;-0.31000
2333333;-0.29500
2336110;-0.26500
2338888;-0.26500
2341666;-0.25500
2344444;-0.25500
2347222;-0.26000
2349999;-0.25000
2352777;-0.25000
2355555;-0.25500
2358333;-0.27500
2361110;-0.30000
2363888;-0.28500
2366666;-0.25000
2369444;-0.25000
2372222;-0.25500
2374999;-0.25500
2377777;-0.24500
2380555;-0.25500
2383333;-0.25500
2386110;-0.27500
2388888;-0.29500
2391666;-0.31500
2394444;-0.33000
2397222;-0.36000
2399999;-0.38500
2402777;-0.37500
2405555;-0.38000
2408333;-0.38500
2411110;-0.40500
2413888;-0.39500
2416666;-0.38500
2419444;-0.38500
2422222;-0.37000
2424999;-0.38500
2427777;-0.39000
2430555;-0.40500
2433333;-0.39000
2436110;-0.39000
2438888;-0.39000
2441666;-0.40000
2444444;-0.40000
2447222;-0.42000
2449999;-0.40000
2452777;-0.39500
2455555;-0.39000
2458333;-0.39000
2461110;-0.41000
2463888;-0.41500
2466666;-0.40500
2469444;-0.39000
2472222;-0.38500
2474999;-0.40000
2477777;-0.43000
2480555;-0.46500
2483333;-0.49500
2486110;-0.49000
2488888;-0.51500
2491666;-0.55500
2494444;-0.59000
2497222;-0.55000
2499999;-0.43000
2502777;-0.26000
2505555;-0.08000
2508333;0.12500
2511110;0.36500
2513888;0.63500
2516666;0.87000
2519444;0.99500
2522222;1.00000
2524999;0.80000
2527777;0.42500
2530555;0.00000
2533333;-0.30500
2536110;-0.45500
2538888;-0.51000
2541666;-0.55000
2544444;-0.53500
2547222;-0.52000
2549999;-0.46000
2552777;-0.42500
2555555;-0.42500
2558333;-0.42500
2561110;-0.44000
2563888;-0.43000
2566666;-0.42500
2569444;-0.41500
2572222;-0.41500
2574999;-0.43000
2577777;-0.43000
2580555;-0.44500
2583333;-0.43500
2586110;-0.42500
2588888;-0.42000
2591666;-0.42500
2594444;-0.43000
2597221;-0.43500
2599999;-0.43000
2602777;-0.41000
2605555;-0.42000
2608333;-0.43000
2611110;-0.43000
2613888;-0.44000
2616666;-0.42500
2619444;-0.42000
2622221;-0.42500
2624999;-0.42500
2627777;-0.42500
2630555;-0.43000
2633333;-0.42500
2636110;-0.41500
2638888;-0.42000
2641666;-0.43000
2644444;-0.43500
2647221;-0.44500
2649999;-0.42500
2652777;-0.43000
2655555;-0.43500
2658333;-0.43000
2661110;-0.44500
2663888;-0.45000
2666666;-0.44500
2669444;-0.43000
2672221;-0.43500
2674999;-0.44500
2677777;-0.45000
2680555;-0.44500
2683333;-0.44000
2686110;-0.43500
2688888;-0.43500
2691666;-0.44000
2694444;-0.44500
2697221;-0.44500
2699999;-0.44000
2702777;-0.42000
2705555;-0.43000
2708333;-0.43000
2711110;-0.44000
2713888;-0.45000
2716666;-0.43500
2719444;-0.42500
2722221;-0.42500
2724999;-0.44000
2727777;-0.44000
2730555;-0.45500
2733333;-0.44000
2736110;-0.42500
2738888;-0.42500
2741666;-0.43500
2744444;-0.45500
2747221;-0.46000
2749999;-0.45500
2752777;-0.44000
2755555;-0.45000
2758333;-0.45000
2761110;-0.47000
2763888;-0.49500
2766666;-0.46500
2769444;-0.46000
2772221;-0.46000
2774999;-0.48000
2777777;-0.48000
2780555;-0.48000
2783333;-0.48000
2786110;-0.46500
2788888;-0.45500
2791666;-0.46500
2794444;-0.47000
2797221;-0.48500
2799999;-0.48000
2802777;-0.46500
2805555;-0.46500
2808333;-0.48000
2811110;-0.47000
2813888;-0.46500
2816666;-0.45500
2819444;-0.42500
2822221;-0.42500
2824999;-0.41500
2827777;-0.41000
2830555;-0.40500
2833333;-0.38000
2836110;-0.36000
2838888;-0.34500
2841666;-0.33500
2844444;-0.33000
2847221;-0.33000
2849999;-0.32000
2852777;-0.30000
2855555;-0.29500
2858333;-0.30000
2861110;-0.30500
2863888;-0.30000
2866666;-0.28500
2869444;-0.27500
2872221;-0.29000
2874999;-0.29500
2877777;-0.28500
2880555;-0.29500
2883333;-0.27500
2886110;-0.28000
2888888;-0.28000
2891666;-0.28500
2894444;-0.29000
2897221;-0.30000
2899999;-0.29000
2902777;-0.28000
2905555;-0.28500
2908333;-0.29500
2911110;-0.28500
2913888;-0.29000
2916666;-0.29500
2919444;-0.28500
2922221;-0.28000
2924999;-0.29500
2927777;-0.31000
2930555;-0.30500
2933333;-0.30000
2936110;-0.29000
2938888;-0.29500
2941666;-0.30500
2944444;-0.30500
2947221;-0.31500
2949999;-0.31000
2952777;-0.29500
2955555;-0.29500
2958333;-0.30500
2961110;-0.31000
2963888;-0.31000
2966666;-0.30500
2969444;-0.29500
2972221;-0.31000
2974999;-0.31000
2977777;-0.32500
2980555;-0.32000
2983332;-0.32500
2986110;-0.30500
2988888;-0.30500
2991666;-0.31500
2994444;-0.33000
2997221;-0.33500
2999999;-0.32000
3002777;-0.33000
3005555;-0.31500
3008332;-0.32000
3011110;-0.33000
3013888;-0.34000
3016666;-0.33000
3019444;-0.31500
3022221;-0.32000
3024999;-0.32500
3027777;-0.33000
3030555;-0.34000
3033332;-0.33000
3036110;-0.32000
3038888;-0.31000
3041666;-0.32500
3044444;-0.33000
3047221;-0.34500
3049999;-0.33500
3052777;-0.31500
3055555;-0.31000
3058332;-0.31500
3061110;-0.33000
3063888;-0.33500
3066666;-0.31500
3069444;-0.31500
3072221;-0.30500
3074999;-0.30000
3077777;-0.30500
3080555;-0.29500
3083332;-0.28000
3086110;-0.26000
3088888;-0.26500
3091666;-0.26000
3094444;-0.25000
3097221;-0.25500
3099999;-0.24000
3102777;-0.22500
3105555;-0.22000
3108332;-0.23500
3111110;-0.23500
3113888;-0.23000
3116666;-0.21000
3119444;-0.20000
3122221;-0.19000
3124999;-0.20500
3127777;-0.20500
3130555;-0.20500
3133332;-0.21000
3136110;-0.21000
3138888;-0.22000
3141666;-0.21500
3144444;-0.22500
3147221;-0.21000
3149999;-0.21000
3152777;-0.21000
3155555;-0.19000
3158332;-0.18000
3161110;-0.16000
3163888;-0.19000
3166666;-0.24000
3169444;-0.24500
3172221;-0.27000
3174999;-0.28500
3177777;-0.30500
3180555;-0.32500
3183332;-0.33000
3186110;-0.33000
3188888;-0.34000
3191666;-0.33500
3194444;-0.34500
3197221;-0.34500
3199999;-0.34000
3202777;-0.33500
3205555;-0.34000
3208332;-0.34500
3211110;-0.35000
3213888;-0.36500
3216666;-0.36000
3219444;-0.35000
3222221;-0.35000
3224999;-0.35000
3227777;-0.35500
3230555;-0.36000
3233332;-0.36000
3236110;-0.36000
3238888;-0.34500
3241666;-0.36000
3244444;-0.37500
3247221;-0.38000
3249999;-0.39500
3252777;-0.40500
3255555;-0.45500
3258332;-0.49000
3261110;-0.52500
3263888;-0.53500
3266666;-0.56500
3269444;-0.49500
3272221;-0.37000
3274999;-0.19000
3277777;0.00000
3280555;0.22000
3283332;0.52500
3286110;0.81500
3288888;1.03000
3291666;1.11000
3294444;1.03000
3297221;0.71000
3299999;0.22000
3302777;-0.22500
3305555;-0.46500
3308332;-0.50000
3311110;-0.45000
3313888;-0.41500
3316666;-0.38500
3319444;-0.38500
3322221;-0.39500
3324999;-0.40000
3327777;-0.40500
3330555;-0.41500
3333332;-0.41000
3336110;-0.40500
3338888;-0.41000
3341666;-0.41500
3344444;-0.42000
3347221;-0.42500
3349999;-0.41500
3352777;-0.40500
3355555;-0.40500
3358332;-0.41500
3361110;-0.42000
3363888;-0.43500
3366666;-0.43000
3369444;-0.42000
3372221;-0.41000
3374999;-0.41500
3377777;-0.42500
3380555;-0.43000
3383332;-0.42000
3386110;-0.41000
3388888;-0.41000
3391666;-0.42000
3394443;-0.42000
3397221;-0.42000
3399999;-0.41000
3402777;-0.41000
3405555;-0.41000
3408332;-0.42000
3411110;-0.42000
3413888;-0.43500
3416666;-0.41500
3419443;-0.41000
3422221;-0.41500
3424999;-0.42000
3427777;-0.42000
3430555;-0.43500
3433332;-0.42500
3436110;-0.41500
3438888;-0.42500
3441666;-0.42000
3444443;-0.43500
3447221;-0.43000
3449999;-0.42500
3452777;-0.42000
3455555;-0.42000
3458332;-0.43000
3461110;-0.43500
3463888;-0.44500
3466666;-0.43500
3469443;-0.43000
3472221;-0.42500
3474999;-0.42500
3477777;-0.43500
3480555;-0.44000
3483332;-0.43000
3486110;-0.43000
3488888;-0.43000
3491666;-0.43000
3494443;-0.43500
3497221;-0.45000
3499999;-0.43000
3502777;-0.43500
3505555;-0.43000
3508332;-0.43000
3511110;-0.43500
3513888;-0.44500
3516666;-0.45500
3519443;-0.43500
3522221;-0.43500
3524999;-0.43500
3527777;-0.45500
3530555;-0.45000
3533332;-0.44500
3536110;-0.43500
3538888;-0.43000
3541666;-0.43500
3544443;-0.44000
3547221;-0.44000
3549999;-0.43000
3552777;-0.41500
3555555;-0.41500
3558332;-0.41500
3561110;-0.42000
3563888;-0.41000
3566666;-0.39000
3569443;-0.37000
3572221;-0.36000
3574999;-0.35500
3577777;-0.35500
3580555;-0.36000
3583332;-0.34000
3586110;-0.32500
3588888;-0.32000
3591666;-0.31500
3594443;-0.32000
3597221;-0.32500
3599999;-0.31000
3602777;-0.29500
3605555;-0.29500
3608332;-0.29500
3611110;-0.30500
3613888;-0.30500
3616666;-0.30000
3619443;-0.29000
3622221;-0.29000
3624999;-0.28500
3627777;-0.29000
3630555;-0.28500
3633332;-0.28500
3636110;-0.28500
3638888;-0.28000
3641666;-0.28500
3644443;-0.30000
3647221;-0.29500
3649999;-0.30000
3652777;-0.29000
3655555;-0.28500
3658332;-0.28500
3661110;-0.29000
3663888;-0.30500
3666666;-0.29500
3669443;-0.29000
3672221;-0.30500
3674999;-0.30500
3677777;-0.32000
3680555;-0.32000
3683332;-0.30500
3686110;-0.30000
3688888;-0.29500
3691666;-0.31000
3694443;-0.32000
3697221;-0.33000
3699999;-0.31000
3702777;-0.31500
3705555;-0.31500
3708332;-0.32000
3711110;-0.32500
3713888;-0.34000
3716666;-0.31500
3719443;-0.31500
3722221;-0.31500
3724999;-0.32000
3727777;-0.33500
3730555;-0.34000
3733332;-0.33000
3736110;-0.32000
3738888;-0.32000
3741666;-0.33500
3744443;-0.34500
3747221;-0.35000
3749999;-0.34000
3752777;-0.33500
3755555;-0.33500
3758332;-0.35000
3761110;-0.36000
3763888;-0.35500
3766666;-0.35000
3769443;-0.34000
3772221;-0.34000
3774999;-0.33500
3777777;-0.35500
3780554;-0.35500
3783332;-0.34000
3786110;-0.32500
3788888;-0.33500
3791666;-0.33500
3794443;-0.34500
3797221;-0.34000
3799999;-0.34000
3802777;-0.33000
3805554;-0.34000
3808332;-0.32500
3811110;-0.33000
3813888;-0.34500
3816666;-0.33500
3819443;-0.32000
3822221;-0.32000
3824999;-0.31000
3827777;-0.31500
3830554;-0.31500
3833332;-0.29500
3836110;-0.28500
3838888;-0.26500
3841666;-0.26500
3844443;-0.26500
3847221;-0.27000
3849999;-0.26000
3852777;-0.24500
3855554;-0.23500
3858332;-0.23000
3861110;-0.23000
3863888;-0.22500
3866666;-0.21000
3869443;-0.21000
3872221;-0.20000
3874999;-0.21500
3877777;-0.22500
3880554;-0.23500
3883332;-0.23000
3886110;-0.21500
3888888;-0.20500
3891666;-0.20500
3894443;-0.21000
3897221;-0.19000
3899999;-0.17000
3902777;-0.16000
3905554;-0.21000
3908332;-0.24000
3911110;-0.27000
3913888;-0.27500
3916666;-0.27500
3919443;-0.27500
3922221;-0.28000
3924999;-0.30000
3927777;-0.31000
3930554;-0.33500
3933332;-0.33500
3936110;-0.33500
3938888;-0.33500
3941666;-0.34000
3944443;-0.34000
3947221;-0.35500
3949999;-0.35000
3952777;-0.34500
3955554;-0.33500
3958332;-0.35500
3961110;-0.35500
3963888;-0.36000
3966666;-0.34500
3969443;-0.35500
3972221;-0.35000
3974999;-0.36000
3977777;-0.37000
3980554;-0.36000
3983332;-0.36000
3986110;-0.35000
3988888;-0.34500
3991666;-0.35000
3994443;-0.35500
3997221;-0.38500
3999999;-0.37000
4002777;-0.39000
4005554;-0.42500
4008332;-0.46500
4011110;-0.49500
4013888;-0.52000
4016666;-0.54500
4019443;-0.56500
4022221;-0.49000
4024999;-0.34500
4027777;-0.19500
4030554;-0.01000
4033332;0.23500
4036110;0.53500
4038888;0.81000
4041666;0.99500
4044443;1.04000
4047221;0.91500
4049999;0.57500
4052777;0.12000
4055554;-0.27500
4058332;-0.47500
4061110;-0.50000
4063888;-0.44500
4066666;-0.39500
4069443;-0.36500
4072221;-0.37000
4074999;-0.39000
4077777;-0.39000
4080554;-0.40000
4083332;-0.40000
4086110;-0.39000
4088888;-0.39000
4091666;-0.39500
4094443;-0.40000
4097221;-0.41000
4099999;-0.40000
4102777;-0.40500
4105554;-0.40500
4108332;-0.40500
4111110;-0.41500
4113888;-0.41000
4116666;-0.39500
4119443;-0.39000
4122221;-0.38500
4124999;-0.39500
4127777;-0.41000
4130554;-0.41000
4133332;-0.40500
4136110;-0.40000
4138888;-0.40000
4141666;-0.41000
4144443;-0.42000
4147221;-0.42000
4149999;-0.40000
4152777;-0.40000
4155554;-0.39500
4158332;-0.40000
4161110;-0.41500
4163888;-0.41500
4166666;-0.40000
4169443;-0.40500
4172221;-0.39500
4174999;-0.40000
4177777;-0.40500
4180554;-0.41500
4183332;-0.42000
4186110;-0.40000
4188888;-0.39000
4191665;-0.40500
4194443;-0.40000
4197221;-0.41000
4199999;-0.41000
4202777;-0.38500
4205554;-0.39000
4208332;-0.40000
4211110;-0.41000
4213888;-0.41000
4216665;-0.40000
4219443;-0.39500
4222221;-0.39500
4224999;-0.40000
4227777;-0.41000
4230554;-0.40500
4233332;-0.40500
4236110;-0.40000
4238888;-0.38500
4241665;-0.40000
4244443;-0.40500
4247221;-0.40000
4249999;-0.39500
4252777;-0.39500
4255554;-0.39500
4258332;-0.40000
4261110;-0.39500
4263888;-0.41500
4266665;-0.40000
4269443;-0.39500
4272221;-0.39500
4274999;-0.40500
4277777;-0.41500
4280554;-0.41000
4283332;-0.41500
4286110;-0.39500
4288888;-0.38500
4291665;-0.40500
4294443;-0.40000
4297221;-0.41500
4299999;-0.40000
4302777;-0.39500
4305554;-0.39500
4308332;-0.39500
4311110;-0.40000
4313888;-0.40500
4316665;-0.39000
4319443;-0.38000
4322221;-0.37500
4324999;-0.36500
4327777;-0.37500
4330554;-0.37000
4333332;-0.34500
4336110;-0.32500
4338888;-0.32000
4341665;-0.31500
4344443;-0.31500
4347221;-0.31000
4349999;-0.30500
4352777;-0.28500
4355554;-0.27000
4358332;-0.27000
4361110;-0.27000
4363888;-0.28500
4366665;-0.27000
4369443;-0.25500
4372221;-0.25500
4374999;-0.26500
4377777;-0.26500
4380554;-0.27000
4383332;-0.26500
4386110;-0.26000
4388888;-0.25500
4391665;-0.26500
4394443;-0.26500
4397221;-0.26500
4399999;-0.27000
4402777;-0.26000
4405554;-0.26000
4408332;-0.26500
4411110;-0.28000
4413888;-0.28000
4416665;-0.26500
4419443;-0.26500
4422221;-0.24500
4424999;-0.26500
4427777;-0.28000
4430554;-0.29000
4433332;-0.26000
4436110;-0.27500
4438888;-0.27000
4441665;-0.28000
4444443;-0.28500
4447221;-0.29000
4449999;-0.29500
4452777;-0.28500
4455554;-0.29000
4458332;-0.29500
4461110;-0.30000
4463888;-0.31000
4466665;-0.30500
4469443;-0.29500
4472221;-0.29000
4474999;-0.29500
4477777;-0.31500
4480554;-0.31500
4483332;-0.31000
4486110;-0.30000
4488888;-0.29500
4491665;-0.30500
4494443;-0.30500
4497221;-0.31500
4499999;-0.30500
4502777;-0.30000
4505554;-0.30500
4508332;-0.31500
4511110;-0.32000
4513888;-0.33500
4516665;-0.32500
4519443;-0.31000
4522221;-0.30500
4524999;-0.31500
4527777;-0.32500
4530554;-0.33000
4533332;-0.32500
4536110;-0.32000
4538888;-0.32000
4541665;-0.32000
4544443;-0.32000
4547221;-0.33000
4549999;-0.31000
4552777;-0.29500
4555554;-0.30000
4558332;-0.31500
4561110;-0.33000
4563888;-0.33000
4566665;-0.33000
4569443;-0.32500
4572221;-0.32000
4574999;-0.32500
4577776;-0.31500
4580554;-0.31500
4583332;-0.31500
4586110;-0.31000
4588888;-0.31000
4591665;-0.31000
4594443;-0.31500
4597221;-0.31000
4599999;-0.29500
4602776;-0.30000
4605554;-0.29000
4608332;-0.28000
4611110;-0.28000
4613888;-0.28500
4616665;-0.26500
4619443;-0.27000
4622221;-0.24500
4624999;-0.24000
4627776;-0.24000
4630554;-0.24000
4633332;-0.23500
4636110;-0.22000
4638888;-0.22500
4641665;-0.21500
4644443;-0.21000
4647221;-0.21000
4649999;-0.19500
4652776;-0.20500
4655554;-0.18500
4658332;-0.20000
4661110;-0.22000
4663888;-0.22500
4666665;-0.21000
4669443;-0.19000
4672221;-0.18500
4674999;-0.19500
4677776;-0.19000
4680554;-0.19000
4683332;-0.16500
4686110;-0.16500
4688888;-0.20500
4691665;-0.24500
4694443;-0.26500
4697221;-0.29000
4699999;-0.28500
4702776;-0.29000
4705554;-0.29500
4708332;-0.30500
4711110;-0.32000
4713888;-0.33000
4716665;-0.32500
4719443;-0.32500
4722221;-0.33500
4724999;-0.34000
4727776;-0.34500
4730554;-0.35000
4733332;-0.34000
4736110;-0.34000
4738888;-0.34500
4741665;-0.35500
4744443;-0.37500
4747221;-0.37000
4749999;-0.36500
4752776;-0.36500
4755554;-0.35500
4758332;-0.35000
4761110;-0.36500
4763888;-0.37000
4766665;-0.35000
4769443;-0.34000
4772221;-0.34500
4774999;-0.35000
4777776;-0.37500
4780554;-0.38500
4783332;-0.37000
4786110;-0.37000
4788888;-0.38000
4791665;-0.41500
4794443;-0.45500
4797221;-0.49000
4799999;-0.52500
4802776;-0.55500
4805554;-0.57500
4808332;-0.55000
4811110;-0.46000
4813888;-0.33500
4816665;-0.16500
4819443;0.01500
4822221;0.26000
4824999;0.54000
4827776;0.76000
4830554;0.87500
4833332;0.88500
4836110;0.72000
4838888;0.39500
4841665;-0.01000
4844443;-0.31500
4847221;-0.49000
4849999;-0.53000
4852776;-0.48500
4855554;-0.44500
4858332;-0.41000
4861110;-0.42500
4863888;-0.44500
4866665;-0.41500
4869443;-0.40500
4872221;-0.39500
4874999;-0.39500
4877776;-0.41000
4880554;-0.43500
4883332;-0.41500
4886110;-0.42000
4888888;-0.42500
4891665;-0.42500
4894443;-0.42500
4897221;-0.43000
4899999;-0.41000
4902776;-0.41500
4905554;-0.42000
4908332;-0.42500
4911110;-0.44000
4913888;-0.44000
4916665;-0.44000
4919443;-0.43000
4922221;-0.43000
4924999;-0.43000
4927776;-0.43000
4930554;-0.43000
4933332;-0.42500
4936110;-0.44000
4938888;-0.43500
4941665;-0.42500
4944443;-0.42500
4947221;-0.44000
4949999;-0.43500
4952776;-0.43000
4955554;-0.42500
4958332;-0.43500
4961110;-0.43500
4963887;-0.45000
4966665;-0.45000
4969443;-0.45000
4972221;-0.45000
4974999;-0.44500
4977776;-0.45000
4980554;-0.45000
4983332;-0.43500
4986110;-0.44000
4988887;-0.44000
4991665;-0.45500
4994443;-0.45500
4997221;-0.46000
4999999;-0.45000
5002776;-0.43500
5005554;-0.42000
5008332;-0.43000
5011110;-0.44000
5013887;-0.45000
5016665;-0.44500
5019443;-0.44000
5022221;-0.43000
5024999;-0.43500
5027776;-0.44500
5030554;-0.43500
5033332;-0.44000
5036110;-0.41000
5038887;-0.41000
5041665;-0.41000
5044443;-0.43500
5047221;-0.44000
5049999;-0.43000
5052776;-0.42500
5055554;-0.44000
5058332;-0.44500
5061110;-0.45500
5063887;-0.45500
5066665;-0.45000
5069443;-0.45000
5072221;-0.46500
5074999;-0.47000
5077776;-0.48000
5080554;-0.49000
5083332;-0.48000
5086110;-0.47000
5088887;-0.47000
5091665;-0.46000
5094443;-0.48000
5097221;-0.48000
5099999;-0.47500
5102776;-0.47500
5105554;-0.46500
5108332;-0.46000
5111110;-0.46500
5113887;-0.46000
5116665;-0.43000
5119443;-0.41000
5122221;-0.40000
5124999;-0.40000
5127776;-0.39000
5130554;-0.37500
5133332;-0.36500
5136110;-0.35000
5138887;-0.34500
5141665;-0.34000
5144443;-0.36500
5147221;-0.37500
5149999;-0.36000
5152776;-0.34000
5155554;-0.33500
5158332;-0.33000
5161110;-0.33500
5163887;-0.35000
5166665;-0.34000
5169443;-0.33000
5172221;-0.33000
5174999;-0.32500
5177776;-0.33000
5180554;-0.33500
5183332;-0.33000
5186110;-0.34000
5188887;-0.33000
5191665;-0.33000
5194443;-0.33500
5197221;-0.34500
5199999;-0.34000
5202776;-0.32500
5205554;-0.33000
5208332;-0.34500
5211110;-0.36500
5213887;-0.38500
5216665;-0.37500
5219443;-0.34500
5222221;-0.32000
5224999;-0.32500
5227776;-0.34000
5230554;-0.35000
5233332;-0.35500
5236110;-0.35000
5238887;-0.35500
5241665;-0.36500
5244443;-0.37000
5247221;-0.37500
5249999;-0.36500
5252776;-0.35000
5255554;-0.36000
5258332;-0.36000
5261110;-0.37000
5263887;-0.39000
5266665;-0.37500
5269443;-0.37000
5272221;-0.38000
5274999;-0.38500
5277776;-0.39000
5280554;-0.38000
5283332;-0.36500
5286110;-0.36500
5288887;-0.36500
5291665;-0.38000
5294443;-0.39000
5297221;-0.40000
5299999;-0.39000
5302776;-0.39500
5305554;-0.41000
5308332;-0.40500
5311110;-0.39500
5313887;-0.38500
5316665;-0.38500
5319443;-0.38500
5322221;-0.37000
5324999;-0.39000
5327776;-0.39500
5330554;-0.40500
5333332;-0.40000
5336110;-0.39000
5338887;-0.39500
5341665;-0.38500
5344443;-0.38000
5347221;-0.39500
5349999;-0.38500
5352776;-0.39000
5355554;-0.37000
5358332;-0.38500
5361110;-0.39500
5363887;-0.39000
5366665;-0.37500
5369443;-0.38000
5372221;-0.38000
5374998;-0.38500
5377776;-0.39500
5380554;-0.40000
5383332;-0.39500
5386110;-0.39500
5388887;-0.39000
5391665;-0.37500
5394443;-0.38000
5397221;-0.39500
5399998;-0.38500
5402776;-0.37500
5405554;-0.35500
5408332;-0.35000
5411110;-0.35000
5413887;-0.35500
5416665;-0.34500
5419443;-0.35000
5422221;-0.34000
5424998;-0.33500
5427776;-0.34000
5430554;-0.33000
5433332;-0.32000
5436110;-0.31500
5438887;-0.31000
5441665;-0.31000
5444443;-0.31000
5447221;-0.31000
5449998;-0.30500
5452776;-0.30000
5455554;-0.29000
5458332;-0.27500
5461110;-0.27500
5463887;-0.28000
5466665;-0.27000
5469443;-0.27500
5472221;-0.28000
5474998;-0.28000
5477776;-0.29500
5480554;-0.28500
5483332;-0.27500
5486110;-0.27000
5488887;-0.26500
5491665;-0.26000
5494443;-0.27000
5497221;-0.32000
5499998;-0.31500
5502776;-0.32500
5505554;-0.32500
5508332;-0.35500
5511110;-0.38000
5513887;-0.39000
5516665;-0.39500
5519443;-0.39500
5522221;-0.40500
5524998;-0.41000
5527776;-0.43000
5530554;-0.44000
5533332;-0.43500
5536110;-0.43000
5538887;-0.42000
5541665;-0.42500
5544443;-0.42500
5547221;-0.43000
5549998;-0.42000
5552776;-0.41500
5555554;-0.40500
5558332;-0.40000
5561110;-0.41000
5563887;-0.42000
5566665;-0.41500
5569443;-0.42000
5572221;-0.42500
5574998;-0.41500
5577776;-0.41500
5580554;-0.43000
5583332;-0.43000
5586110;-0.44500
5588887;-0.46500
5591665;-0.51000
5594443;-0.54500
5597221;-0.56000
5599998;-0.57500
5602776;-0.60000
5605554;-0.59000
5608332;-0.52000
5611110;-0.40000
5613887;-0.25000
5616665;-0.06500
5619443;0.16000
5622221;0.41500
5624998;0.67000
5627776;0.84500
5630554;0.91000
5633332;0.83500
5636110;0.55500
5638887;0.13500
5641665;-0.23500
5644443;-0.46000
5647221;-0.56500
5649998;-0.58500
5652776;-0.57500
5655554;-0.57500
5658332;-0.54000
5661110;-0.51500
5663887;-0.49500
5666665;-0.48000
5669443;-0.47000
5672221;-0.46500
5674998;-0.46000
5677776;-0.47000
5680554;-0.48000
5683332;-0.48500
5686110;-0.47500
5688887;-0.46500
5691665;-0.47000
5694443;-0.47500
5697221;-0.47500
5699998;-0.47500
5702776;-0.47000
5705554;-0.46500
5708332;-0.48000
5711110;-0.49000
5713887;-0.49500
5716665;-0.48000
5719443;-0.47000
5722221;-0.47000
5724998;-0.47000
5727776;-0.47500
5730554;-0.49500
5733332;-0.49500
5736110;-0.48000
5738887;-0.47000
5741665;-0.48500
5744443;-0.47500
5747221;-0.49000
5749998;-0.48500
5752776;-0.46500
5755554;-0.46500
5758332;-0.48000
5761109;-0.48500
5763887;-0.49000
5766665;-0.48500
5769443;-0.48500
5772221;-0.47500
5774998;-0.48500
5777776;-0.49000
5780554;-0.49500
5783332;-0.50000
5786109;-0.49000
5788887;-0.48500
5791665;-0.48500
5794443;-0.49000
5797221;-0.50000
5799998;-0.49000
5802776;-0.49000
5805554;-0.47500
5808332;-0.48000
5811109;-0.49000
5813887;-0.49500
5816665;-0.48000
5819443;-0.49000
5822221;-0.47500
5824998;-0.47000
5827776;-0.48000
5830554;-0.49500
5833332;-0.48500
5836109;-0.48500
5838887;-0.48500
5841665;-0.47500
5844443;-0.49000
5847221;-0.50000
5849998;-0.49500
5852776;-0.48000
5855554;-0.48500
5858332;-0.49000
5861109;-0.50500
5863887;-0.52000
5866665;-0.52500
5869443;-0.51500
5872221;-0.50500
5874998;-0.51500
5877776;-0.53000
5880554;-0.54500
5883332;-0.53500
5886109;-0.51500
5888887;-0.51000
5891665;-0.52000
5894443;-0.53000
5897221;-0.53000
5899998;-0.52000
5902776;-0.51000
5905554;-0.50500
5908332;-0.51000
5911109;-0.51000
5913887;-0.50000
5916665;-0.49000
5919443;-0.47000
5922221;-0.44500
5924998;-0.44000
5927776;-0.43000
5930554;-0.42500
5933332;-0.40500
5936109;-0.39000
5938887;-0.37000
5941665;-0.36500
5944443;-0.36000
5947221;-0.36000
5949998;-0.34000
5952776;-0.33500
5955554;-0.32000
5958332;-0.32500
5961109;-0.32500
5963887;-0.33500
5966665;-0.33000
5969443;-0.32000
5972221;-0.31000
5974998;-0.31500
5977776;-0.31000
5980554;-0.32000
5983332;-0.31000
5986109;-0.30500
5988887;-0.30000
5991665;-0.29500
5994443;-0.31000
5997221;-0.32500
5999998;-0.31500
6002776;-0.31500
6005554;-0.30500
6008332;-0.30000
6011109;-0.31500
6013887;-0.31500
6016665;-0.30500
6019443;-0.31000
6022221;-0.29500
6024998;-0.31500
6027776;-0.31500
6030554;-0.33000
6033332;-0.31000
6036109;-0.31000
6038887;-0.30500
6041665;-0.30000
6044443;-0.32000
6047221;-0.32500
6049998;-0.32000
6052776;-0.31000
6055554;-0.30500
6058332;-0.31500
6061109;-0.34000
6063887;-0.35000
6066665;-0.33500
6069443;-0.32500
6072221;-0.32500
6074998;-0.33000
6077776;-0.34000
6080554;-0.35000
6083332;-0.34500
6086109;-0.33500
6088887;-0.33000
6091665;-0.33000
6094443;-0.34000
6097221;-0.35000
6099998;-0.35500
6102776;-0.34500
6105554;-0.34000
6108332;-0.34000
6111109;-0.35000
6113887;-0.36000
6116665;-0.36500
6119443;-0.34000
6122221;-0.33500
6124998;-0.35500
6127776;-0.35000
6130554;-0.36000
6133332;-0.35500
6136109;-0.33500
6138887;-0.33500
6141665;-0.34000
6144443;-0.34000
6147221;-0.34500
6149998;-0.34500
6152776;-0.34000
6155554;-0.33500
6158332;-0.34000
6161109;-0.34000
6163887;-0.35500
6166665;-0.35500
6169443;-0.34000
6172220;-0.32500
6174998;-0.33500
6177776;-0.33500
6180554;-0.34000
6183332;-0.33000
6186109;-0.31500
6188887;-0.30000
6191665;-0.29500
6194443;-0.30000
6197220;-0.29500
6199998;-0.28000
6202776;-0.26500
6205554;-0.24500
6208332;-0.24000
6211109;-0.25500
6213887;-0.25500
6216665;-0.24000
6219443;-0.21500
6222220;-0.21000
6224998;-0.21000
6227776;-0.21500
6230554;-0.21500
6233332;-0.20500
6236109;-0.19500
6238887;-0.19000
6241665;-0.19500
6244443;-0.20500
6247220;-0.21000
6249998;-0.21500
6252776;-0.21000
6255554;-0.21000
6258332;-0.21000
6261109;-0.21000
6263887;-0.21500
6266665;-0.20000
6269443;-0.19000
6272220;-0.17500
6274998;-0.17000
6277776;-0.21000
6280554;-0.24000
6283332;-0.25000
6286109;-0.26000
6288887;-0.26000
6291665;-0.29000
6294443;-0.30500
6297220;-0.32000
6299998;-0.32500
6302776;-0.32500
6305554;-0.32500
6308332;-0.33000
6311109;-0.34000
6313887;-0.34000
6316665;-0.34000
6319443;-0.33000
6322220;-0.32000
6324998;-0.33500
6327776;-0.34500
6330554;-0.35500
6333332;-0.35000
6336109;-0.34500
6338887;-0.34500
6341665;-0.35000
6344443;-0.35500
6347220;-0.36500
6349998;-0.35500
6352776;-0.35500
6355554;-0.35000
6358332;-0.34500
6361109;-0.36500
6363887;-0.39000
6366665;-0.41000
6369443;-0.44500
6372220;-0.47000
6374998;-0.49500
6377776;-0.52000
6380554;-0.56000
6383332;-0.53000
6386109;-0.44500
6388887;-0.30000
6391665;-0.11500
6394443;0.05000
6397220;0.27000
6399998;0.55000
6402776;0.83000
6405554;1.02000
6408332;1.13500
6411109;1.21000
6413887;1.25500
6416665;1.21000
6419443;1.03500
6422220;0.71000
6424998;0.30000
6427776;-0.09000
6430554;-0.36500
6433332;-0.47000
6436109;-0.46500
6438887;-0.41500
6441665;-0.38000
6444443;-0.38500
6447220;-0.39500
6449998;-0.40000
6452776;-0.39500
6455554;-0.38500
6458332;-0.39000
6461109;-0.40000
6463887;-0.41000
6466665;-0.41500
6469443;-0.41000
6472220;-0.39500
6474998;-0.41500
6477776;-0.42000
6480554;-0.42000
6483332;-0.42000
6486109;-0.42500
6488887;-0.42500
6491665;-0.42500
6494443;-0.42500
6497220;-0.43000
6499998;-0.42000
6502776;-0.41500
6505554;-0.40500
6508332;-0.41500
6511109;-0.42000
6513887;-0.43500
6516665;-0.43000
6519443;-0.42500
6522220;-0.42000
6524998;-0.42000
6527776;-0.44000
6530554;-0.43000
6533332;-0.42500
6536109;-0.41000
6538887;-0.41500
6541665;-0.42000
6544443;-0.42500
6547220;-0.43500
6549998;-0.43500
6552776;-0.41000
6555554;-0.41500
6558331;-0.42500
6561109;-0.42500
6563887;-0.42000
6566665;-0.41500
6569443;-0.41500
6572220;-0.42000
6574998;-0.42000
6577776;-0.43000
6580554;-0.43500
6583331;-0.42500
6586109;-0.42500
6588887;-0.41500
6591665;-0.43000
6594443;-0.43000
6597220;-0.43500
6599998;-0.43500
6602776;-0.43000
6605554;-0.41000
6608331;-0.43000
6611109;-0.43000
6613887;-0.44500
6616665;-0.42500
6619443;-0.42500
6622220;-0.42500
6624998;-0.43000
6627776;-0.43000
6630554;-0.44000
6633331;-0.43500
6636109;-0.43500
6638887;-0.42500
6641665;-0.43000
6644443;-0.43500
6647220;-0.44000
6649998;-0.43000
6652776;-0.44500
6655554;-0.44000
6658331;-0.45000
6661109;-0.44500
6663887;-0.45000
6666665;-0.43500
6669443;-0.42500
6672220;-0.43000
6674998;-0.43000
6677776;-0.44000
6680554;-0.44000
6683331;-0.43000
6686109;-0.42000
6688887;-0.42000
6691665;-0.42000
6694443;-0.42000
6697220;-0.41500
6699998;-0.41500
6702776;-0.39500
6705554;-0.38000
6708331;-0.36000
6711109;-0.36000
6713887;-0.36000
6716665;-0.35500
6719443;-0.32000
6722220;-0.30500
6724998;-0.31500
6727776;-0.31500
6730554;-0.32000
6733331;-0.30000
6736109;-0.29500
6738887;-0.28500
6741665;-0.29000
6744443;-0.28500
6747220;-0.29000
6749998;-0.28000
6752776;-0.26500
6755554;-0.27000
6758331;-0.27000
6761109;-0.28000
6763887;-0.29000
6766665;-0.27500
6769443;-0.27000
6772220;-0.27000
6774998;-0.27500
6777776;-0.28500
6780554;-0.29500
6783331;-0.29000
6786109;-0.28000
6788887;-0.28000
6791665;-0.28000
6794443;-0.28500
6797220;-0.29500
6799998;-0.29000
6802776;-0.29500
6805554;-0.28000
6808331;-0.28500
6811109;-0.29500
6813887;-0.30500
6816665;-0.30500
6819443;-0.29500
6822220;-0.28500
6824998;-0.28500
6827776;-0.30000
6830554;-0.31500
6833331;-0.31500
6836109;-0.30500
6838887;-0.30000
6841665;-0.32000
6844443;-0.31500
6847220;-0.32500
6849998;-0.31500
6852776;-0.31000
6855554;-0.30500
6858331;-0.30500
6861109;-0.32000
6863887;-0.32500
6866665;-0.32500
6869443;-0.32500
6872220;-0.32000
6874998;-0.31500
6877776;-0.33500
6880554;-0.34000
6883331;-0.35000
6886109;-0.34000
6888887;-0.33000
6891665;-0.33000
6894443;-0.34500
6897220;-0.33000
6899998;-0.34500
6902776;-0.34000
6905554;-0.32500
6908331;-0.33500
6911109;-0.34000
6913887;-0.35500
6916665;-0.34500
6919443;-0.33500
6922220;-0.34000
6924998;-0.34500
6927776;-0.35000
6930554;-0.36000
6933331;-0.35000
6936109;-0.33500
6938887;-0.33500
6941665;-0.33500
6944442;-0.35000
6947220;-0.36000
6949998;-0.36000
6952776;-0.35000
6955554;-0.34000
6958331;-0.33500
6961109;-0.34000
6963887;-0.34000
6966665;-0.32500
6969442;-0.30500
6972220;-0.29500
6974998;-0.29000
6977776;-0.29000
6980554;-0.29000
6983331;-0.29500
6986109;-0.26500
6988887;-0.25000
6991665;-0.25000
6994442;-0.26500
6997220;-0.26000
6999998;-0.24500
7002776;-0.24500
7005554;-0.22500
7008331;-0.22000
7011109;-0.22000
7013887;-0.22000
7016665;-0.21000
7019442;-0.21000
7022220;-0.20500
7024998;-0.22000
7027776;-0.23500
7030554;-0.25000
7033331;-0.23000
7036109;-0.22000
7038887;-0.21500
7041665;-0.21500
7044442;-0.21500
7047220;-0.20500
7049998;-0.17500
7052776;-0.20000
7055554;-0.23500
7058331;-0.26500
7061109;-0.28000
7063887;-0.30000
7066665;-0.30500
7069442;-0.31500
7072220;-0.33000
7074998;-0.35000
7077776;-0.35500
7080554;-0.36500
7083331;-0.36000
7086109;-0.34500
7088887;-0.34000
7091665;-0.35000
7094442;-0.35500
7097220;-0.37500
7099998;-0.37000
7102776;-0.36000
7105554;-0.35500
7108331;-0.37000
7111109;-0.37000
7113887;-0.39000
7116665;-0.36500
7119442;-0.36500
7122220;-0.35000
7124998;-0.36000
7127776;-0.36500
7130554;-0.37500
7133331;-0.36500
7136109;-0.37000
7138887;-0.37000
7141665;-0.36500
7144442;-0.37000
7147220;-0.37500
7149998;-0.38500
7152776;-0.38500
7155554;-0.40000
7158331;-0.44000
7161109;-0.48000
7163887;-0.51500
7166665;-0.50000
7169442;-0.55000
7172220;-0.57500
7174998;-0.57500
7177776;-0.52000
7180554;-0.39500
7183331;-0.22000
7186109;-0.05000
7188887;0.15000
7191665;0.41000
7194442;0.69000
7197220;0.90000
7199998;1.02000
7202776;1.04000
7205554;0.85000
7208331;0.48000
7211109;0.01500
7213887;-0.34000
7216665;-0.49000
7219442;-0.50000
7222220;-0.43500
7224998;-0.40500
7227776;-0.39500
7230554;-0.41000
7233331;-0.41500
7236109;-0.40500
7238887;-0.41000
7241665;-0.41000
7244442;-0.41000
7247220;-0.43500
7249998;-0.43000
7252776;-0.42000
7255554;-0.41500
7258331;-0.42000
7261109;-0.44000
7263887;-0.44000
7266665;-0.43500
7269442;-0.42500
7272220;-0.43000
7274998;-0.41500
7277776;-0.43000
7280554;-0.44500
7283331;-0.43000
7286109;-0.42500
7288887;-0.42000
7291665;-0.42500
7294442;-0.43000
7297220;-0.44500
7299998;-0.43500
7302776;-0.43500
7305554;-0.42000
7308331;-0.42500
7311109;-0.43500
7313887;-0.43500
7316665;-0.43500
7319442;-0.43500
7322220;-0.42500
7324998;-0.41500
7327776;-0.43500
7330554;-0.43500
7333331;-0.43500
7336109;-0.42000
7338887;-0.42000
7341665;-0.42000
7344442;-0.43000
7347220;-0.43000
7349998;-0.42500
7352776;-0.42000
7355553;-0.41000
7358331;-0.42000
7361109;-0.42500
7363887;-0.43000
7366665;-0.42500
7369442;-0.42000
7372220;-0.42000
7374998;-0.42000
7377776;-0.42500
7380553;-0.43500
7383331;-0.43000
7386109;-0.42500
7388887;-0.40500
7391665;-0.41500
7394442;-0.43500
7397220;-0.43500
7399998;-0.42500
7402776;-0.41500
7405553;-0.41500
7408331;-0.41500
7411109;-0.42500
7413887;-0.44500
7416665;-0.43000
7419442;-0.42000
7422220;-0.41000
7424998;-0.41000
7427776;-0.41500
7430553;-0.44000
7433331;-0.43000
7436109;-0.43000
7438887;-0.42500
7441665;-0.44000
7444442;-0.43500
7447220;-0.44000
7449998;-0.44000
7452776;-0.44500
7455553;-0.43000
7458331;-0.42500
7461109;-0.42500
7463887;-0.44500
7466665;-0.42500
7469442;-0.42500
7472220;-0.42000
7474998;-0.42000
7477776;-0.42000
7480553;-0.43000
7483331;-0.42000
7486109;-0.41000
7488887;-0.40500
7491665;-0.40000
7494442;-0.41000
7497220;-0.41500
7499998;-0.39500
7502776;-0.37500
7505553;-0.35500
7508331;-0.35000
7511109;-0.34500
7513887;-0.35000
7516665;-0.34500
7519442;-0.32000
7522220;-0.31000
7524998;-0.30500
7527776;-0.29500
7530553;-0.30500
7533331;-0.29500
7536109;-0.30500
7538887;-0.28000
7541665;-0.28000
7544442;-0.29000
7547220;-0.29500
7549998;-0.29000
7552776;-0.27000
7555553;-0.28000
7558331;-0.28500
7561109;-0.28000
7563887;-0.28500
7566665;-0.28000
7569442;-0.27500
7572220;-0.26000
7574998;-0.27500
7577776;-0.28000
7580553;-0.29000
7583331;-0.30000
7586109;-0.29000
7588887;-0.27500
7591665;-0.26500
7594442;-0.28500
7597220;-0.29000
7599998;-0.29000
7602776;-0.28000
7605553;-0.29000
7608331;-0.27500
7611109;-0.29000
7613887;-0.29500
7616665;-0.29500
7619442;-0.28500
7622220;-0.28000
7624998;-0.28000
7627776;-0.28500
7630553;-0.30500
7633331;-0.30000
7636109;-0.29000
7638887;-0.29500
7641665;-0.30500
7644442;-0.30000
7647220;-0.30500
7649998;-0.31000
7652776;-0.30000
7655553;-0.30000
7658331;-0.29000
7661109;-0.31000
7663887;-0.33500
7666665;-0.31500
7669442;-0.31500
7672220;-0.31000
7674998;-0.31000
7677776;-0.32000
7680553;-0.33500
7683331;-0.32000
7686109;-0.31000
7688887;-0.31500
7691665;-0.32000
7694442;-0.32000
7697220;-0.34000
7699998;-0.33500
7702776;-0.32000
7705553;-0.31000
7708331;-0.31500
7711109;-0.32500
7713887;-0.33000
7716665;-0.33000
7719442;-0.32500
7722220;-0.32000
7724998;-0.33000
7727776;-0.33500
7730553;-0.34000
7733331;-0.34500
7736109;-0.33500
7738887;-0.32500
7741664;-0.33500
7744442;-0.33000
7747220;-0.34000
7749998;-0.33000
7752776;-0.33500
7755553;-0.32000
7758331;-0.31500
7761109;-0.32000
7763887;-0.33500
7766664;-0.33000
7769442;-0.32000
7772220;-0.31500
7774998;-0.32000
7777776;-0.32500
7780553;-0.33000
7783331;-0.32500
7786109;-0.31500
7788887;-0.31500
7791664;-0.30500
7794442;-0.30500
7797220;-0.30000
7799998;-0.28500
7802776;-0.26500
7805553;-0.26000
7808331;-0.25500
7811109;-0.27000
7813887;-0.27500
7816664;-0.25500
7819442;-0.25500
7822220;-0.23000
7824998;-0.22500
7827776;-0.23000
7830553;-0.23000
7833331;-0.20500
7836109;-0.20000
7838887;-0.18500
7841664;-0.18500
7844442;-0.19500
7847220;-0.21500
7849998;-0.22500
7852776;-0.21000
7855553;-0.20000
7858331;-0.18500
7861109;-0.19500
7863887;-0.20500
7866664;-0.20500
7869442;-0.17500
7872220;-0.17000
7874998;-0.17000
7877776;-0.20000
7880553;-0.24000
7883331;-0.24500
7886109;-0.25500
7888887;-0.26500
7891664;-0.29000
7894442;-0.30500
7897220;-0.32000
7899998;-0.32500
7902776;-0.32500
7905553;-0.32500
7908331;-0.32000
7911109;-0.32500
7913887;-0.34000
7916664;-0.33500
7919442;-0.33000
7922220;-0.32000
7924998;-0.33500
7927776;-0.34500
7930553;-0.35000
7933331;-0.35000
7936109;-0.34500
7938887;-0.35000
7941664;-0.35500
7944442;-0.35000
7947220;-0.35500
7949998;-0.35500
7952776;-0.34000
7955553;-0.34500
7958331;-0.33500
7961109;-0.33500
7963887;-0.34000
7966664;-0.34500
7969442;-0.34000
7972220;-0.34500
7974998;-0.37500
7977776;-0.41500
7980553;-0.45500
7983331;-0.47000
7986109;-0.46500
7988887;-0.45500
7991664;-0.46500
7994442;-0.51500
7997220;-0.58500
7999998;-0.59000
8002776;-0.55000
8005553;-0.44500
8008331;-0.30500
8011109;-0.16000
8013887;0.00500
8016664;0.25000
8019442;0.54000
8022220;0.78000
8024998;0.93500
8027776;0.96500
8030553;0.83000
8033331;0.52500
8036109;0.13000
8038887;-0.22000
8041664;-0.43500
8044442;-0.49000
8047220;-0.48500
8049998;-0.42000
8052776;-0.38500
8055553;-0.39000
8058331;-0.39500
8061109;-0.40500
8063887;-0.41500
8066664;-0.40500
8069442;-0.39000
8072220;-0.39000
8074998;-0.38500
8077776;-0.39500
8080553;-0.41500
8083331;-0.41000
8086109;-0.41000
8088887;-0.40000
8091664;-0.39000
8094442;-0.39000
8097220;-0.41500
8099998;-0.39500
8102776;-0.39500
8105553;-0.38500
8108331;-0.40000
8111109;-0.39500
8113887;-0.40500
8116664;-0.41000
8119442;-0.41000
8122220;-0.39500
8124998;-0.40500
8127776;-0.40500
8130553;-0.41000
8133331;-0.41000
8136109;-0.41000
8138887;-0.39000
8141664;-0.39000
8144442;-0.39000
8147220;-0.40500
8149998;-0.40000
8152775;-0.38500
8155553;-0.39000
8158331;-0.39000
8161109;-0.39000
8163887;-0.40500
8166664;-0.40500
8169442;-0.40000
8172220;-0.40000
8174998;-0.40000
8177775;-0.40500
8180553;-0.41500
8183331;-0.40500
8186109;-0.40000
8188887;-0.38500
8191664;-0.38500
8194442;-0.39000
8197220;-0.41000
8199998;-0.40500
8202775;-0.40500
8205553;-0.38500
8208331;-0.38000
8211109;-0.38500
8213887;-0.39500
8216664;-0.40000
8219442;-0.38500
8222220;-0.39000
8224998;-0.39000
8227775;-0.39500
8230553;-0.40500
8233331;-0.40000
8236109;-0.38500
8238887;-0.38000
8241664;-0.39500
8244442;-0.40000
8247220;-0.40000
8249998;-0.39500
8252775;-0.39500
8255553;-0.38500
8258331;-0.39000
8261109;-0.41500
8263887;-0.42000
8266664;-0.41500
8269442;-0.40500
8272220;-0.40000
8274998;-0.41500
8277775;-0.41500
8280553;-0.42000
8283331;-0.42500
8286109;-0.41000
8288887;-0.40500
8291664;-0.40000
8294442;-0.41000
8297220;-0.42500
8299998;-0.41000
8302775;-0.41000
8305553;-0.39500
8308331;-0.40000
8311109;-0.39500
8313887;-0.40000
8316664;-0.40500
8319442;-0.39000
8322220;-0.38500
8324998;-0.36500
8327775;-0.36000
8330553;-0.35500
8333331;-0.35500
8336109;-0.34000
8338887;-0.33000
8341664;-0.32500
8344442;-0.33000
8347220;-0.33000
8349998;-0.32000
8352775;-0.30000
8355553;-0.30000
8358331;-0.30000
8361109;-0.29500
8363887;-0.30500
8366664;-0.30000
8369442;-0.29500
8372220;-0.28500
8374998;-0.27500
8377775;-0.28500
8380553;-0.30000
8383331;-0.29000
8386109;-0.29000
8388887;-0.28000
8391664;-0.27500
8394442;-0.29000
8397220;-0.30500
8399998;-0.29500
8402775;-0.29000
8405553;-0.28000
8408331;-0.28500
8411109;-0.30000
8413887;-0.31000
8416664;-0.30500
8419442;-0.29500
8422220;-0.27500
8424998;-0.27500
8427775;-0.28000
8430553;-0.30000
8433331;-0.29500
8436109;-0.29000
8438887;-0.28500
8441664;-0.29000
8444442;-0.30000
8447220;-0.30500
8449998;-0.31000
8452775;-0.31000
8455553;-0.30500
8458331;-0.32500
8461109;-0.33000
8463887;-0.32000
8466664;-0.32500
8469442;-0.31000
8472220;-0.30500
8474998;-0.31000
8477775;-0.32500
8480553;-0.34000
8483331;-0.33500
8486109;-0.33000
8488887;-0.34000
8491664;-0.32000
8494442;-0.31500
8497220;-0.32500
8499998;-0.33000
8502775;-0.32000
8505553;-0.32000
8508331;-0.33000
8511109;-0.33000
8513887;-0.34500
8516664;-0.35000
8519442;-0.34000
8522220;-0.33500
8524998;-0.34000
8527775;-0.35000
8530553;-0.37000
8533331;-0.37000
8536109;-0.37000
8538886;-0.35500
8541664;-0.35000
8544442;-0.36000
8547220;-0.38000
8549998;-0.37000
8552775;-0.36500
8555553;-0.34500
8558331;-0.35000
8561109;-0.35000
8563886;-0.34500
8566664;-0.34500
8569442;-0.34000
8572220;-0.34000
8574998;-0.34500
8577775;-0.36500
8580553;-0.36500
8583331;-0.35000
8586109;-0.34500
8588886;-0.34000
8591664;-0.34000
8594442;-0.35000
8597220;-0.35500
8599998;-0.35000
8602775;-0.35000
8605553;-0.34000
8608331;-0.35000
8611109;-0.35000
8613886;-0.37000
8616664;-0.36000
8619442;-0.34000
8622220;-0.33500
8624998;-0.33000
8627775;-0.34000
8630553;-0.36000
8633331;-0.36500
8636109;-0.33000
8638886;-0.31000
8641664;-0.30500
8644442;-0.31000
8647220;-0.31000
8649998;-0.31000
8652775;-0.31000
8655553;-0.29000
8658331;-0.28000
8661109;-0.27500
8663886;-0.27000
8666664;-0.26500
8669442;-0.27000
8672220;-0.25000
8674998;-0.25500
8677775;-0.25500
8680553;-0.27000
8683331;-0.26000
8686109;-0.24000
8688886;-0.24000
8691664;-0.23000
8694442;-0.23000
8697220;-0.24000
8699998;-0.24500
8702775;-0.23500
8705553;-0.23000
8708331;-0.23500
8711109;-0.23000
8713886;-0.24500
8716664;-0.26000
8719442;-0.25000
8722220;-0.21500
8724998;-0.20500
8727775;-0.21000
8730553;-0.25000
8733331;-0.28000
8736109;-0.28500
8738886;-0.29500
8741664;-0.31000
8744442;-0.34000
8747220;-0.37000
8749998;-0.37000
8752775;-0.37500
8755553;-0.36000
8758331;-0.36000
8761109;-0.36500
8763886;-0.37000
8766664;-0.36500
8769442;-0.37500
8772220;-0.38000
8774998;-0.39000
8777775;-0.41000
8780553;-0.40500
8783331;-0.40500
8786109;-0.37500
8788886;-0.36500
8791664;-0.37500
8794442;-0.40000
8797220;-0.41000
8799998;-0.41000
8802775;-0.40000
8805553;-0.40000
8808331;-0.39000
8811109;-0.40500
8813886;-0.41500
8816664;-0.42000
8819442;-0.43000
8822220;-0.45000
8824998;-0.48500
8827775;-0.51000
8830553;-0.53500
8833331;-0.56500
8836109;-0.60000
8838886;-0.59500
8841664;-0.54500
8844442;-0.45000
8847220;-0.34000
8849998;-0.23000
8852775;-0.09000
8855553;0.08500
8858331;0.30500
8861109;0.52500
8863886;0.70000
8866664;0.85500
8869442;0.94000
8872220;0.89500
8874998;0.66000
8877775;0.27000
8880553;-0.15500
8883331;-0.41500
8886109;-0.51000
8888886;-0.50500
8891664;-0.48500
8894442;-0.47000
8897220;-0.45500
8899998;-0.45000
8902775;-0.44000
8905553;-0.43500
8908331;-0.45500
8911109;-0.46500
8913886;-0.46500
8916664;-0.45500
8919442;-0.45000
8922220;-0.42500
8924998;-0.43000
8927775;-0.44000
8930553;-0.46000
8933331;-0.46000
8936109;-0.44000
8938886;-0.43000
8941664;-0.44000
8944442;-0.44000
8947220;-0.45000
8949997;-0.45500
8952775;-0.45000
8955553;-0.44500
8958331;-0.44500
8961109;-0.45500
8963886;-0.48000
8966664;-0.46500
8969442;-0.47000
8972220;-0.44500
8974997;-0.43000
8977775;-0.45000
8980553;-0.45500
8983331;-0.46500
8986109;-0.47500
8988886;-0.46500
8991664;-0.48500
8994442;-0.48500
8997220;-0.49000
8999997;-0.47000
9002775;-0.47000
9005553;-0.46000
9008331;-0.45500
9011109;-0.47000
9013886;-0.47500
9016664;-0.47500
9019442;-0.46000
9022220;-0.44000
9024997;-0.44500
9027775;-0.47000
9030553;-0.48000
9033331;-0.48000
9036109;-0.47000
9038886;-0.45500
9041664;-0.45500
9044442;-0.45500
9047220;-0.46000
9049997;-0.46000
9052775;-0.46500
9055553;-0.47000
9058331;-0.46500
9061109;-0.48000
9063886;-0.48000
9066664;-0.46500
9069442;-0.46000
9072220;-0.46500
9074997;-0.49000
9077775;-0.49500
9080553;-0.49500
9083331;-0.48000
9086109;-0.46500
9088886;-0.46500
9091664;-0.46500
9094442;-0.48000
9097220;-0.49000
9099997;-0.50000
9102775;-0.49500
9105553;-0.48500
9108331;-0.49500
9111109;-0.50000
9113886;-0.52000
9116664;-0.51500
9119442;-0.51500
9122220;-0.49500
9124997;-0.50500
9127775;-0.51500
9130553;-0.52500
9133331;-0.51500
9136109;-0.52500
9138886;-0.50500
9141664;-0.51500
9144442;-0.52000
9147220;-0.54000
9149997;-0.54000
9152775;-0.51000
9155553;-0.50500
9158331;-0.50500
9161109;-0.50500
9163886;-0.50000
9166664;-0.48000
9169442;-0.46500
9172220;-0.43500
9174997;-0.42500
9177775;-0.42500
9180553;-0.41500
9183331;-0.41000
9186109;-0.37500
9188886;-0.37000
9191664;-0.36000
9194442;-0.35000
9197220;-0.36500
9199997;-0.35000
9202775;-0.33000
9205553;-0.33000
9208331;-0.31500
9211109;-0.32000
9213886;-0.32000
9216664;-0.31500
9219442;-0.31500
9222220;-0.30500
9224997;-0.30500
9227775;-0.31500
9230553;-0.32000
9233331;-0.32000
9236109;-0.31500
9238886;-0.31500
9241664;-0.30500
9244442;-0.32500
9247220;-0.32500
9249997;-0.32000
9252775;-0.31500
9255553;-0.30500
9258331;-0.30000
9261109;-0.30500
9263886;-0.31500
9266664;-0.32000
9269442;-0.32000
9272220;-0.30500
9274997;-0.30500
9277775;-0.30000
9280553;-0.32000
9283331;-0.34000
9286109;-0.33000
9288886;-0.31000
9291664;-0.31500
9294442;-0.31500
9297220;-0.33000
9299997;-0.33500
9302775;-0.32500
9305553;-0.31500
9308331;-0.31000
9311109;-0.34000
9313886;-0.34000
9316664;-0.33500
9319442;-0.32500
9322220;-0.32500
9324997;-0.32500
9327775;-0.33500
9330553;-0.35000
9333331;-0.34000
9336108;-0.32500
9338886;-0.32500
9341664;-0.33000
9344442;-0.33500
9347220;-0.35500
9349997;-0.35000
9352775;-0.34500
9355553;-0.33000
9358331;-0.32500
9361108;-0.34000
9363886;-0.34500
9366664;-0.35000
9369442;-0.33500
9372220;-0.33000
9374997;-0.32500
9377775;-0.33000
9380553;-0.34000
9383331;-0.34000
9386108;-0.33000
9388886;-0.32500
9391664;-0.32500
9394442;-0.32500
9397220;-0.33500
9399997;-0.33000
9402775;-0.32500
9405553;-0.31500
9408331;-0.31500
9411108;-0.33000
9413886;-0.33000
9416664;-0.34000
9419442;-0.31000
9422220;-0.31000
9424997;-0.31000
9427775;-0.31500
9430553;-0.32000
9433331;-0.31500
9436108;-0.32000
9438886;-0.31000
9441664;-0.31500
9444442;-0.31000
9447220;-0.32500
9449997;-0.32500
9452775;-0.31000
9455553;-0.30500
9458331;-0.30000
9461108;-0.29500
9463886;-0.31000
9466664;-0.29000
9469442;-0.27500
9472220;-0.26500
9474997;-0.26000
9477775;-0.26000
9480553;-0.26500
9483331;-0.24500
9486108;-0.24000
9488886;-0.23000
9491664;-0.22500
9494442;-0.23000
9497220;-0.22500
9499997;-0.22000
9502775;-0.21500
9505553;-0.18500
9508331;-0.18500
9511108;-0.19500
9513886;-0.20500
9516664;-0.19500
9519442;-0.18000
9522220;-0.17500
9524997;-0.18500
9527775;-0.21500
9530553;-0.20500
9533331;-0.20000
9536108;-0.19500
9538886;-0.18000
9541664;-0.17500
9544442;-0.16000
9547220;-0.17000
9549997;-0.20000
9552775;-0.22500
9555553;-0.24500
9558331;-0.25000
9561108;-0.27500
9563886;-0.30500
9566664;-0.31500
9569442;-0.31000
9572220;-0.31500
9574997;-0.32000
9577775;-0.32000
9580553;-0.34000
9583331;-0.33000
9586108;-0.33000
9588886;-0.33000
9591664;-0.33000
9594442;-0.34500
9597220;-0.34500
9599997;-0.35000
9602775;-0.34500
9605553;-0.33500
9608331;-0.33000
9611108;-0.35000
9613886;-0.36000
9616664;-0.35500
9619442;-0.35000
9622220;-0.34000
9624997;-0.34500
9627775;-0.36000
9630553;-0.37500
9633331;-0.40000
9636108;-0.44000
9638886;-0.45000
9641664;-0.45500
9644442;-0.45500
9647220;-0.47000
9649997;-0.50500
9652775;-0.54000
9655553;-0.56000
9658331;-0.54500
9661108;-0.47000
9663886;-0.33500
9666664;-0.17000
9669442;0.03000
9672220;0.28500
9674997;0.59000
9677775;0.86000
9680553;1.01000
9683331;1.05000
9686108;0.91500
9688886;0.55500
9691664;0.04500
9694442;-0.35000
9697220;-0.51500
9699997;-0.48500
9702775;-0.42500
9705553;-0.38000
9708331;-0.37000
9711108;-0.37500
9713886;-0.39500
9716664;-0.39000
9719442;-0.38500
9722220;-0.37500
9724997;-0.38500
9727775;-0.39000
9730553;-0.40000
9733331;-0.39500
9736108;-0.39000
9738886;-0.40000
9741664;-0.38500
9744442;-0.39500
9747219;-0.41000
9749997;-0.39500
9752775;-0.40500
9755553;-0.39000
9758331;-0.40000
9761108;-0.40000
9763886;-0.40500
9766664;-0.40500
9769442;-0.39500
9772219;-0.38500
9774997;-0.39000
9777775;-0.39500
9780553;-0.41000
9783331;-0.40500
9786108;-0.39500
9788886;-0.39500
9791664;-0.39500
9794442;-0.40000
9797219;-0.40500
9799997;-0.41000
9802775;-0.40000
9805553;-0.40000
9808331;-0.40500
9811108;-0.41000
9813886;-0.41500
9816664;-0.40500
9819442;-0.40000
9822219;-0.38500
9824997;-0.38500
9827775;-0.40000
9830553;-0.41000
9833331;-0.41000
9836108;-0.39500
9838886;-0.39000
9841664;-0.40000
9844442;-0.40500
9847219;-0.41500
9849997;-0.40500
9852775;-0.40000
9855553;-0.40000
9858331;-0.39500
9861108;-0.40500
9863886;-0.40500
9866664;-0.41000
9869442;-0.39000
9872219;-0.38500
9874997;-0.39000
9877775;-0.41000
9880553;-0.42000
9883331;-0.42500
9886108;-0.41500
9888886;-0.39000
9891664;-0.40000
9894442;-0.41000
9897219;-0.41000
9899997;-0.40500
9902775;-0.40500
9905553;-0.40500
9908331;-0.41000
9911108;-0.41000
9913886;-0.43000
9916664;-0.43000
9919442;-0.42000
9922219;-0.41500
9924997;-0.42000
9927775;-0.42500
9930553;-0.44000
9933331;-0.44500
9936108;-0.43000
9938886;-0.42500
9941664;-0.42500
9944442;-0.43000
9947219;-0.43500
9949997;-0.42500
9952775;-0.41000
9955553;-0.38500
9958331;-0.38500
9961108;-0.37500
9963886;-0.37500
9966664;-0.36500
9969442;-0.33500
9972219;-0.33000
9974997;-0.31000
9977775;-0.31000
9980553;-0.30000
9983331;-0.29500
9986108;-0.28500
9988886;-0.26500
9991664;-0.28000
9994442;-0.27500
9997219;-0.28500
9999997;-0.27000
10002775;-0.25500
10005553;-0.24500
10008331;-0.25500
10011108;-0.25500
10013886;-0.27500
10016664;-0.26500
10019442;-0.26000
10022219;-0.25500
10024997;-0.24500
10027775;-0.26000
10030553;-0.26500
10033331;-0.26500
10036108;-0.25000
10038886;-0.24500
10041664;-0.25500
10044442;-0.27500
10047219;-0.28500
10049997;-0.28000
10052775;-0.26500
10055553;-0.27000
10058331;-0.26500
10061108;-0.28000
10063886;-0.29000
10066664;-0.29000
10069442;-0.27500
10072219;-0.27500
10074997;-0.26500
10077775;-0.28500
10080553;-0.28500
10083331;-0.29000
10086108;-0.28500
10088886;-0.28000
10091664;-0.28500
10094442;-0.29000
10097219;-0.31000
10099997;-0.30000
10102775;-0.29500
10105553;-0.28500
10108331;-0.30000
10111108;-0.31500
10113886;-0.31500
10116664;-0.32000
10119442;-0.30500
10122219;-0.31000
10124997;-0.30500
10127775;-0.32000
10130553;-0.32000
10133330;-0.32000
10136108;-0.32000
10138886;-0.33000
10141664;-0.32000
10144442;-0.31500
10147219;-0.33000
10149997;-0.32500
10152775;-0.32500
10155553;-0.31500
10158330;-0.31500
10161108;-0.33000
10163886;-0.33500
10166664;-0.33000
10169442;-0.32500
10172219;-0.32000
10174997;-0.30500
10177775;-0.31500
10180553;-0.32500
10183330;-0.33000
10186108;-0.31500
10188886;-0.30000
10191664;-0.31000
10194442;-0.31500
10197219;-0.33000
10199997;-0.32000
10202775;-0.31000
10205553;-0.30000
10208330;-0.28500
10211108;-0.29500
10213886;-0.28000
10216664;-0.27500
10219442;-0.25500
10222219;-0.24000
10224997;-0.23000
10227775;-0.25500
10230553;-0.24500
10233330;-0.23000
10236108;-0.22500
10238886;-0.20000
10241664;-0.19500
10244442;-0.20500
10247219;-0.21000
10249997;-0.20500
10252775;-0.20000
10255553;-0.20000
10258330;-0.21500
10261108;-0.22000
10263886;-0.21000
10266664;-0.21000
10269442;-0.19500
10272219;-0.18500
10274997;-0.17000
10277775;-0.16000
10280553;-0.17000
10283330;-0.21500
10286108;-0.24500
10288886;-0.26000
10291664;-0.27500
10294442;-0.29500
10297219;-0.31000
10299997;-0.32000
10302775;-0.32500
10305553;-0.32000
10308330;-0.32500
10311108;-0.32500
10313886;-0.34000
10316664;-0.33000
10319442;-0.32000
10322219;-0.32500
10324997;-0.32500
10327775;-0.34000
10330553;-0.35500
10333330;-0.35000
10336108;-0.34500
10338886;-0.33000
10341664;-0.34500
10344442;-0.37000
10347219;-0.36500
10349997;-0.36500
10352775;-0.36000
10355553;-0.35000
10358330;-0.36000
10361108;-0.36500
10363886;-0.38500
10366664;-0.39000
10369442;-0.40000
10372219;-0.42000
10374997;-0.46000
10377775;-0.49500
10380553;-0.53500
10383330;-0.56500
10386108;-0.53500
10388886;-0.43000
10391664;-0.25000
10394442;-0.06000
10397219;0.13500
10399997;0.41000
10402775;0.71000
10405553;0.95000
10408330;1.10000
10411108;1.17500
10413886;1.10500
10416664;0.86000
10419442;0.51500
10422219;0.15000
10424997;-0.19000
10427775;-0.43000
10430553;-0.53000
10433330;-0.51000
10436108;-0.45000
10438886;-0.40000
10441664;-0.39500
10444442;-0.40500
10447219;-0.41500
10449997;-0.43000
10452775;-0.42000
10455553;-0.40500
10458330;-0.41000
10461108;-0.42500
10463886;-0.43500
10466664;-0.45000
10469442;-0.44000
10472219;-0.44000
10474997;-0.43500
10477775;-0.43500
10480553;-0.45000
10483330;-0.44000
10486108;-0.42500
10488886;-0.43000
10491664;-0.42500
10494442;-0.42500
10497219;-0.45000
10499997;-0.44500
10502775;-0.43500
10505553;-0.43000
10508330;-0.44000
10511108;-0.44500
10513886;-0.45000
10516664;-0.43500
10519441;-0.42500
10522219;-0.43000
10524997;-0.42500
10527775;-0.43500
10530553;-0.44500
10533330;-0.44000
10536108;-0.44000
10538886;-0.42000
10541664;-0.43000
10544441;-0.43500
10547219;-0.44500
10549997;-0.44000
10552775;-0.43000
10555553;-0.42500
10558330;-0.42000
10561108;-0.43500
10563886;-0.44500
10566664;-0.45000
10569441;-0.43500
10572219;-0.43000
10574997;-0.42500
10577775;-0.44000
10580553;-0.44500
10583330;-0.44500
10586108;-0.44500
10588886;-0.43500
10591664;-0.43500
10594441;-0.45500
10597219;-0.45000
10599997;-0.44500
10602775;-0.44000
10605553;-0.43000
10608330;-0.44000
10611108;-0.43500
10613886;-0.46500
10616664;-0.45500
10619441;-0.44000
10622219;-0.44000
10624997;-0.43500
10627775;-0.44500
10630553;-0.44500
10633330;-0.45000
10636108;-0.44000
10638886;-0.43000
10641664;-0.43000
10644441;-0.44500
10647219;-0.46500
10649997;-0.46000
10652775;-0.45000
10655553;-0.42500
10658330;-0.43500
10661108;-0.44500
10663886;-0.45000
10666664;-0.44500
10669441;-0.43500
10672219;-0.42500
10674997;-0.41500
10677775;-0.42500
10680553;-0.44500
10683330;-0.42000
10686108;-0.40000
10688886;-0.37500
10691664;-0.37500
10694441;-0.36000
10697219;-0.36500
10699997;-0.36000
10702775;-0.34000
10705553;-0.32000
10708330;-0.32000
10711108;-0.32000
10713886;-0.32000
10716664;-0.32500
10719441;-0.30500
10722219;-0.29000
10724997;-0.29500
10727775;-0.30500
10730553;-0.31000
10733330;-0.31500
10736108;-0.31000
10738886;-0.29500
10741664;-0.29000
10744441;-0.30000
10747219;-0.32000
10749997;-0.31500
10752775;-0.30000
10755553;-0.29500
10758330;-0.29500
10761108;-0.30500
10763886;-0.32000
10766664;-0.31500
10769441;-0.30500
10772219;-0.29500
10774997;-0.29500
10777775;-0.30500
10780553;-0.32000
10783330;-0.32000
10786108;-0.30500
10788886;-0.30000
10791664;-0.30000
10794441;-0.31500
10797219;-0.33500
10799997;-0.33000
10802775;-0.32000
10805553;-0.32000
10808330;-0.32000
10811108;-0.33000
10813886;-0.34500
10816664;-0.35500
10819441;-0.34000
10822219;-0.33000
10824997;-0.34500
10827775;-0.34500
10830553;-0.36000
10833330;-0.35000
10836108;-0.35000
10838886;-0.34500
10841664;-0.35000
10844441;-0.35000
10847219;-0.37500
10849997;-0.37000
10852775;-0.36000
10855553;-0.34500
10858330;-0.36000
10861108;-0.37000
10863886;-0.37000
10866664;-0.38000
10869441;-0.37000
10872219;-0.35500
10874997;-0.37000
10877775;-0.37000
10880553;-0.38500
10883330;-0.38000
10886108;-0.37000
10888886;-0.35500
10891664;-0.35500
10894441;-0.36000
10897219;-0.36500
10899997;-0.37500
10902775;-0.36000
10905553;-0.36000
10908330;-0.35000
10911108;-0.35000
10913886;-0.37000
10916664;-0.37000
10919441;-0.36500
10922219;-0.34000
10924997;-0.35000
10927775;-0.35000
10930552;-0.35500
10933330;-0.35500
10936108;-0.35000
10938886;-0.33500
10941664;-0.33500
10944441;-0.32500
10947219;-0.33000
10949997;-0.31000
10952775;-0.31000
10955552;-0.29500
10958330;-0.28500
10961108;-0.28500
10963886;-0.28500
10966664;-0.27500
10969441;-0.26000
10972219;-0.25000
10974997;-0.23500
10977775;-0.23500
10980552;-0.24000
10983330;-0.24000
10986108;-0.22500
10988886;-0.22000
10991664;-0.22500
10994441;-0.22500
10997219;-0.24500
10999997;-0.25500
11002775;-0.25000
11005552;-0.24000
11008330;-0.25000
11011108;-0.24500
11013886;-0.24000
11016664;-0.24500
11019441;-0.25000
11022219;-0.22500
11024997;-0.22500
11027775;-0.21000
11030552;-0.21500
11033330;-0.24500
11036108;-0.27000
11038886;-0.28500
11041664;-0.30500
11044441;-0.32000
11047219;-0.35000
11049997;-0.35500
11052775;-0.36500
11055552;-0.36000
11058330;-0.36500
11061108;-0.37000
11063886;-0.38500
11066664;-0.39000
11069441;-0.38000
11072219;-0.37000
11074997;-0.37000
11077775;-0.38000
11080552;-0.38500
11083330;-0.39000
11086108;-0.39000
11088886;-0.38000
11091664;-0.38000
11094441;-0.39000
11097219;-0.39500
11099997;-0.40000
11102775;-0.39000
11105552;-0.38000
11108330;-0.39000
11111108;-0.39000
11113886;-0.40500
11116664;-0.42000
11119441;-0.45000
11122219;-0.47500
11124997;-0.51000
11127775;-0.52500
11130552;-0.58000
11133330;-0.60000
11136108;-0.56500
11138886;-0.45500
11141664;-0.30000
11144441;-0.13500
11147219;0.06000
11149997;0.32000
11152775;0.61000
11155552;0.85500
11158330;0.99500
11161108;1.05500
11163886;1.00500
11166664;0.78500
11169441;0.44000
11172219;0.04000
11174997;-0.31500
11177775;-0.52000
11180552;-0.55500
11183330;-0.51000
11186108;-0.44500
11188886;-0.42000
11191664;-0.43000
11194441;-0.44000
11197219;-0.44000
11199997;-0.43500
11202775;-0.43000
11205552;-0.43000
11208330;-0.43000
11211108;-0.44500
11213886;-0.46000
11216664;-0.45500
11219441;-0.45000
11222219;-0.42500
11224997;-0.44500
11227775;-0.44500
11230552;-0.45000
11233330;-0.45500
11236108;-0.44500
11238886;-0.44000
11241664;-0.45000
11244441;-0.45000
11247219;-0.46500
11249997;-0.45500
11252775;-0.44000
11255552;-0.43000
11258330;-0.44500
11261108;-0.44500
11263886;-0.45500
11266664;-0.44500
11269441;-0.45500
11272219;-0.43000
11274997;-0.44000
11277775;-0.43500
11280552;-0.45000
11283330;-0.45000
11286108;-0.43000
11288886;-0.41000
11291664;-0.41500
11294441;-0.43000
11297219;-0.43000
11299997;-0.44500
11302775;-0.44500
11305552;-0.43000
11308330;-0.44500
11311108;-0.43500
11313886;-0.44500
11316663;-0.44500
11319441;-0.43500
11322219;-0.41500
11324997;-0.42500
11327775;-0.43500
11330552;-0.44500
11333330;-0.44000
11336108;-0.44000
11338886;-0.42500
11341663;-0.43500
11344441;-0.44000
11347219;-0.45500
11349997;-0.44500
11352775;-0.44500
11355552;-0.43500
11358330;-0.43000
11361108;-0.43500
11363886;-0.44000
11366663;-0.43000
11369441;-0.42000
11372219;-0.42000
11374997;-0.43000
11377775;-0.44000
11380552;-0.45000
11383330;-0.46000
11386108;-0.44000
11388886;-0.43000
11391663;-0.42500
11394441;-0.44500
11397219;-0.45000
11399997;-0.44500
11402775;-0.44000
11405552;-0.43500
11408330;-0.44000
11411108;-0.44000
11413886;-0.44000
11416663;-0.44500
11419441;-0.44500
11422219;-0.42500
11424997;-0.42500
11427775;-0.43000
11430552;-0.43500
11433330;-0.43500
11436108;-0.41500
11438886;-0.40500
11441663;-0.40500
11444441;-0.40500
11447219;-0.40000
11449997;-0.39500
11452775;-0.37500
11455552;-0.36000
11458330;-0.35500
11461108;-0.35500
11463886;-0.35000
11466663;-0.34500
11469441;-0.33000
11472219;-0.31000
11474997;-0.31000
11477775;-0.31000
11480552;-0.33500
11483330;-0.33000
11486108;-0.32000
11488886;-0.30500
11491663;-0.31000
11494441;-0.30500
11497219;-0.31500
11499997;-0.32500
11502775;-0.31500
11505552;-0.31000
11508330;-0.32000
11511108;-0.33000
11513886;-0.33000
11516663;-0.32500
11519441;-0.32500
11522219;-0.30500
11524997;-0.32500
11527775;-0.33000
11530552;-0.33000
11533330;-0.34000
11536108;-0.35000
11538886;-0.33000
11541663;-0.33500
11544441;-0.33000
11547219;-0.33000
11549997;-0.33500
11552775;-0.32500
11555552;-0.32500
11558330;-0.34000
11561108;-0.36000
11563886;-0.35500
11566663;-0.36000
11569441;-0.35500
11572219;-0.33000
11574997;-0.34500
11577775;-0.35000
11580552;-0.36000
11583330;-0.36500
11586108;-0.37000
11588886;-0.35500
11591663;-0.35500
11594441;-0.36500
11597219;-0.37000
11599997;-0.37500
11602775;-0.37000
11605552;-0.36000
11608330;-0.35500
11611108;-0.36000
11613886;-0.37500
11616663;-0.38000
11619441;-0.37000
11622219;-0.37500
11624997;-0.38000
11627775;-0.38500
11630552;-0.39500
11633330;-0.38500
11636108;-0.39000
11638886;-0.37500
11641663;-0.37500
11644441;-0.39000
11647219;-0.39500
11649997;-0.40500
11652775;-0.40000
11655552;-0.38500
11658330;-0.38500
11661108;-0.39000
11663886;-0.39000
11666663;-0.39500
11669441;-0.38500
11672219;-0.38000
11674997;-0.37500
11677775;-0.38500
11680552;-0.39000
11683330;-0.39500
11686108;-0.38000
11688886;-0.38000
11691663;-0.38500
11694441;-0.39500
11697219;-0.40000
11699997;-0.40000
11702775;-0.38500
11705552;-0.37500
11708330;-0.37000
11711108;-0.37500
11713886;-0.38000
11716663;-0.38500
11719441;-0.39000
11722219;-0.38000
11724997;-0.38500
11727774;-0.37000
11730552;-0.38000
11733330;-0.37000
11736108;-0.36500
11738886;-0.34000
11741663;-0.34500
11744441;-0.35500
11747219;-0.35500
11749997;-0.34500
11752774;-0.32500
11755552;-0.31000
11758330;-0.30000
11761108;-0.30000
11763886;-0.32000
11766663;-0.30000
11769441;-0.28500
11772219;-0.27000
11774997;-0.27000
11777774;-0.27000
11780552;-0.27000
11783330;-0.27500
11786108;-0.26000
11788886;-0.24000
11791663;-0.24000
11794441;-0.25000
11797219;-0.27000
11799997;-0.28000
11802774;-0.27500
11805552;-0.26500
11808330;-0.26000
11811108;-0.27000
11813886;-0.27500
11816663;-0.28500
11819441;-0.26000
11822219;-0.23500
11824997;-0.24000
11827774;-0.26500
11830552;-0.30500
11833330;-0.32500
11836108;-0.33000
11838886;-0.34000
11841663;-0.36000
11844441;-0.37500
11847219;-0.39000
11849997;-0.40500
11852774;-0.40000
11855552;-0.40000
11858330;-0.40500
11861108;-0.40500
11863886;-0.41500
11866663;-0.40500
11869441;-0.41000
11872219;-0.40500
11874997;-0.43000
11877774;-0.42000
11880552;-0.42500
11883330;-0.43000
11886108;-0.42500
11888886;-0.41500
11891663;-0.42000
11894441;-0.42500
11897219;-0.44500
11899997;-0.44500
11902774;-0.43000
11905552;-0.41500
11908330;-0.42000
11911108;-0.43000
11913886;-0.45000
11916663;-0.46500
11919441;-0.47500
11922219;-0.50000
11924997;-0.51500
11927774;-0.55500
11930552;-0.58500
11933330;-0.62500
11936108;-0.68000
11938886;-0.68500
11941663;-0.67500
11944441;-0.63500
11947219;-0.59000
11949997;-0.52500
11952774;-0.42500
11955552;-0.33000
11958330;-0.22000
11961108;-0.05000
11963886;0.17000
11966663;0.43000
11969441;0.66500
11972219;0.81500
11974997;0.83500
11977774;0.71500
11980552;0.41000
11983330;0.00000
11986108;-0.31000
11988886;-0.49500
11991663;-0.56000
11994441;-0.56500
11997219;-0.53500
11999997;-0.50500
12002774;-0.48000
12005552;-0.46500
12008330;-0.47500
12011108;-0.47500
12013886;-0.46500
12016663;-0.46000
12019441;-0.46000
12022219;-0.45000
12024997;-0.47500
12027774;-0.47500
12030552;-0.48500
12033330;-0.49000
12036108;-0.49500
12038886;-0.48500
12041663;-0.48500
12044441;-0.48000
12047219;-0.49500
12049997;-0.50500
12052774;-0.51500
12055552;-0.50500
12058330;-0.49500
12061108;-0.50500
12063886;-0.49000
12066663;-0.49500
12069441;-0.48500
12072219;-0.48000
12074997;-0.48000
12077774;-0.49000
12080552;-0.49500
12083330;-0.51500
12086108;-0.49000
12088886;-0.48000
12091663;-0.48500
12094441;-0.49000
12097219;-0.49500
12099997;-0.50500
12102774;-0.48000
12105552;-0.46500
12108330;-0.47000
12111108;-0.47500
12113885;-0.48500
12116663;-0.47500
12119441;-0.48000
12122219;-0.48000
12124997;-0.49000
12127774;-0.50500
12130552;-0.51000
12133330;-0.51000
12136108;-0.49500
12138885;-0.49000
12141663;-0.49500
12144441;-0.50000
12147219;-0.51500
12149997;-0.51000
12152774;-0.50000
12155552;-0.49500
12158330;-0.48500
12161108;-0.49000
12163885;-0.49000
12166663;-0.50000
12169441;-0.48500
12172219;-0.48500
12174997;-0.49500
12177774;-0.49000
12180552;-0.51000
12183330;-0.50000
12186108;-0.51000
12188885;-0.49000
12191663;-0.48500
12194441;-0.49500
12197219;-0.51500
12199997;-0.53500
12202774;-0.52500
12205552;-0.52000
12208330;-0.53000
12211108;-0.53000
12213885;-0.54500
12216663;-0.56000
12219441;-0.54500
12222219;-0.53500
12224997;-0.54000
12227774;-0.53500
12230552;-0.54500
12233330;-0.54000
12236108;-0.54500
12238885;-0.53500
12241663;-0.54000
12244441;-0.54500
12247219;-0.55500
12249997;-0.55000
12252774;-0.53000
12255552;-0.51500
12258330;-0.50500
12261108;-0.51000
12263885;-0.50500
12266663;-0.50500
12269441;-0.47000
12272219;-0.43500
12274997;-0.43000
12277774;-0.42500
12280552;-0.42000
12283330;-0.43500
12286108;-0.43000
12288885;-0.42000
12291663;-0.41500
12294441;-0.40500
12297219;-0.40000
12299997;-0.41000
12302774;-0.40000
12305552;-0.38000
12308330;-0.39000
12311108;-0.38500
12313885;-0.40000
12316663;-0.39000
12319441;-0.36500
12322219;-0.35500
12324997;-0.35500
12327774;-0.36500
12330552;-0.37500
12333330;-0.36000
12336108;-0.36000
12338885;-0.36000
12341663;-0.35500
12344441;-0.35500
12347219;-0.37000
12349997;-0.37500
12352774;-0.36500
12355552;-0.35000
12358330;-0.36500
12361108;-0.37500
12363885;-0.38500
12366663;-0.38500
12369441;-0.37000
12372219;-0.35500
12374997;-0.36000
12377774;-0.37000
12380552;-0.38000
12383330;-0.38500
12386108;-0.36500
12388885;-0.35500
12391663;-0.37000
12394441;-0.38000
12397219;-0.39000
12399997;-0.38500
12402774;-0.38500
12405552;-0.38500
12408330;-0.39000
12411108;-0.39500
12413885;-0.39500
12416663;-0.40500
12419441;-0.39500
12422219;-0.38500
12424997;-0.39000
12427774;-0.39000
12430552;-0.39500
12433330;-0.39500
12436108;-0.39500
12438885;-0.39000
12441663;-0.40000
12444441;-0.40500
12447219;-0.42000
12449997;-0.42500
12452774;-0.41000
12455552;-0.39500
12458330;-0.39000
12461108;-0.41000
12463885;-0.41500
12466663;-0.41000
12469441;-0.41000
12472219;-0.40500
12474997;-0.41000
12477774;-0.41000
12480552;-0.40500
12483330;-0.40500
12486108;-0.40500
12488885;-0.39000
12491663;-0.40000
12494441;-0.40000
12497219;-0.40000
12499996;-0.41500
12502774;-0.40000
12505552;-0.38000
12508330;-0.39000
12511108;-0.39000
12513885;-0.40500
12516663;-0.40500
12519441;-0.39500
12522219;-0.37500
12524996;-0.39000
12527774;-0.38500
12530552;-0.39500
12533330;-0.40500
12536108;-0.39000
12538885;-0.38000
12541663;-0.39000
12544441;-0.38500
12547219;-0.39000
12549996;-0.38500
12552774;-0.38500
12555552;-0.37000
12558330;-0.37500
12561108;-0.37000
12563885;-0.37000
12566663;-0.36000
12569441;-0.35500
12572219;-0.33000
12574996;-0.32000
12577774;-0.33000
12580552;-0.32000
12583330;-0.32500
12586108;-0.31500
12588885;-0.28500
12591663;-0.28500
12594441;-0.28000
12597219;-0.29000
12599996;-0.29000
12602774;-0.26500
12605552;-0.25000
12608330;-0.25000
12611108;-0.26000
12613885;-0.26500
12616663;-0.27000
12619441;-0.27000
12622219;-0.26500
12624996;-0.26000
12627774;-0.27500
12630552;-0.28500
12633330;-0.28500
12636108;-0.26000
12638885;-0.25000
12641663;-0.25500
12644441;-0.25500
12647219;-0.25500
12649996;-0.25000
12652774;-0.26000
12655552;-0.27000
12658330;-0.30000
12661108;-0.32000
12663885;-0.34000
12666663;-0.36000
12669441;-0.36000
12672219;-0.37500
12674996;-0.37500
12677774;-0.39000
12680552;-0.40000
12683330;-0.40000
12686108;-0.39500
12688885;-0.38500
12691663;-0.39000
12694441;-0.39000
12697219;-0.41000
12699996;-0.41000
12702774;-0.40000
12705552;-0.38500
12708330;-0.39500
12711108;-0.40000
12713885;-0.40000
12716663;-0.41500
12719441;-0.39500
12722219;-0.40000
12724996;-0.40000
12727774;-0.41500
12730552;-0.41000
12733330;-0.42500
12736108;-0.41000
12738885;-0.40000
12741663;-0.42500
12744441;-0.44500
12747219;-0.49500
12749996;-0.53500
12752774;-0.53500
12755552;-0.56000
12758330;-0.60000
12761108;-0.64000
12763885;-0.64500
12766663;-0.59500
12769441;-0.51000
12772219;-0.41500
12774996;-0.31500
12777774;-0.23500
12780552;-0.14500
12783330;0.00000
12786108;0.21000
12788885;0.47500
12791663;0.70000
12794441;0.87000
12797219;0.93500
12799996;0.91000
12802774;0.69500
12805552;0.35000
12808330;-0.06500
12811108;-0.38500
12813885;-0.52000
12816663;-0.55000
12819441;-0.51000
12822219;-0.45500
12824996;-0.44500
12827774;-0.45000
12830552;-0.44500
12833330;-0.44500
12836108;-0.44000
12838885;-0.43000
12841663;-0.43500
12844441;-0.44500
12847219;-0.44500
12849996;-0.45500
12852774;-0.45000
12855552;-0.44500
12858330;-0.44000
12861108;-0.44500
12863885;-0.45500
12866663;-0.45000
12869441;-0.44500
12872219;-0.45000
12874996;-0.45500
12877774;-0.46500
12880552;-0.47000
12883330;-0.47000
12886108;-0.45500
12888885;-0.44500
12891663;-0.46000
12894441;-0.46500
12897219;-0.46500
12899996;-0.46500
12902774;-0.45000
12905552;-0.44000
12908330;-0.45000
12911107;-0.44500
12913885;-0.45000
12916663;-0.46500
12919441;-0.44500
12922219;-0.43000
12924996;-0.44500
12927774;-0.46000
12930552;-0.45500
12933330;-0.48000
12936107;-0.46000
12938885;-0.44500
12941663;-0.44000
12944441;-0.45500
12947219;-0.46500
12949996;-0.47500
12952774;-0.45500
12955552;-0.45000
12958330;-0.44000
12961107;-0.44500
12963885;-0.46500
12966663;-0.46000
12969441;-0.44500
12972219;-0.44500
12974996;-0.45500
12977774;-0.45500
12980552;-0.46000
12983330;-0.46000
12986107;-0.45500
12988885;-0.44500
12991663;-0.45500
12994441;-0.45500
12997219;-0.45500
12999996;-0.46000
13002774;-0.44500
13005552;-0.45000
13008330;-0.46500
13011107;-0.46500
13013885;-0.46000
13016663;-0.46500
13019441;-0.45500
13022219;-0.45000
13024996;-0.46000
13027774;-0.46000
13030552;-0.48000
13033330;-0.48500
13036107;-0.47500
13038885;-0.46500
13041663;-0.47000
13044441;-0.49000
13047219;-0.49500
13049996;-0.50000
13052774;-0.48000
13055552;-0.46500
13058330;-0.48500
13061107;-0.48500
13063885;-0.48500
13066663;-0.49000
13069441;-0.48500
13072219;-0.48000
13074996;-0.48500
13077774;-0.49000
13080552;-0.50000
13083330;-0.50000
13086107;-0.48000
13088885;-0.47500
13091663;-0.47000
13094441;-0.46000
13097219;-0.45000
13099996;-0.45000
13102774;-0.42000
13105552;-0.39000
13108330;-0.39500
13111107;-0.38500
13113885;-0.38500
13116663;-0.38500
13119441;-0.34500
13122219;-0.33500
13124996;-0.32000
13127774;-0.33500
13130552;-0.32000
13133330;-0.32500
13136107;-0.31500
13138885;-0.31000
13141663;-0.31000
13144441;-0.30500
13147219;-0.31500
13149996;-0.32000
13152774;-0.30500
13155552;-0.30000
13158330;-0.30000
13161107;-0.30500
13163885;-0.32000
13166663;-0.32500
13169441;-0.31000
13172219;-0.29500
13174996;-0.28500
13177774;-0.30000
13180552;-0.31500
13183330;-0.31000
13186107;-0.31000
13188885;-0.29500
13191663;-0.30500
13194441;-0.30500
13197219;-0.31500
13199996;-0.32000
13202774;-0.31500
13205552;-0.31000
13208330;-0.31000
13211107;-0.32000
13213885;-0.33000
13216663;-0.32500
13219441;-0.32500
13222219;-0.31500
13224996;-0.31500
13227774;-0.32000
13230552;-0.32500
13233330;-0.33000
13236107;-0.32500
13238885;-0.31500
13241663;-0.33000
13244441;-0.33500
13247219;-0.33500
13249996;-0.34000
13252774;-0.33000
13255552;-0.32500
13258330;-0.31500
13261107;-0.33000
13263885;-0.34000
13266663;-0.35500
13269441;-0.34500
13272219;-0.34500
13274996;-0.33500
13277774;-0.34000
13280552;-0.34500
13283330;-0.35000
13286107;-0.35000
13288885;-0.33500
13291663;-0.34000
13294441;-0.34500
13297218;-0.36000
13299996;-0.36000
13302774;-0.35000
13305552;-0.34000
13308330;-0.34000
13311107;-0.35000
13313885;-0.36000
13316663;-0.36500
13319441;-0.34500
13322218;-0.34000
13324996;-0.34000
13327774;-0.34500
13330552;-0.34500
13333330;-0.34500
13336107;-0.34500
13338885;-0.33000
13341663;-0.31500
13344441;-0.31000
13347218;-0.29500
13349996;-0.31000
13352774;-0.30000
13355552;-0.28000
13358330;-0.27000
13361107;-0.26500
13363885;-0.26500
13366663;-0.27500
13369441;-0.25000
13372218;-0.24000
13374996;-0.22000
13377774;-0.23000
13380552;-0.24000
13383330;-0.22500
13386107;-0.22500
13388885;-0.20500
13391663;-0.22500
13394441;-0.24500
13397218;-0.26000
13399996;-0.25500
13402774;-0.24000
13405552;-0.22000
13408330;-0.23000
13411107;-0.23000
13413885;-0.21500
13416663;-0.19500
13419441;-0.18500
13422218;-0.21000
13424996;-0.24500
13427774;-0.27500
13430552;-0.28500
13433330;-0.29500
13436107;-0.31000
13438885;-0.29500
13441663;-0.32000
13444441;-0.33500
13447218;-0.34000
13449996;-0.35500
13452774;-0.34500
13455552;-0.33500
13458330;-0.34500
13461107;-0.35500
13463885;-0.36000
13466663;-0.35500
13469441;-0.35500
13472218;-0.34500
13474996;-0.36000
13477774;-0.36000
13480552;-0.38500
13483330;-0.38000
13486107;-0.38000
13488885;-0.36000
13491663;-0.36000
13494441;-0.36000
13497218;-0.38000
13499996;-0.39000
13502774;-0.38500
13505552;-0.36500
13508330;-0.36500
13511107;-0.37000
13513885;-0.38500
13516663;-0.39000
13519441;-0.39000
13522218;-0.38000
13524996;-0.43000
13527774;-0.46500
13530552;-0.51000
13533330;-0.52500
13536107;-0.55500
13538885;-0.58000
13541663;-0.58500
13544441;-0.49500
13547218;-0.35000
13549996;-0.19000
13552774;-0.01500
13555552;0.20000
13558330;0.47500
13561107;0.76500
13563885;0.95500
13566663;1.05000
13569441;1.03500
13572218;0.84000
13574996;0.41500
13577774;-0.03500
13580552;-0.36500
13583330;-0.50000
13586107;-0.48500
13588885;-0.43500
13591663;-0.39500
13594441;-0.39000
13597218;-0.40000
13599996;-0.41500
13602774;-0.41000
13605552;-0.39500
13608330;-0.39000
13611107;-0.41500
13613885;-0.42500
13616663;-0.42500
13619441;-0.41500
13622218;-0.41000
13624996;-0.42000
13627774;-0.42000
13630552;-0.43000
13633330;-0.42000
13636107;-0.42500
13638885;-0.41500
13641663;-0.42000
13644441;-0.42500
13647218;-0.44000
13649996;-0.44000
13652774;-0.44000
13655552;-0.43000
13658330;-0.42500
13661107;-0.43000
13663885;-0.43500
13666663;-0.44000
13669441;-0.43000
13672218;-0.41500
13674996;-0.41000
13677774;-0.42500
13680552;-0.43500
13683330;-0.44500
13686107;-0.42500
13688885;-0.42000
13691663;-0.42000
13694441;-0.42500
13697218;-0.43000
13699996;-0.43000
13702774;-0.42500
13705552;-0.41500
13708329;-0.41500
13711107;-0.42500
13713885;-0.42500
13716663;-0.42500
13719441;-0.41500
13722218;-0.41500
13724996;-0.41500
13727774;-0.42000
13730552;-0.42000
13733329;-0.42500
13736107;-0.41500
13738885;-0.41000
13741663;-0.42000
13744441;-0.41500
13747218;-0.43000
13749996;-0.43000
13752774;-0.42000
13755552;-0.41000
13758329;-0.42000
13761107;-0.41500
13763885;-0.43000
13766663;-0.42500
13769441;-0.42000
13772218;-0.42500
13774996;-0.42000
13777774;-0.42000
13780552;-0.42500
13783329;-0.44000
13786107;-0.41500
13788885;-0.41500
13791663;-0.42000
13794441;-0.42500
13797218;-0.43500
13799996;-0.44000
13802774;-0.42500
13805552;-0.41500
13808329;-0.42000
13811107;-0.43000
13813885;-0.43000
13816663;-0.43500
13819441;-0.42000
13822218;-0.41500
13824996;-0.41500
13827774;-0.42000
13830552;-0.42500
13833329;-0.42500
13836107;-0.41500
13838885;-0.41000
13841663;-0.41000
13844441;-0.41500
13847218;-0.42000
13849996;-0.42000
13852774;-0.40000
13855552;-0.39500
13858329;-0.38000
13861107;-0.38000
13863885;-0.37000
13866663;-0.37000
13869441;-0.36000
13872218;-0.34000
13874996;-0.33000
13877774;-0.33000
13880552;-0.33500
13883329;-0.32500
13886107;-0.30500
13888885;-0.29000
13891663;-0.29000
13894441;-0.29500
13897218;-0.30000
13899996;-0.30000
13902774;-0.28000
13905552;-0.28000
13908329;-0.27000
13911107;-0.28000
13913885;-0.29500
13916663;-0.29000
13919441;-0.28000
13922218;-0.28000
13924996;-0.28500
13927774;-0.27500
13930552;-0.29000
13933329;-0.30000
13936107;-0.28500
13938885;-0.27500
13941663;-0.28000
13944441;-0.29000
13947218;-0.29000
13949996;-0.30000
13952774;-0.29000
13955552;-0.29000
13958329;-0.29500
13961107;-0.29500
13963885;-0.30000
13966663;-0.30500
13969441;-0.31000
13972218;-0.29000
13974996;-0.29500
13977774;-0.30000
13980552;-0.31500
13983329;-0.31500
13986107;-0.30000
13988885;-0.29500
13991663;-0.30500
13994441;-0.30000
13997218;-0.30500
13999996;-0.31500
14002774;-0.30000
14005552;-0.30500
14008329;-0.31500
14011107;-0.31500
14013885;-0.32500
14016663;-0.32000
14019441;-0.32000
14022218;-0.30000
14024996;-0.31000
14027774;-0.31500
14030552;-0.32500
14033329;-0.33000
14036107;-0.32500
14038885;-0.31500
14041663;-0.32000
14044441;-0.33500
14047218;-0.35000
14049996;-0.34500
14052774;-0.34500
14055552;-0.33000
14058329;-0.33000
14061107;-0.35500
14063885;-0.36000
14066663;-0.35000
14069441;-0.34000
14072218;-0.34000
14074996;-0.33500
14077774;-0.33500
14080552;-0.35000
14083329;-0.34500
14086107;-0.34000
14088885;-0.33500
14091663;-0.32500
14094440;-0.34500
14097218;-0.34000
14099996;-0.35000
14102774;-0.35000
14105552;-0.33500
14108329;-0.33500
14111107;-0.34500
14113885;-0.34500
14116663;-0.35000
14119440;-0.34000
14122218;-0.32000
14124996;-0.32000
14127774;-0.32500
14130552;-0.32000
14133329;-0.32000
14136107;-0.29500
14138885;-0.29000
14141663;-0.30000
14144440;-0.29000
14147218;-0.28500
14149996;-0.28000
14152774;-0.26500
14155552;-0.25000
14158329;-0.24500
14161107;-0.25500
14163885;-0.25000
14166663;-0.25000
14169440;-0.22500
14172218;-0.22000
14174996;-0.20500
14177774;-0.21000
14180552;-0.21500
14183329;-0.22000
14186107;-0.22500
14188885;-0.22000
14191663;-0.22000
14194440;-0.22500
14197218;-0.23500
14199996;-0.22500
14202774;-0.22000
14205552;-0.21500
14208329;-0.19000
14211107;-0.18500
14213885;-0.20000
14216663;-0.24500
14219440;-0.26500
14222218;-0.27000
14224996;-0.28500
14227774;-0.28500
14230552;-0.32000
14233329;-0.33000
14236107;-0.32500
14238885;-0.33500
14241663;-0.34000
14244440;-0.34500
14247218;-0.35000
14249996;-0.34500
14252774;-0.34000
14255552;-0.33500
14258329;-0.34000
14261107;-0.34500
14263885;-0.35500
14266663;-0.36000
14269440;-0.36000
14272218;-0.35000
14274996;-0.36000
14277774;-0.36000
14280552;-0.37500
14283329;-0.37500
14286107;-0.37000
14288885;-0.35500
14291663;-0.35000
14294440;-0.36000
14297218;-0.36500
14299996;-0.37000
14302774;-0.36500
14305552;-0.36000
14308329;-0.36000
14311107;-0.37000
14313885;-0.39000
14316663;-0.42500
14319440;-0.46000
14322218;-0.48500
14324996;-0.49000
14327774;-0.53500
14330552;-0.57500
14333329;-0.56000
14336107;-0.46000
14338885;-0.29500
14341663;-0.12500
14344440;0.05000
14347218;0.27000
14349996;0.55500
14352774;0.80500
14355552;0.96000
14358329;0.97500
14361107;0.81000
14363885;0.43500
14366663;-0.02500
14369440;-0.35500
14372218;-0.50000
14374996;-0.49000
14377774;-0.44500
14380552;-0.42000
14383329;-0.40500
14386107;-0.39500
14388885;-0.40000
14391663;-0.40500
14394440;-0.41500
14397218;-0.43000
14399996;-0.43500
14402774;-0.42000
14405552;-0.41500
14408329;-0.42000
14411107;-0.42500
14413885;-0.44000
14416663;-0.43500
14419440;-0.42500
14422218;-0.42500
14424996;-0.41500
14427774;-0.43000
14430552;-0.43500
14433329;-0.43000
14436107;-0.42500
14438885;-0.42000
14441663;-0.41500
14444440;-0.43000
14447218;-0.42500
14449996;-0.43000
14452774;-0.43500
14455552;-0.41000
14458329;-0.42000
14461107;-0.41500
14463885;-0.43500
14466663;-0.43500
14469440;-0.43500
14472218;-0.41500
14474996;-0.41000
14477774;-0.41500
14480552;-0.41500
14483329;-0.42000
14486107;-0.41500
14488885;-0.39500
14491663;-0.40500
14494440;-0.41000
14497218;-0.41500
14499996;-0.42000
14502774;-0.41500
14505551;-0.41500
14508329;-0.42000
14511107;-0.42000
14513885;-0.42500
14516663;-0.43500
14519440;-0.42000
14522218;-0.41000
14524996;-0.41500
14527774;-0.41500
14530551;-0.42000
14533329;-0.42500
14536107;-0.42500
14538885;-0.41000
14541663;-0.41000
14544440;-0.42500
14547218;-0.42000
14549996;-0.42500
14552774;-0.41500
14555551;-0.41000
14558329;-0.42000
14561107;-0.41000
14563885;-0.43000
14566663;-0.42500
14569440;-0.41000
14572218;-0.40500
14574996;-0.41000
14577774;-0.41500
14580551;-0.42000
14583329;-0.42000
14586107;-0.42000
14588885;-0.40500
14591663;-0.41000
14594440;-0.41500
14597218;-0.41500
14599996;-0.42500
14602774;-0.42000
14605551;-0.41500
14608329;-0.41000
14611107;-0.42000
14613885;-0.43000
14616663;-0.43000
14619440;-0.43000
14622218;-0.41000
14624996;-0.41500
14627774;-0.42000
14630551;-0.42500
14633329;-0.41500
14636107;-0.40000
14638885;-0.39000
14641663;-0.39500
14644440;-0.39000
14647218;-0.39000
14649996;-0.40000
14652774;-0.39000
14655551;-0.37500
14658329;-0.35000
14661107;-0.35500
14663885;-0.35500
14666663;-0.33500
14669440;-0.32000
14672218;-0.31000
14674996;-0.29500
14677774;-0.30000
14680551;-0.30500
14683329;-0.29500
14686107;-0.29000
14688885;-0.28000
14691663;-0.27000
14694440;-0.28000
14697218;-0.27500
14699996;-0.29000
14702774;-0.27000
14705551;-0.26500
14708329;-0.26000
14711107;-0.26500
14713885;-0.28000
14716663;-0.27000
14719440;-0.26000
14722218;-0.26000
14724996;-0.25000
14727774;-0.26500
14730551;-0.27000
14733329;-0.29500
14736107;-0.27000
14738885;-0.27000
14741663;-0.27000
14744440;-0.27000
14747218;-0.28000
14749996;-0.27500
14752774;-0.27500
14755551;-0.27000
14758329;-0.26500
14761107;-0.27000
14763885;-0.29000
14766663;-0.29500
14769440;-0.29000
14772218;-0.28000
14774996;-0.29500
14777774;-0.29000
14780551;-0.31000
14783329;-0.32000
14786107;-0.29000
14788885;-0.28000
14791663;-0.28500
14794440;-0.29500
14797218;-0.30000
14799996;-0.30000
14802774;-0.30000
14805551;-0.29500
14808329;-0.29000
14811107;-0.30500
14813885;-0.31000
14816663;-0.31000
14819440;-0.31000
14822218;-0.29500
14824996;-0.29500
14827774;-0.31500
14830551;-0.32000
14833329;-0.32500
14836107;-0.31500
14838885;-0.32000
14841663;-0.31500
14844440;-0.32000
14847218;-0.33000
14849996;-0.33000
14852774;-0.32000
14855551;-0.31500
14858329;-0.31500
14861107;-0.32000
14863885;-0.33000
14866663;-0.33500
14869440;-0.33000
14872218;-0.32500
14874996;-0.33500
14877774;-0.33000
14880551;-0.34500
14883329;-0.34000
14886107;-0.33000
14888885;-0.33000
14891662;-0.32500
14894440;-0.32000
14897218;-0.33000
14899996;-0.32000
14902774;-0.33000
14905551;-0.32500
14908329;-0.32000
14911107;-0.32500
14913885;-0.32500
14916662;-0.34000
14919440;-0.33500
14922218;-0.30500
14924996;-0.30500
14927774;-0.31000
14930551;-0.33000
14933329;-0.31500
14936107;-0.30000
14938885;-0.29500
14941662;-0.29500
14944440;-0.29500
14947218;-0.29000
14949996;-0.28500
14952774;-0.27500
14955551;-0.25500
14958329;-0.25000
14961107;-0.25000
14963885;-0.25500
14966662;-0.25500
14969440;-0.24500
14972218;-0.23500
14974996;-0.22000
14977774;-0.21500
14980551;-0.20500
14983329;-0.20500
14986107;-0.18500
14988885;-0.17500
14991662;-0.19000
14994440;-0.19500
14997218;-0.20500
14999996;-0.22000
15002774;-0.20500
15005551;-0.19500
15008329;-0.19000
15011107;-0.19500
15013885;-0.19500
15016662;-0.18000
15019440;-0.18000
15022218;-0.20000
15024996;-0.23000
15027774;-0.26500
15030551;-0.27500
15033329;-0.27500
15036107;-0.28000
15038885;-0.30000
15041662;-0.31000
15044440;-0.32500
15047218;-0.34000
15049996;-0.33500
15052774;-0.33000
15055551;-0.32500
15058329;-0.32500
15061107;-0.33000
15063885;-0.34000
15066662;-0.35500
15069440;-0.35000
15072218;-0.34000
15074996;-0.34500
15077774;-0.35000
15080551;-0.37500
15083329;-0.36000
15086107;-0.36000
15088885;-0.35000
15091662;-0.36000
15094440;-0.35000
15097218;-0.36000
15099996;-0.37000
15102774;-0.35500
15105551;-0.36000
15108329;-0.36000
15111107;-0.38000
15113885;-0.42000
15116662;-0.47000
15119440;-0.48000
15122218;-0.50500
15124996;-0.55000
15127774;-0.57000
15130551;-0.53500
15133329;-0.44000
15136107;-0.29500
15138885;-0.13500
15141662;0.05000
15144440;0.31000
15147218;0.58000
15149996;0.79500
15152774;0.92500
15155551;0.99500
15158329;0.97000
15161107;0.78500
15163885;0.44500
15166662;0.04500
15169440;-0.26500
15172218;-0.44000
15174996;-0.50000
15177774;-0.50500
15180551;-0.46500
15183329;-0.43000
15186107;-0.41500
15188885;-0.40500
15191662;-0.41000
15194440;-0.40000
15197218;-0.40500
15199996;-0.41500
15202774;-0.39500
15205551;-0.40000
15208329;-0.39500
15211107;-0.39500
15213885;-0.40500
15216662;-0.41500
15219440;-0.40000
15222218;-0.40000
15224996;-0.39500
15227774;-0.39000
15230551;-0.40000
15233329;-0.41500
15236107;-0.41000
15238885;-0.40500
15241662;-0.41500
15244440;-0.41000
15247218;-0.42000
15249996;-0.41500
15252774;-0.41000
15255551;-0.41000
15258329;-0.43000
15261107;-0.41500
15263885;-0.42500
15266662;-0.43500
15269440;-0.43500
15272218;-0.40500
15274996;-0.41500
15277774;-0.42000
15280551;-0.44000
15283329;-0.44000
15286107;-0.42000
15288885;-0.40500
15291662;-0.41000
15294440;-0.41500
15297218;-0.42500
15299996;-0.42000
15302773;-0.41000
15305551;-0.40500
15308329;-0.40500
15311107;-0.42000
15313885;-0.42500
15316662;-0.42500
15319440;-0.43000
15322218;-0.42500
15324996;-0.41500
15327773;-0.42000
15330551;-0.42000
15333329;-0.43000
15336107;-0.42000
15338885;-0.42500
15341662;-0.43500
15344440;-0.44500
15347218;-0.44500
15349996;-0.43500
15352773;-0.43500
15355551;-0.41000
15358329;-0.40500
15361107;-0.41500
15363885;-0.43000
15366662;-0.44000
15369440;-0.42500
15372218;-0.42500
15374996;-0.42500
15377773;-0.43000
15380551;-0.45500
15383329;-0.46000
15386107;-0.45500
15388885;-0.44000
15391662;-0.44000
15394440;-0.44500
15397218;-0.45500
15399996;-0.45000
15402773;-0.44500
15405551;-0.44500
15408329;-0.44500
15411107;-0.45500
15413885;-0.47000
15416662;-0.46000
15419440;-0.45500
15422218;-0.45000
15424996;-0.45500
15427773;-0.44000
15430551;-0.45000
15433329;-0.45000
15436107;-0.43500
15438885;-0.42500
15441662;-0.41500
15444440;-0.41500
15447218;-0.42000
15449996;-0.41000
15452773;-0.38000
15455551;-0.35500
15458329;-0.35500
15461107;-0.35000
15463885;-0.35000
15466662;-0.35000
15469440;-0.33500
15472218;-0.33000
15474996;-0.34000
15477773;-0.34000
15480551;-0.33000
15483329;-0.34000
15486107;-0.33500
15488885;-0.32000
15491662;-0.31500
15494440;-0.31500
15497218;-0.33000
15499996;-0.33500
15502773;-0.32000
15505551;-0.31500
15508329;-0.33500
15511107;-0.34000
15513885;-0.33500
15516662;-0.33000
15519440;-0.32000
15522218;-0.32000
15524996;-0.33000
15527773;-0.35000
15530551;-0.35000
15533329;-0.35000
15536107;-0.35000
15538885;-0.33500
15541662;-0.34000
15544440;-0.34000
15547218;-0.35000
15549996;-0.34500
15552773;-0.34500
15555551;-0.33000
15558329;-0.33000
15561107;-0.32500
15563885;-0.35000
15566662;-0.35500
15569440;-0.35500
15572218;-0.35500
15574996;-0.35500
15577773;-0.37000
15580551;-0.35500
15583329;-0.37500
15586107;-0.36500
15588885;-0.35000
15591662;-0.35500
15594440;-0.37000
15597218;-0.38500
15599996;-0.39500
15602773;-0.38500
15605551;-0.38500
15608329;-0.37500
15611107;-0.38500
15613885;-0.39500
15616662;-0.40500
15619440;-0.39000
15622218;-0.39000
15624996;-0.39000
15627773;-0.39000
15630551;-0.39000
15633329;-0.38500
15636107;-0.38000
15638885;-0.36000
15641662;-0.38000
15644440;-0.38500
15647218;-0.41000
15649996;-0.41000
15652773;-0.40000
15655551;-0.40000
15658329;-0.39000
15661107;-0.39000
15663885;-0.40000
15666662;-0.40500
15669440;-0.40500
15672218;-0.39000
15674996;-0.38500
15677773;-0.40500
15680551;-0.40000
15683329;-0.40500
15686107;-0.40500
15688884;-0.39500
15691662;-0.40500
15694440;-0.40500
15697218;-0.39500
15699996;-0.38500
15702773;-0.38000
15705551;-0.38000
15708329;-0.40000
15711107;-0.42000
15713884;-0.42000
15716662;-0.42000
15719440;-0.40500
15722218;-0.38500
15724996;-0.38500
15727773;-0.40000
15730551;-0.41000
15733329;-0.39500
15736107;-0.39000
15738884;-0.37000
15741662;-0.37500
15744440;-0.36000
15747218;-0.37500
15749996;-0.39000
15752773;-0.37000
15755551;-0.36000
15758329;-0.35500
15761107;-0.35000
15763884;-0.34500
15766662;-0.33500
15769440;-0.32000
15772218;-0.31000
15774996;-0.32000
15777773;-0.33000
15780551;-0.32000
15783329;-0.31000
15786107;-0.29500
15788884;-0.28000
15791662;-0.28500
15794440;-0.30000
15797218;-0.30000
15799996;-0.30500
15802773;-0.29500
15805551;-0.30000
15808329;-0.31500
15811107;-0.30000
15813884;-0.30500
15816662;-0.30000
15819440;-0.28500
15822218;-0.28500
15824996;-0.30500
15827773;-0.34000
15830551;-0.36500
15833329;-0.38000
15836107;-0.37500
15838884;-0.38500
15841662;-0.39500
15844440;-0.41000
15847218;-0.44000
15849996;-0.44000
15852773;-0.43000
15855551;-0.42500
15858329;-0.42500
15861107;-0.43000
15863884;-0.45000
15866662;-0.45000
15869440;-0.44000
15872218;-0.43500
15874996;-0.44500
15877773;-0.46000
15880551;-0.47500
15883329;-0.47500
15886107;-0.44500
15888884;-0.44500
15891662;-0.44500
15894440;-0.45500
15897218;-0.46000
15899996;-0.45000
15902773;-0.43500
15905551;-0.44000
15908329;-0.46000
15911107;-0.50000
15913884;-0.55500
15916662;-0.56500
15919440;-0.59000
15922218;-0.61500
15924996;-0.63500
15927773;-0.59500
15930551;-0.52000
15933329;-0.40000
15936107;-0.26000
15938884;-0.08500
15941662;0.11500
15944440;0.37000
15947218;0.59500
15949996;0.76500
15952773;0.84000
