time_ms;ecg_value
0;0.91500
2778;0.96000
5556;0.84500
8333;0.54000
11111;0.13000
13889;-0.24000
16667;-0.42500
19444;-0.46500
22222;-0.45500
25000;-0.41500
27778;-0.40000
30556;-0.40000
33333;-0.38500
36111;-0.39000
38889;-0.39000
41667;-0.39000
44444;-0.39500
47222;-0.38500
50000;-0.38000
52778;-0.38000
55556;-0.38500
58333;-0.40500
61111;-0.41500
63889;-0.40500
66667;-0.39500
69444;-0.40500
72222;-0.41000
75000;-0.42000
77778;-0.42000
80556;-0.41500
83333;-0.39000
86111;-0.38500
88889;-0.39500
91667;-0.41000
94444;-0.42000
97222;-0.41000
100000;-0.40500
102778;-0.40000
105556;-0.42500
108333;-0.42500
111111;-0.42000
113889;-0.41000
116667;-0.39500
119444;-0.39500
122222;-0.40500
125000;-0.42000
127778;-0.42500
130556;-0.41500
133333;-0.41000
136111;-0.40500
138889;-0.42000
141667;-0.41500
144444;-0.42000
147222;-0.40000
150000;-0.40500
152778;-0.40500
155556;-0.41000
158333;-0.41000
161111;-0.42500
163889;-0.41500
166667;-0.41000
169444;-0.41000
172222;-0.41500
175000;-0.42500
177778;-0.42500
180556;-0.42500
183333;-0.41500
186111;-0.41000
188889;-0.41000
191667;-0.42500
194444;-0.43000
197222;-0.42500
200000;-0.42000
202778;-0.40500
205555;-0.42000
208333;-0.42500
211111;-0.43000
213889;-0.42000
216667;-0.41000
219444;-0.42000
222222;-0.43000
225000;-0.44000
227778;-0.44000
230555;-0.43500
233333;-0.43000
236111;-0.42500
238889;-0.43000
241667;-0.45500
244444;-0.45000
247222;-0.45000
250000;-0.44000
252778;-0.44000
255555;-0.45000
258333;-0.45000
261111;-0.46500
263889;-0.46500
266667;-0.45000
269444;-0.46000
272222;-0.45000
275000;-0.46000
277778;-0.44500
280555;-0.43500
283333;-0.43000
286111;-0.43000
288889;-0.43000
291667;-0.44500
294444;-0.44500
297222;-0.42000
300000;-0.41000
302778;-0.41000
305555;-0.40500
308333;-0.39500
311111;-0.39000
313889;-0.37500
316667;-0.35000
319444;-0.33500
322222;-0.32500
325000;-0.32500
327778;-0.33500
330555;-0.33500
333333;-0.32000
336111;-0.32000
338889;-0.31000
341667;-0.33500
344444;-0.32000
347222;-0.31500
350000;-0.31000
352778;-0.29500
355555;-0.31500
358333;-0.31500
361111;-0.31500
363889;-0.31000
366667;-0.30000
369444;-0.31500
372222;-0.32000
375000;-0.31000
377778;-0.31000
380555;-0.30000
383333;-0.31000
386111;-0.31000
388889;-0.32000
391667;-0.33000
394444;-0.32500
397222;-0.31500
400000;-0.30500
402778;-0.31500
405555;-0.30000
408333;-0.32000
411111;-0.32000
413889;-0.32500
416667;-0.32000
419444;-0.33500
422222;-0.33500
425000;-0.35000
427778;-0.36000
430555;-0.34500
433333;-0.33000
436111;-0.33500
438889;-0.32500
441667;-0.33500
444444;-0.35000
447222;-0.34000
450000;-0.33000
452778;-0.34500
455555;-0.35500
458333;-0.36000
461111;-0.36500
463889;-0.36000
466667;-0.35000
469444;-0.34000
472222;-0.34000
475000;-0.36000
477778;-0.36500
480555;-0.37000
483333;-0.36500
486111;-0.36000
488889;-0.36000
491667;-0.36000
494444;-0.37500
497222;-0.37000
500000;-0.36000
502778;-0.36000
505555;-0.37500
508333;-0.37500
511111;-0.37000
513889;-0.35500
516667;-0.35000
519444;-0.36000
522222;-0.37500
525000;-0.37500
527778;-0.38000
530555;-0.37000
533333;-0.35500
536111;-0.34000
538889;-0.34000
541667;-0.35000
544444;-0.36000
547222;-0.36000
550000;-0.34500
552778;-0.35000
555555;-0.36500
558333;-0.37500
561111;-0.37500
563889;-0.36500
566667;-0.37000
569444;-0.35500
572222;-0.35500
575000;-0.36000
577778;-0.37500
580555;-0.36500
583333;-0.38000
586111;-0.38000
588889;-0.38000
591667;-0.38000
594444;-0.37500
597222;-0.34000
600000;-0.33500
602778;-0.34500
605555;-0.35000
608333;-0.35500
611111;-0.35500
613889;-0.35000
616666;-0.34000
619444;-0.34500
622222;-0.35500
625000;-0.37500
627778;-0.37500
630555;-0.35500
633333;-0.34000
636111;-0.34000
638889;-0.33000
641666;-0.33000
644444;-0.33000
647222;-0.31500
650000;-0.31500
652778;-0.30500
655555;-0.29000
658333;-0.28000
661111;-0.29000
663889;-0.30000
666666;-0.26500
669444;-0.25500
672222;-0.25500
675000;-0.26000
677778;-0.25500
680555;-0.25000
683333;-0.25000
686111;-0.25000
688889;-0.26000
691666;-0.27000
694444;-0.27500
697222;-0.27000
700000;-0.26000
702778;-0.26000
705555;-0.26000
708333;-0.23500
711111;-0.24000
713889;-0.25500
716666;-0.27000
719444;-0.28500
722222;-0.29500
725000;-0.30000
727778;-0.32500
730555;-0.35000
733333;-0.36500
736111;-0.38000
738889;-0.38000
741666;-0.39500
744444;-0.38500
747222;-0.39000
750000;-0.39000
752778;-0.39000
755555;-0.40500
758333;-0.39000
761111;-0.41000
763889;-0.39500
766666;-0.38500
769444;-0.40000
772222;-0.40500
775000;-0.40500
777778;-0.39500
780555;-0.39500
783333;-0.38500
786111;-0.39500
788889;-0.40000
791666;-0.40500
794444;-0.40500
797222;-0.39500
800000;-0.40000
802778;-0.40500
805555;-0.42000
808333;-0.43000
811111;-0.44500
813889;-0.45500
816666;-0.48500
819444;-0.50500
822222;-0.54500
825000;-0.60000
827778;-0.60500
830555;-0.56000
833333;-0.44500
836111;-0.30000
838889;-0.13000
841666;0.07000
844444;0.32500
847222;0.61000
850000;0.81000
852778;0.90500
855555;0.83500
858333;0.56000
861111;0.13500
863889;-0.25000
866666;-0.45000
869444;-0.53000
872222;-0.53000
875000;-0.50000
877778;-0.48500
880555;-0.45000
883333;-0.44000
886111;-0.44500
888889;-0.44500
891666;-0.45000
894444;-0.45000
897222;-0.43500
900000;-0.43000
902778;-0.43000
905555;-0.43500
908333;-0.45500
911111;-0.45500
913889;-0.44500
916666;-0.43000
919444;-0.44000
922222;-0.44000
925000;-0.45000
927778;-0.46500
930555;-0.46000
933333;-0.45500
936111;-0.45000
938889;-0.46000
941666;-0.47000
944444;-0.45500
947222;-0.45500
950000;-0.45000
952778;-0.45500
955555;-0.46000
958333;-0.46500
961111;-0.48000
963889;-0.46500
966666;-0.46000
969444;-0.46500
972222;-0.46000
975000;-0.47000
977778;-0.48000
980555;-0.47000
983333;-0.46500
986111;-0.46500
988889;-0.47000
991666;-0.48000
994444;-0.48000
997222;-0.46000
1000000;-0.46000
1002777;-0.46000
1005555;-0.47000
1008333;-0.47500
1011111;-0.47500
1013889;-0.47500
1016666;-0.46500
1019444;-0.46000
1022222;-0.46500
1025000;-0.47000
1027777;-0.47000
1030555;-0.45500
1033333;-0.45000
1036111;-0.45000
1038889;-0.45500
1041666;-0.47000
1044444;-0.47000
1047222;-0.47000
1050000;-0.45000
1052777;-0.45500
1055555;-0.46000
1058333;-0.46000
1061111;-0.47000
1063889;-0.47500
1066666;-0.46000
1069444;-0.46500
1072222;-0.46000
1075000;-0.47500
1077777;-0.46500
1080555;-0.46500
1083333;-0.46000
1086111;-0.46500
1088889;-0.47000
1091666;-0.49000
1094444;-0.49000
1097222;-0.49000
1100000;-0.48500
1102777;-0.50500
1105555;-0.49000
1108333;-0.50500
1111111;-0.52500
1113889;-0.51000
1116666;-0.50000
1119444;-0.50000
1122222;-0.50000
1125000;-0.52500
1127777;-0.52500
1130555;-0.51500
1133333;-0.49500
1136111;-0.48000
1138889;-0.47500
1141666;-0.47000
1144444;-0.46500
1147222;-0.44500
1150000;-0.41500
1152777;-0.39500
1155555;-0.40000
1158333;-0.37500
1161111;-0.37500
1163889;-0.35500
1166666;-0.34000
1169444;-0.33500
1172222;-0.32500
1175000;-0.32500
1177777;-0.33000
1180555;-0.31000
1183333;-0.29500
1186111;-0.29500
1188889;-0.30500
1191666;-0.31000
1194444;-0.31000
1197222;-0.30500
1200000;-0.28500
1202777;-0.28500
1205555;-0.29500
1208333;-0.29500
1211111;-0.30000
1213889;-0.28500
1216666;-0.29000
1219444;-0.28000
1222222;-0.28500
1225000;-0.29000
1227777;-0.28500
1230555;-0.28000
1233333;-0.26500
1236111;-0.27000
1238889;-0.26000
1241666;-0.28500
1244444;-0.28500
1247222;-0.28000
1250000;-0.26500
1252777;-0.27000
1255555;-0.28500
1258333;-0.30000
1261111;-0.29500
1263889;-0.28000
1266666;-0.27000
1269444;-0.26500
1272222;-0.28000
1275000;-0.30500
1277777;-0.30000
1280555;-0.29000
1283333;-0.29500
1286111;-0.29500
1288889;-0.30500
1291666;-0.30500
1294444;-0.30500
1297222;-0.32000
1300000;-0.31000
1302777;-0.30000
1305555;-0.30000
1308333;-0.31500
1311111;-0.31500
1313889;-0.30500
1316666;-0.29000
1319444;-0.29500
1322222;-0.30000
1325000;-0.31000
1327777;-0.30500
1330555;-0.30500
1333333;-0.29000
1336111;-0.30500
1338889;-0.31000
1341666;-0.31500
1344444;-0.32500
1347222;-0.31000
1350000;-0.30500
1352777;-0.31500
1355555;-0.31000
1358333;-0.32000
1361111;-0.33000
1363889;-0.32000
1366666;-0.31000
1369444;-0.31000
1372222;-0.32000
1375000;-0.32000
1377777;-0.32000
1380555;-0.31000
1383333;-0.30500
1386111;-0.30000
1388888;-0.30500
1391666;-0.31500
1394444;-0.32000
1397222;-0.31000
1400000;-0.30000
1402777;-0.30500
1405555;-0.30000
1408333;-0.31000
1411111;-0.30500
1413888;-0.30000
1416666;-0.29000
1419444;-0.30500
1422222;-0.30000
1425000;-0.30500
1427777;-0.31500
1430555;-0.31000
1433333;-0.30500
1436111;-0.31000
1438888;-0.30000
1441666;-0.31000
1444444;-0.31000
1447222;-0.30000
1450000;-0.29500
1452777;-0.28500
1455555;-0.27000
1458333;-0.26000
1461111;-0.27000
1463888;-0.25500
1466666;-0.25000
1469444;-0.23000
1472222;-0.23000
1475000;-0.23000
1477777;-0.22500
1480555;-0.20500
1483333;-0.19000
1486111;-0.19000
1488888;-0.18000
1491666;-0.20000
1494444;-0.19500
1497222;-0.19000
1500000;-0.17000
1502777;-0.17500
1505555;-0.18500
1508333;-0.20000
1511111;-0.21000
1513888;-0.19500
1516666;-0.18000
1519444;-0.16500
1522222;-0.18000
1525000;-0.18500
1527777;-0.17500
1530555;-0.14500
1533333;-0.12500
1536111;-0.14500
1538888;-0.19000
1541666;-0.22000
1544444;-0.24000
1547222;-0.24000
1550000;-0.24000
1552777;-0.25500
1555555;-0.27000
1558333;-0.28000
1561111;-0.30500
1563888;-0.30500
1566666;-0.31000
1569444;-0.32000
1572222;-0.31000
1575000;-0.33500
1577777;-0.33500
1580555;-0.32500
1583333;-0.31500
1586111;-0.32500
1588888;-0.33500
1591666;-0.33500
1594444;-0.35000
1597222;-0.32000
1600000;-0.33000
1602777;-0.33500
1605555;-0.34000
1608333;-0.33500
1611111;-0.34000
1613888;-0.33500
1616666;-0.32000
1619444;-0.34000
1622222;-0.34000
1625000;-0.35000
1627777;-0.36000
1630555;-0.36000
1633333;-0.36000
1636111;-0.41500
1638888;-0.45500
1641666;-0.48000
1644444;-0.51500
1647222;-0.54000
1650000;-0.52000
1652777;-0.44000
1655555;-0.29000
1658333;-0.11000
1661111;0.08000
1663888;0.33000
1666666;0.64000
1669444;0.90500
1672222;1.09500
1675000;1.19000
1677777;1.15500
1680555;0.97500
1683333;0.65500
1686111;0.27000
1688888;-0.07000
1691666;-0.32500
1694444;-0.46500
1697222;-0.50000
1700000;-0.44500
1702777;-0.38000
1705555;-0.36500
1708333;-0.36000
1711111;-0.37000
1713888;-0.36500
1716666;-0.36000
1719444;-0.36000
1722222;-0.36000
1725000;-0.38500
1727777;-0.39500
1730555;-0.39500
1733333;-0.38000
1736111;-0.38000
1738888;-0.39000
1741666;-0.39500
1744444;-0.40500
1747222;-0.39500
1750000;-0.38500
1752777;-0.38000
1755555;-0.39500
1758333;-0.39500
1761111;-0.39000
1763888;-0.38500
1766666;-0.37500
1769444;-0.38500
1772222;-0.39500
1775000;-0.39000
1777777;-0.42000
1780555;-0.39500
1783333;-0.39000
1786111;-0.39000
1788888;-0.38500
1791666;-0.40000
1794444;-0.40500
1797222;-0.40000
1799999;-0.39500
1802777;-0.38000
1805555;-0.39500
1808333;-0.40000
1811111;-0.41000
1813888;-0.39000
1816666;-0.39500
1819444;-0.38500
1822222;-0.40500
1824999;-0.41000
1827777;-0.41500
1830555;-0.40000
1833333;-0.39500
1836111;-0.40000
1838888;-0.40500
1841666;-0.40000
1844444;-0.40500
1847222;-0.39500
1849999;-0.39000
1852777;-0.39500
1855555;-0.40500
1858333;-0.40500
1861111;-0.41500
1863888;-0.40000
1866666;-0.38500
1869444;-0.39000
1872222;-0.40000
1874999;-0.40000
1877777;-0.40500
1880555;-0.40500
1883333;-0.39000
1886111;-0.40000
1888888;-0.40500
1891666;-0.40500
1894444;-0.41500
1897222;-0.42500
1899999;-0.40000
1902777;-0.41500
1905555;-0.42000
1908333;-0.42500
1911111;-0.43500
1913888;-0.42500
1916666;-0.42000
1919444;-0.41500
1922222;-0.42000
1924999;-0.42500
1927777;-0.43000
1930555;-0.42000
1933333;-0.41000
1936111;-0.42000
1938888;-0.41500
1941666;-0.42500
1944444;-0.42500
1947222;-0.41500
1949999;-0.40500
1952777;-0.40500
1955555;-0.42000
1958333;-0.41000
1961111;-0.41000
1963888;-0.39500
1966666;-0.39000
1969444;-0.37500
1972222;-0.36500
1974999;-0.36000
1977777;-0.35000
1980555;-0.33500
1983333;-0.31500
1986111;-0.31500
1988888;-0.30500
1991666;-0.31000
1994444;-0.30000
1997222;-0.29500
1999999;-0.28000
2002777;-0.28000
2005555;-0.29000
2008333;-0.30000
2011111;-0.30000
2013888;-0.28500
2016666;-0.27500
2019444;-0.27000
2022222;-0.27500
2024999;-0.28500
2027777;-0.27500
2030555;-0.27000
2033333;-0.26500
2036111;-0.26500
2038888;-0.27000
2041666;-0.28000
2044444;-0.28000
2047222;-0.27000
2049999;-0.26000
2052777;-0.26500
2055555;-0.26000
2058333;-0.27500
2061111;-0.27000
2063888;-0.26000
2066666;-0.25500
2069444;-0.26500
2072222;-0.28000
2074999;-0.28500
2077777;-0.28500
2080555;-0.26500
2083333;-0.27000
2086111;-0.26500
2088888;-0.27500
2091666;-0.28000
2094444;-0.29000
2097222;-0.27500
2099999;-0.28500
2102777;-0.27500
2105555;-0.28000
2108333;-0.29500
2111111;-0.30000
2113888;-0.29000
2116666;-0.28500
2119444;-0.28500
2122222;-0.29500
2124999;-0.30000
2127777;-0.30500
2130555;-0.29500
2133333;-0.28500
2136111;-0.30000
2138888;-0.30000
2141666;-0.30500
2144444;-0.32000
2147222;-0.31000
2149999;-0.30500
2152777;-0.30500
2155555;-0.31500
2158333;-0.32500
2161111;-0.32500
2163888;-0.30500
2166666;-0.31000
2169444;-0.30500
2172222;-0.31000
2174999;-0.31500
2177777;-0.32000
2180555;-0.31000
2183333;-0.30500
2186110;-0.30500
2188888;-0.31000
2191666;-0.31500
2194444;-0.32000
2197222;-0.31000
2199999;-0.30500
2202777;-0.30500
2205555;-0.30500
2208333;-0.30500
2211110;-0.31000
2213888;-0.30000
2216666;-0.30500
2219444;-0.30000
2222222;-0.29500
2224999;-0.32000
2227777;-0.31500
2230555;-0.30500
2233333;-0.29000
2236110;-0.31500
2238888;-0.30500
2241666;-0.30500
2244444;-0.30500
2247222;-0.29000
2249999;-0.25000
2252777;-0.25000
2255555;-0.24500
2258333;-0.25000
2261110;-0.24000
2263888;-0.22500
2266666;-0.21500
2269444;-0.21000
2272222;-0.21500
2274999;-0.20500
2277777;-0.21000
2280555;-0.20000
2283333;-0.17500
2286110;-0.16000
2288888;-0.16000
2291666;-0.17000
2294444;-0.18000
2297222;-0.18000
2299999;-0.18500
2302777;-0.19500
2305555;-0.19000
2308333;-0.19000
2311110;-0.19000
2313888;-0.19000
2316666;-0.16500
2319444;-0.15500
2322222;-0.14500
2324999;-0.16500
2327777;-0.20500
2330555;-0.22500
2333333;-0.23500
2336110;-0.23500
2338888;-0.25500
2341666;-0.27000
2344444;-0.30000
2347222;-0.30000
2349999;-0.31000
2352777;-0.31000
2355555;-0.30500
2358333;-0.31000
2361110;-0.31500
2363888;-0.31000
2366666;-0.31500
2369444;-0.31500
2372222;-0.33000
2374999;-0.33500
2377777;-0.33500
2380555;-0.34500
2383333;-0.33000
2386110;-0.33500
2388888;-0.34000
2391666;-0.34500
2394444;-0.36000
2397222;-0.34000
2399999;-0.33000
2402777;-0.33000
2405555;-0.32500
2408333;-0.33000
2411110;-0.34500
2413888;-0.33000
2416666;-0.33000
2419444;-0.35000
2422222;-0.38500
2424999;-0.44000
2427777;-0.46500
2430555;-0.46500
2433333;-0.49000
2436110;-0.52500
2438888;-0.54000
2441666;-0.48500
2444444;-0.33500
2447222;-0.15500
2449999;0.03000
2452777;0.23000
2455555;0.47500
2458333;0.73000
2461110;0.95000
2463888;1.09500
2466666;1.13500
2469444;1.05000
2472222;0.74500
2474999;0.28500
2477777;-0.16000
2480555;-0.41500
2483333;-0.46000
2486110;-0.41000
2488888;-0.36000
2491666;-0.35000
2494444;-0.36500
2497222;-0.36500
2499999;-0.37000
2502777;-0.38000
2505555;-0.37500
2508333;-0.40500
2511110;-0.40000
2513888;-0.39000
2516666;-0.38000
2519444;-0.39000
2522222;-0.40000
2524999;-0.39500
2527777;-0.39000
2530555;-0.38000
2533333;-0.37500
2536110;-0.38000
2538888;-0.38500
2541666;-0.39000
2544444;-0.39000
2547222;-0.39500
2549999;-0.38500
2552777;-0.39500
2555555;-0.39000
2558333;-0.39000
2561110;-0.40000
2563888;-0.39000
2566666;-0.38500
2569444;-0.39000
2572222;-0.39500
2574999;-0.40500
2577777;-0.41000
2580555;-0.40000
2583333;-0.38000
2586110;-0.38500
2588888;-0.38000
2591666;-0.39000
2594444;-0.40000
2597221;-0.39500
2599999;-0.38000
2602777;-0.38000
2605555;-0.38500
2608333;-0.39500
2611110;-0.40000
2613888;-0.40500
2616666;-0.39000
2619444;-0.39500
2622221;-0.39000
2624999;-0.40000
2627777;-0.42000
2630555;-0.41000
2633333;-0.38500
2636110;-0.38000
2638888;-0.40500
2641666;-0.41500
2644444;-0.41500
2647221;-0.40000
2649999;-0.40000
2652777;-0.40500
2655555;-0.42000
2658333;-0.42000
2661110;-0.42500
2663888;-0.41000
2666666;-0.41500
2669444;-0.40000
2672221;-0.41000
2674999;-0.41500
2677777;-0.41500
2680555;-0.41000
2683333;-0.39500
2686110;-0.39500
2688888;-0.40000
2691666;-0.42000
2694444;-0.42000
2697221;-0.41500
2699999;-0.41000
2702777;-0.40000
2705555;-0.40500
2708333;-0.42000
2711110;-0.42500
2713888;-0.41000
2716666;-0.40000
2719444;-0.41000
2722221;-0.41500
2724999;-0.41500
2727777;-0.41500
2730555;-0.40500
2733333;-0.39500
2736110;-0.36500
2738888;-0.37000
2741666;-0.36000
2744444;-0.36000
2747221;-0.34500
2749999;-0.32500
2752777;-0.31000
2755555;-0.32500
2758333;-0.32000
2761110;-0.32000
2763888;-0.30000
2766666;-0.29000
2769444;-0.28000
2772221;-0.28500
2774999;-0.29000
2777777;-0.29500
2780555;-0.28000
2783333;-0.26500
2786110;-0.27000
2788888;-0.26500
2791666;-0.28000
2794444;-0.29500
2797221;-0.28000
2799999;-0.27000
2802777;-0.27000
2805555;-0.27500
2808333;-0.28000
2811110;-0.28000
2813888;-0.27500
2816666;-0.26500
2819444;-0.25500
2822221;-0.27000
2824999;-0.27500
2827777;-0.28000
2830555;-0.28000
2833333;-0.26000
2836110;-0.26500
2838888;-0.27500
2841666;-0.27500
2844444;-0.29000
2847221;-0.27500
2849999;-0.26500
2852777;-0.27500
2855555;-0.27000
2858333;-0.28000
2861110;-0.29500
2863888;-0.29000
2866666;-0.28500
2869444;-0.28500
2872221;-0.28500
2874999;-0.30500
2877777;-0.32000
2880555;-0.31500
2883333;-0.29500
2886110;-0.30000
2888888;-0.30000
2891666;-0.32000
2894444;-0.31500
2897221;-0.30500
2899999;-0.29500
2902777;-0.29000
2905555;-0.31000
2908333;-0.31500
2911110;-0.32500
2913888;-0.31000
2916666;-0.30500
2919444;-0.31500
2922221;-0.31500
2924999;-0.32500
2927777;-0.33000
2930555;-0.31500
2933333;-0.32000
2936110;-0.30500
2938888;-0.32000
2941666;-0.32500
2944444;-0.33000
2947221;-0.32000
2949999;-0.32000
2952777;-0.31500
2955555;-0.33000
2958333;-0.34000
2961110;-0.33000
2963888;-0.32500
2966666;-0.32500
2969444;-0.31000
2972221;-0.31000
2974999;-0.33000
2977777;-0.32500
2980555;-0.31500
2983332;-0.30500
2986110;-0.30000
2988888;-0.31000
2991666;-0.31500
2994444;-0.32000
2997221;-0.30500
2999999;-0.30500
3002777;-0.30500
3005555;-0.31500
3008332;-0.32000
3011110;-0.31000
3013888;-0.30500
3016666;-0.31000
3019444;-0.30000
3022221;-0.29000
3024999;-0.29000
3027777;-0.28500
3030555;-0.27500
3033332;-0.26000
3036110;-0.25500
3038888;-0.25500
3041666;-0.25000
3044444;-0.24500
3047221;-0.23000
3049999;-0.22500
3052777;-0.21000
3055555;-0.22000
3058332;-0.22000
3061110;-0.21000
3063888;-0.19500
3066666;-0.19000
3069444;-0.18000
3072221;-0.17000
3074999;-0.18500
3077777;-0.19000
3080555;-0.19000
3083332;-0.18000
3086110;-0.19000
3088888;-0.20000
3091666;-0.21000
3094444;-0.21500
3097221;-0.21000
3099999;-0.19000
3102777;-0.18500
3105555;-0.18500
3108332;-0.18000
3111110;-0.17500
3113888;-0.19500
3116666;-0.22000
3119444;-0.25000
3122221;-0.26500
3124999;-0.27000
3127777;-0.29500
3130555;-0.29000
3133332;-0.30000
3136110;-0.30500
3138888;-0.33000
3141666;-0.33500
3144444;-0.32500
3147221;-0.31000
3149999;-0.30500
3152777;-0.31000
3155555;-0.31500
3158332;-0.32500
3161110;-0.33500
3163888;-0.34500
3166666;-0.33500
3169444;-0.33500
3172221;-0.34000
3174999;-0.34500
3177777;-0.34000
3180555;-0.33000
3183332;-0.32500
3186110;-0.32000
3188888;-0.34000
3191666;-0.34000
3194444;-0.35500
3197221;-0.33500
3199999;-0.33000
3202777;-0.34500
3205555;-0.35000
3208332;-0.35500
3211110;-0.38500
3213888;-0.41500
3216666;-0.45500
3219444;-0.47000
3222221;-0.50500
3224999;-0.55000
3227777;-0.57500
3230555;-0.50000
3233332;-0.36500
3236110;-0.19500
3238888;-0.04500
3241666;0.13000
3244444;0.38000
3247221;0.67000
3249999;0.89000
3252777;1.00500
3255555;0.99500
3258332;0.80500
3261110;0.43000
3263888;0.00000
3266666;-0.32500
3269444;-0.46500
3272221;-0.47500
3274999;-0.43000
3277777;-0.39000
3280555;-0.37500
3283332;-0.38500
3286110;-0.36500
3288888;-0.38500
3291666;-0.38000
3294444;-0.40000
3297221;-0.39500
3299999;-0.39500
3302777;-0.39500
3305555;-0.39500
3308332;-0.40500
3311110;-0.41500
3313888;-0.39000
3316666;-0.40000
3319444;-0.39500
3322221;-0.41500
3324999;-0.41500
3327777;-0.41500
3330555;-0.40500
3333332;-0.40000
3336110;-0.41000
3338888;-0.41500
3341666;-0.41500
3344444;-0.43000
3347221;-0.41500
3349999;-0.40500
3352777;-0.39500
3355555;-0.40000
3358332;-0.39500
3361110;-0.42000
3363888;-0.40500
3366666;-0.40000
3369444;-0.40500
3372221;-0.41500
3374999;-0.42000
3377777;-0.42500
3380555;-0.41500
3383332;-0.42000
3386110;-0.40500
3388888;-0.41500
3391666;-0.42500
3394443;-0.42000
3397221;-0.39500
3399999;-0.40500
3402777;-0.40000
3405555;-0.41000
3408332;-0.41500
3411110;-0.42500
3413888;-0.41000
3416666;-0.40000
3419443;-0.40000
3422221;-0.40500
3424999;-0.41000
3427777;-0.43000
3430555;-0.40000
3433332;-0.40000
3436110;-0.41000
3438888;-0.41000
3441666;-0.41500
3444443;-0.42500
3447221;-0.41500
3449999;-0.40000
3452777;-0.40000
3455555;-0.40000
3458332;-0.40500
3461110;-0.41500
3463888;-0.40500
3466666;-0.41000
3469443;-0.40500
3472221;-0.42000
3474999;-0.42500
3477777;-0.43000
3480555;-0.42000
3483332;-0.42000
3486110;-0.40500
3488888;-0.41500
3491666;-0.42500
3494443;-0.43000
3497221;-0.41500
3499999;-0.42000
3502777;-0.41500
3505555;-0.41500
3508332;-0.43000
3511110;-0.42500
3513888;-0.42000
3516666;-0.39500
3519443;-0.40500
3522221;-0.40500
3524999;-0.40500
3527777;-0.41000
3530555;-0.39500
3533332;-0.37500
3536110;-0.36000
3538888;-0.36000
3541666;-0.36000
3544443;-0.35500
3547221;-0.33000
3549999;-0.30500
3552777;-0.29500
3555555;-0.28000
3558332;-0.26000
3561110;-0.22500
3563888;-0.17500
3566666;-0.15000
3569443;-0.15000
3572221;-0.16500
3574999;-0.16500
3577777;-0.16500
3580555;-0.15000
3583332;-0.13000
3586110;-0.11500
3588888;-0.13000
3591666;-0.15000
3594443;-0.17000
3597221;-0.18000
3599999;-0.18000
3602777;-0.17500
3605555;-0.19000
3608332;-0.22000
3611110;-0.25500
3613888;-0.26000
3616666;-0.25500
3619443;-0.26000
3622221;-0.24500
3624999;-0.26500
3627777;-0.28500
3630555;-0.27500
3633332;-0.27500
3636110;-0.26500
3638888;-0.28000
3641666;-0.28500
3644443;-0.30000
3647221;-0.30500
3649999;-0.30500
3652777;-0.30500
3655555;-0.31000
3658332;-0.33000
3661110;-0.34000
3663888;-0.34500
3666666;-0.34000
3669443;-0.35000
3672221;-0.36500
3674999;-0.37500
3677777;-0.36500
3680555;-0.35500
3683332;-0.35500
3686110;-0.35500
3688888;-0.37500
3691666;-0.39000
3694443;-0.38500
3697221;-0.38500
3699999;-0.37500
3702777;-0.37500
3705555;-0.38500
3708332;-0.40000
3711110;-0.39000
3713888;-0.38500
3716666;-0.38500
3719443;-0.37500
3722221;-0.38500
3724999;-0.38500
3727777;-0.40500
3730555;-0.39500
3733332;-0.39000
3736110;-0.37000
3738888;-0.36500
3741666;-0.37500
3744443;-0.37500
3747221;-0.36500
3749999;-0.37000
3752777;-0.40000
3755555;-0.41500
3758332;-0.42500
3761110;-0.42500
3763888;-0.41500
3766666;-0.41500
3769443;-0.39000
3772221;-0.29000
3774999;-0.14500
3777777;0.03500
3780554;0.21000
3783332;0.39500
3786110;0.59500
3788888;0.79500
3791666;0.90500
3794443;0.87500
3797221;0.65500
3799999;0.27500
3802777;-0.14000
3805554;-0.42000
3808332;-0.54500
3811110;-0.55000
3813888;-0.52000
3816666;-0.46000
3819443;-0.42000
3822221;-0.40500
3824999;-0.40500
3827777;-0.41000
3830554;-0.40000
3833332;-0.41000
3836110;-0.41000
3838888;-0.42000
3841666;-0.42500
3844443;-0.42500
3847221;-0.40500
3849999;-0.40500
3852777;-0.40500
3855554;-0.41000
3858332;-0.41000
3861110;-0.43000
3863888;-0.42500
3866666;-0.41000
3869443;-0.41500
3872221;-0.41500
3874999;-0.42500
3877777;-0.42500
3880554;-0.41500
3883332;-0.40000
3886110;-0.40000
3888888;-0.40500
3891666;-0.42000
3894443;-0.41000
3897221;-0.40500
3899999;-0.39500
3902777;-0.38000
3905554;-0.39500
3908332;-0.42000
3911110;-0.42500
3913888;-0.41000
3916666;-0.39500
3919443;-0.38000
3922221;-0.39000
3924999;-0.39000
3927777;-0.40000
3930554;-0.39500
3933332;-0.40000
3936110;-0.38000
3938888;-0.39000
3941666;-0.40500
3944443;-0.40500
3947221;-0.39500
3949999;-0.39500
3952777;-0.39500
3955554;-0.39500
3958332;-0.39500
3961110;-0.39000
3963888;-0.40000
3966666;-0.39000
3969443;-0.39500
3972221;-0.38500
3974999;-0.39500
3977777;-0.40500
3980554;-0.39000
3983332;-0.38500
3986110;-0.38500
3988888;-0.39000
3991666;-0.40000
3994443;-0.41000
3997221;-0.40000
3999999;-0.40500
4002777;-0.41000
4005554;-0.41500
4008332;-0.41500
4011110;-0.41000
4013888;-0.41000
4016666;-0.39500
4019443;-0.39500
4022221;-0.40000
4024999;-0.39500
4027777;-0.41000
4030554;-0.41000
4033332;-0.41500
4036110;-0.40500
4038888;-0.41500
4041666;-0.42500
4044443;-0.42000
4047221;-0.42000
4049999;-0.41000
4052777;-0.41000
4055554;-0.41500
4058332;-0.42500
4061110;-0.43000
4063888;-0.42500
4066666;-0.42000
4069443;-0.40500
4072221;-0.40000
4074999;-0.40500
4077777;-0.40000
4080554;-0.38500
4083332;-0.37000
4086110;-0.37000
4088888;-0.35500
4091666;-0.38000
4094443;-0.37500
4097221;-0.36500
4099999;-0.35500
4102777;-0.34000
4105554;-0.32500
4108332;-0.34500
4111110;-0.36000
4113888;-0.35500
4116666;-0.35000
4119443;-0.34500
4122221;-0.34000
4124999;-0.34000
4127777;-0.34500
4130554;-0.33500
4133332;-0.33500
4136110;-0.34000
4138888;-0.33000
4141666;-0.34500
4144443;-0.36500
4147221;-0.34000
4149999;-0.34000
4152777;-0.34500
4155554;-0.33500
4158332;-0.34000
4161110;-0.34000
4163888;-0.33500
4166666;-0.33000
4169443;-0.34000
4172221;-0.35500
4174999;-0.35500
4177777;-0.36500
4180554;-0.34500
4183332;-0.33500
4186110;-0.32500
4188888;-0.33500
4191665;-0.34000
4194443;-0.35000
4197221;-0.35000
4199999;-0.34000
4202777;-0.34500
4205554;-0.35000
4208332;-0.37000
4211110;-0.38000
4213888;-0.36000
4216665;-0.33000
4219443;-0.32500
4222221;-0.32000
4224999;-0.33000
4227777;-0.35500
4230554;-0.33500
4233332;-0.31500
4236110;-0.31000
4238888;-0.33000
4241665;-0.34500
4244443;-0.33500
4247221;-0.33000
4249999;-0.33000
4252777;-0.32500
4255554;-0.33500
4258332;-0.34500
4261110;-0.36500
4263888;-0.35000
4266665;-0.34000
4269443;-0.33500
4272221;-0.34000
4274999;-0.34500
4277777;-0.35500
4280554;-0.34500
4283332;-0.33000
4286110;-0.32000
4288888;-0.31500
4291665;-0.33000
4294443;-0.34000
4297221;-0.36000
4299999;-0.35500
4302777;-0.34000
4305554;-0.33500
4308332;-0.32000
4311110;-0.34000
4313888;-0.33500
4316665;-0.33500
4319443;-0.31500
4322221;-0.33000
4324999;-0.35000
4327777;-0.35500
4330554;-0.36000
4333332;-0.35000
4336110;-0.33000
4338888;-0.33000
4341665;-0.32000
4344443;-0.33000
4347221;-0.33500
4349999;-0.33500
4352777;-0.33000
4355554;-0.34500
4358332;-0.35500
4361110;-0.34000
4363888;-0.33500
4366665;-0.32500
4369443;-0.32000
4372221;-0.33000
4374999;-0.35000
4377777;-0.35000
4380554;-0.35000
4383332;-0.33500
4386110;-0.32500
4388888;-0.33000
4391665;-0.34000
4394443;-0.35500
4397221;-0.34500
4399999;-0.33500
4402777;-0.32500
4405554;-0.34000
4408332;-0.33000
4411110;-0.34500
4413888;-0.34000
4416665;-0.33500
4419443;-0.32500
4422221;-0.34000
4424999;-0.32500
4427777;-0.33000
4430554;-0.32500
4433332;-0.32500
4436110;-0.32000
4438888;-0.34000
4441665;-0.34000
4444443;-0.35500
4447221;-0.34000
4449999;-0.33000
4452777;-0.33000
4455554;-0.33000
4458332;-0.32500
4461110;-0.34500
4463888;-0.33500
4466665;-0.32000
4469443;-0.31500
4472221;-0.32500
4474999;-0.33500
4477777;-0.34500
4480554;-0.33500
4483332;-0.33000
4486110;-0.33000
4488888;-0.33000
4491665;-0.34500
4494443;-0.35000
4497221;-0.34000
4499999;-0.33500
4502777;-0.32500
4505554;-0.32500
4508332;-0.33000
4511110;-0.34000
4513888;-0.33000
4516665;-0.32500
4519443;-0.32000
4522221;-0.31500
4524999;-0.33500
4527777;-0.34500
4530554;-0.33500
4533332;-0.33500
4536110;-0.31000
4538888;-0.28500
4541665;-0.29000
4544443;-0.28500
4547221;-0.27000
4549999;-0.25000
4552777;-0.24500
4555554;-0.24000
4558332;-0.24500
4561110;-0.24500
4563888;-0.22500
4566665;-0.22000
4569443;-0.20500
4572221;-0.20500
4574999;-0.21000
4577776;-0.21500
4580554;-0.22000
4583332;-0.22000
4586110;-0.22000
4588888;-0.22000
4591665;-0.23000
4594443;-0.24000
4597221;-0.24500
4599999;-0.25000
4602776;-0.23500
4605554;-0.22500
4608332;-0.21000
4611110;-0.21000
4613888;-0.21000
4616665;-0.22000
4619443;-0.24000
4622221;-0.24000
4624999;-0.25500
4627776;-0.28000
4630554;-0.29500
4633332;-0.29500
4636110;-0.30500
4638888;-0.30000
4641665;-0.31500
4644443;-0.33500
4647221;-0.32000
4649999;-0.31500
4652776;-0.30500
4655554;-0.31000
4658332;-0.33000
4661110;-0.32000
4663888;-0.31000
4666665;-0.30500
4669443;-0.31000
4672221;-0.31500
4674999;-0.32500
4677776;-0.33500
4680554;-0.32500
4683332;-0.31000
4686110;-0.31500
4688888;-0.31500
4691665;-0.31500
4694443;-0.33500
4697221;-0.33000
4699999;-0.34000
4702776;-0.38000
4705554;-0.41500
4708332;-0.44000
4711110;-0.47000
4713888;-0.48000
4716665;-0.47000
4719443;-0.36500
4722221;-0.22500
4724999;-0.06000
4727776;0.14000
4730554;0.37000
4733332;0.64000
4736110;0.86500
4738888;1.02000
4741665;1.10500
4744443;1.10000
4747221;0.96500
4749999;0.65500
4752776;0.22000
4755554;-0.17500
4758332;-0.42000
4761110;-0.47500
4763888;-0.43000
4766665;-0.37500
4769443;-0.34000
4772221;-0.33000
4774999;-0.35000
4777776;-0.36500
4780554;-0.36000
4783332;-0.36000
4786110;-0.34500
4788888;-0.36000
4791665;-0.38000
4794443;-0.39000
4797221;-0.38000
4799999;-0.37500
4802776;-0.37500
4805554;-0.38000
4808332;-0.38500
4811110;-0.39000
4813888;-0.38000
4816665;-0.38000
4819443;-0.36500
4822221;-0.36500
4824999;-0.37000
4827776;-0.38500
4830554;-0.38000
4833332;-0.37500
4836110;-0.37500
4838888;-0.37000
4841665;-0.39000
4844443;-0.38500
4847221;-0.38000
4849999;-0.36500
4852776;-0.37000
4855554;-0.37500
4858332;-0.38500
4861110;-0.38000
4863888;-0.38000
4866665;-0.39000
4869443;-0.37000
4872221;-0.37000
4874999;-0.39500
4877776;-0.39500
4880554;-0.40000
4883332;-0.39000
4886110;-0.37500
4888888;-0.39000
4891665;-0.39000
4894443;-0.39000
4897221;-0.38500
4899999;-0.37500
4902776;-0.38000
4905554;-0.37500
4908332;-0.37500
4911110;-0.38500
4913888;-0.38500
4916665;-0.37000
4919443;-0.37500
4922221;-0.38000
4924999;-0.38500
4927776;-0.38500
4930554;-0.38500
4933332;-0.38000
4936110;-0.37500
4938888;-0.38500
4941665;-0.39000
4944443;-0.40500
4947221;-0.40500
4949999;-0.39500
4952776;-0.39500
4955554;-0.41000
4958332;-0.42500
4961110;-0.43500
4963887;-0.41500
4966665;-0.42000
4969443;-0.42000
4972221;-0.43000
4974999;-0.44000
4977776;-0.45000
4980554;-0.44000
4983332;-0.43000
4986110;-0.42500
4988887;-0.43000
4991665;-0.44500
4994443;-0.45000
4997221;-0.44500
4999999;-0.43000
5002776;-0.42000
5005554;-0.41000
5008332;-0.43500
5011110;-0.42000
5013887;-0.41000
5016665;-0.40000
5019443;-0.39000
5022221;-0.38000
5024999;-0.38000
5027776;-0.37000
5030554;-0.35000
5033332;-0.33000
5036110;-0.30500
5038887;-0.29000
5041665;-0.28500
5044443;-0.28500
5047221;-0.27000
5049999;-0.25000
5052776;-0.24000
5055554;-0.22500
5058332;-0.22500
5061110;-0.23500
5063887;-0.22500
5066665;-0.20500
5069443;-0.21000
5072221;-0.20500
5074999;-0.20500
5077776;-0.22000
5080554;-0.22000
5083332;-0.20000
5086110;-0.19500
5088887;-0.19500
5091665;-0.21000
5094443;-0.23000
5097221;-0.22000
5099999;-0.20500
5102776;-0.20500
5105554;-0.21500
5108332;-0.21500
5111110;-0.22500
5113887;-0.22000
5116665;-0.22000
5119443;-0.20500
5122221;-0.22000
5124999;-0.21000
5127776;-0.23000
5130554;-0.20500
5133332;-0.21000
5136110;-0.20500
5138887;-0.21000
5141665;-0.21500
5144443;-0.21500
5147221;-0.20000
5149999;-0.20000
5152776;-0.21000
5155554;-0.22500
5158332;-0.22500
5161110;-0.22500
5163887;-0.23500
5166665;-0.22500
5169443;-0.22500
5172221;-0.23000
5174999;-0.24000
5177776;-0.26000
5180554;-0.25500
5183332;-0.25000
5186110;-0.26000
5188887;-0.25000
5191665;-0.25500
5194443;-0.27500
5197221;-0.27000
5199999;-0.26500
5202776;-0.25500
5205554;-0.25000
5208332;-0.26500
5211110;-0.26500
5213887;-0.26500
5216665;-0.26000
5219443;-0.25500
5222221;-0.26000
5224999;-0.26500
5227776;-0.26000
5230554;-0.26500
5233332;-0.25500
5236110;-0.25500
5238887;-0.26500
5241665;-0.27000
5244443;-0.28000
5247221;-0.27000
5249999;-0.26000
5252776;-0.26000
5255554;-0.26500
5258332;-0.26500
5261110;-0.28500
5263887;-0.26500
5266665;-0.27000
5269443;-0.26500
5272221;-0.26500
5274999;-0.27000
5277776;-0.28000
5280554;-0.27500
5283332;-0.25500
5286110;-0.25500
5288887;-0.26500
5291665;-0.27500
5294443;-0.27000
5297221;-0.26500
5299999;-0.26500
5302776;-0.25500
5305554;-0.25500
5308332;-0.27000
5311110;-0.28000
5313887;-0.27500
5316665;-0.26500
5319443;-0.27500
5322221;-0.26500
5324999;-0.26500
5327776;-0.27500
5330554;-0.27000
5333332;-0.26500
5336110;-0.26500
5338887;-0.26000
5341665;-0.25500
5344443;-0.26500
5347221;-0.25000
5349999;-0.23000
5352776;-0.21000
5355554;-0.19000
5358332;-0.19000
5361110;-0.19500
5363887;-0.19500
5366665;-0.18000
5369443;-0.17000
5372221;-0.17000
5374998;-0.15500
5377776;-0.16000
5380554;-0.15500
5383332;-0.14500
5386110;-0.14500
5388887;-0.16000
5391665;-0.16000
5394443;-0.17500
5397221;-0.17500
5399998;-0.17500
5402776;-0.16000
5405554;-0.16500
5408332;-0.18000
5411110;-0.19000
5413887;-0.17500
5416665;-0.14500
5419443;-0.12500
5422221;-0.13000
5424998;-0.18000
5427776;-0.21000
5430554;-0.22500
5433332;-0.22000
5436110;-0.24000
5438887;-0.25500
5441665;-0.27000
5444443;-0.28500
5447221;-0.28500
5449998;-0.28000
5452776;-0.28000
5455554;-0.27500
5458332;-0.29000
5461110;-0.30500
5463887;-0.28500
5466665;-0.28500
5469443;-0.29000
5472221;-0.29000
5474998;-0.29000
5477776;-0.30000
5480554;-0.29500
5483332;-0.28000
5486110;-0.28500
5488887;-0.28500
5491665;-0.29500
5494443;-0.29500
5497221;-0.29500
5499998;-0.30500
5502776;-0.31000
5505554;-0.33500
5508332;-0.38000
5511110;-0.43000
5513887;-0.45000
5516665;-0.48000
5519443;-0.49500
5522221;-0.50000
5524998;-0.44000
5527776;-0.30000
5530554;-0.11000
5533332;0.08500
5536110;0.28000
5538887;0.51500
5541665;0.78000
5544443;1.00000
5547221;1.14500
5549998;1.23000
5552776;1.22500
5555554;1.06500
5558332;0.71000
5561110;0.23000
5563887;-0.17500
5566665;-0.39000
5569443;-0.42000
5572221;-0.37500
5574998;-0.33000
5577776;-0.31500
5580554;-0.31000
5583332;-0.31500
5586110;-0.31000
5588887;-0.32000
5591665;-0.34000
5594443;-0.35500
5597221;-0.36500
5599998;-0.34500
5602776;-0.34000
5605554;-0.35000
5608332;-0.35500
5611110;-0.36000
5613887;-0.36000
5616665;-0.35000
5619443;-0.34500
5622221;-0.34500
5624998;-0.36000
5627776;-0.36000
5630554;-0.35500
5633332;-0.35500
5636110;-0.35500
5638887;-0.36500
5641665;-0.36500
5644443;-0.36500
5647221;-0.36500
5649998;-0.36000
5652776;-0.35000
5655554;-0.35500
5658332;-0.37000
5661110;-0.36000
5663887;-0.35500
5666665;-0.35500
5669443;-0.35000
5672221;-0.35500
5674998;-0.35500
5677776;-0.36500
5680554;-0.37000
5683332;-0.35500
5686110;-0.35000
5688887;-0.35000
5691665;-0.36000
5694443;-0.37500
5697221;-0.36000
5699998;-0.34500
5702776;-0.35000
5705554;-0.35000
5708332;-0.36500
5711110;-0.37000
5713887;-0.36500
5716665;-0.35500
5719443;-0.35500
5722221;-0.35000
5724998;-0.35000
5727776;-0.35000
5730554;-0.36500
5733332;-0.35000
5736110;-0.35500
5738887;-0.35000
5741665;-0.35500
5744443;-0.37000
5747221;-0.37000
5749998;-0.35500
5752776;-0.35500
5755554;-0.36500
5758332;-0.36500
5761109;-0.38000
5763887;-0.38000
5766665;-0.37000
5769443;-0.37000
5772221;-0.37500
5774998;-0.37500
5777776;-0.39500
5780554;-0.38000
5783332;-0.37000
5786109;-0.37000
5788887;-0.36500
5791665;-0.38000
5794443;-0.39000
5797221;-0.38000
5799998;-0.36500
5802776;-0.36500
5805554;-0.36500
5808332;-0.38000
5811109;-0.38500
5813887;-0.37000
5816665;-0.37000
5819443;-0.36500
5822221;-0.36500
5824998;-0.37500
5827776;-0.38500
5830554;-0.35500
5833332;-0.34500
5836109;-0.34000
5838887;-0.33500
5841665;-0.33000
5844443;-0.32000
5847221;-0.30500
5849998;-0.28500
5852776;-0.28500
5855554;-0.27000
5858332;-0.27000
5861109;-0.28000
5863887;-0.26500
5866665;-0.25000
5869443;-0.24500
5872221;-0.24000
5874998;-0.24500
5877776;-0.24500
5880554;-0.25000
5883332;-0.24500
5886109;-0.23000
5888887;-0.22500
5891665;-0.23500
5894443;-0.23500
5897221;-0.24000
5899998;-0.23500
5902776;-0.23500
5905554;-0.24500
5908332;-0.25000
5911109;-0.26000
5913887;-0.26500
5916665;-0.25500
5919443;-0.24500
5922221;-0.26500
5924998;-0.26000
5927776;-0.27000
5930554;-0.26000
5933332;-0.26500
5936109;-0.25000
5938887;-0.25000
5941665;-0.25500
5944443;-0.26500
5947221;-0.25500
5949998;-0.25500
5952776;-0.24500
5955554;-0.24500
5958332;-0.26000
5961109;-0.26500
5963887;-0.27000
5966665;-0.26000
5969443;-0.26500
5972221;-0.26500
5974998;-0.28000
5977776;-0.29500
5980554;-0.28000
5983332;-0.28000
5986109;-0.29000
5988887;-0.28500
5991665;-0.29500
5994443;-0.31000
5997221;-0.30000
5999998;-0.30500
6002776;-0.29000
6005554;-0.29500
6008332;-0.30500
6011109;-0.31000
6013887;-0.29500
6016665;-0.30000
6019443;-0.30000
6022221;-0.29500
6024998;-0.30500
6027776;-0.31500
6030554;-0.31000
6033332;-0.29500
6036109;-0.30000
6038887;-0.30000
6041665;-0.30000
6044443;-0.31500
6047221;-0.30000
6049998;-0.30000
6052776;-0.29000
6055554;-0.29500
6058332;-0.30500
6061109;-0.31000
6063887;-0.30500
6066665;-0.29500
6069443;-0.29500
6072221;-0.29500
6074998;-0.31500
6077776;-0.32000
6080554;-0.30000
6083332;-0.30000
6086109;-0.29500
6088887;-0.30500
6091665;-0.31500
6094443;-0.31000
6097221;-0.30000
6099998;-0.29500
6102776;-0.29000
6105554;-0.30000
6108332;-0.29500
6111109;-0.29500
6113887;-0.29000
6116665;-0.28500
6119443;-0.28500
6122221;-0.28000
6124998;-0.28500
6127776;-0.29000
6130554;-0.28500
6133332;-0.27000
6136109;-0.26500
6138887;-0.27000
6141665;-0.30000
6144443;-0.30500
6147221;-0.30000
6149998;-0.28500
6152776;-0.27500
6155554;-0.28500
6158332;-0.27500
6161109;-0.28000
6163887;-0.26000
6166665;-0.23500
6169443;-0.21500
6172220;-0.22000
6174998;-0.22000
6177776;-0.22500
6180554;-0.21500
6183332;-0.20000
6186109;-0.19000
6188887;-0.19500
6191665;-0.19000
6194443;-0.18500
6197220;-0.17500
6199998;-0.16000
6202776;-0.15500
6205554;-0.17000
6208332;-0.17000
6211109;-0.19000
6213887;-0.18500
6216665;-0.18500
6219443;-0.19500
6222220;-0.19500
6224998;-0.19500
6227776;-0.21500
6230554;-0.20000
6233332;-0.20000
6236109;-0.20500
6238887;-0.20500
6241665;-0.18500
6244443;-0.19000
6247220;-0.19000
6249998;-0.19500
6252776;-0.21000
6255554;-0.23000
6258332;-0.25000
6261109;-0.27000
6263887;-0.27500
6266665;-0.28500
6269443;-0.28500
6272220;-0.29500
6274998;-0.30500
6277776;-0.31000
6280554;-0.30000
6283332;-0.29500
6286109;-0.29500
6288887;-0.29500
6291665;-0.31000
6294443;-0.32000
6297220;-0.32000
6299998;-0.30500
6302776;-0.31000
6305554;-0.31500
6308332;-0.31500
6311109;-0.33000
6313887;-0.32500
6316665;-0.32000
6319443;-0.31000
6322220;-0.32000
6324998;-0.32000
6327776;-0.33500
6330554;-0.32000
6333332;-0.31000
6336109;-0.31500
6338887;-0.31500
6341665;-0.33000
6344443;-0.35000
6347220;-0.37500
6349998;-0.39500
6352776;-0.43000
6355554;-0.45000
6358332;-0.47000
6361109;-0.50000
6363887;-0.51500
6366665;-0.45500
6369443;-0.34500
6372220;-0.19500
6374998;-0.02000
6377776;0.16000
6380554;0.41000
6383332;0.66500
6386109;0.87000
6388887;0.97500
6391665;0.97000
6394443;0.82000
6397220;0.51500
6399998;0.16000
6402776;-0.16000
6405554;-0.38000
6408332;-0.42500
6411109;-0.41500
6413887;-0.37000
6416665;-0.34500
6419443;-0.33500
6422220;-0.34500
6424998;-0.34500
6427776;-0.35000
6430554;-0.35500
6433332;-0.35500
6436109;-0.35000
6438887;-0.36500
6441665;-0.37000
6444443;-0.38500
6447220;-0.37500
6449998;-0.36000
6452776;-0.35500
6455554;-0.35000
6458332;-0.36500
6461109;-0.36500
6463887;-0.37000
6466665;-0.36500
6469443;-0.37000
6472220;-0.37000
6474998;-0.38000
6477776;-0.38500
6480554;-0.37500
6483332;-0.37000
6486109;-0.35000
6488887;-0.36500
6491665;-0.36500
6494443;-0.37500
6497220;-0.37000
6499998;-0.36000
6502776;-0.35000
6505554;-0.35500
6508332;-0.36000
6511109;-0.37500
6513887;-0.37000
6516665;-0.36000
6519443;-0.35000
6522220;-0.36000
6524998;-0.36500
6527776;-0.36500
6530554;-0.37500
6533332;-0.36000
6536109;-0.36500
6538887;-0.36000
6541665;-0.36000
6544443;-0.37500
6547220;-0.37500
6549998;-0.36000
6552776;-0.36500
6555554;-0.35000
6558331;-0.36500
6561109;-0.37000
6563887;-0.36500
6566665;-0.35500
6569443;-0.36000
6572220;-0.35000
6574998;-0.36500
6577776;-0.37000
6580554;-0.37000
6583331;-0.36000
6586109;-0.35000
6588887;-0.36500
6591665;-0.36000
6594443;-0.36500
6597220;-0.36500
6599998;-0.36000
6602776;-0.34500
6605554;-0.35000
6608331;-0.36000
6611109;-0.37000
6613887;-0.37000
6616665;-0.36000
6619443;-0.34000
6622220;-0.36000
6624998;-0.36000
6627776;-0.38000
6630554;-0.36500
6633331;-0.36000
6636109;-0.35500
6638887;-0.36000
6641665;-0.38500
6644443;-0.40000
6647220;-0.38500
6649998;-0.37500
6652776;-0.37500
6655554;-0.37500
6658331;-0.37000
6661109;-0.39000
6663887;-0.38000
6666665;-0.38000
6669443;-0.37000
6672220;-0.37000
6674998;-0.37500
6677776;-0.37500
6680554;-0.36000
6683331;-0.36500
6686109;-0.35000
6688887;-0.34500
6691665;-0.35500
6694443;-0.36000
6697220;-0.34500
6699998;-0.33500
6702776;-0.33000
6705554;-0.32500
6708331;-0.33000
6711109;-0.34000
6713887;-0.31500
6716665;-0.31000
6719443;-0.29000
6722220;-0.28500
6724998;-0.29000
6727776;-0.28500
6730554;-0.28000
6733331;-0.27000
6736109;-0.25500
6738887;-0.26000
6741665;-0.27000
6744443;-0.26000
6747220;-0.25000
6749998;-0.24500
6752776;-0.24500
6755554;-0.24500
6758331;-0.25500
6761109;-0.26500
6763887;-0.26000
6766665;-0.26000
6769443;-0.25000
6772220;-0.25000
6774998;-0.25000
6777776;-0.26000
6780554;-0.25500
6783331;-0.25000
6786109;-0.24500
6788887;-0.25000
6791665;-0.25500
6794443;-0.26000
6797220;-0.25000
6799998;-0.25000
6802776;-0.24000
6805554;-0.25500
6808331;-0.27000
6811109;-0.28000
6813887;-0.27000
6816665;-0.27000
6819443;-0.27000
6822220;-0.27500
6824998;-0.28500
6827776;-0.31000
6830554;-0.29500
6833331;-0.27000
6836109;-0.27000
6838887;-0.27500
6841665;-0.28000
6844443;-0.28500
6847220;-0.28500
6849998;-0.29000
6852776;-0.26500
6855554;-0.27500
6858331;-0.28500
6861109;-0.30500
6863887;-0.30000
6866665;-0.30000
6869443;-0.30500
6872220;-0.30500
6874998;-0.30500
6877776;-0.33500
6880554;-0.31000
6883331;-0.31000
6886109;-0.30000
6888887;-0.29500
6891665;-0.32000
6894443;-0.32000
6897220;-0.31500
6899998;-0.30500
6902776;-0.29000
6905554;-0.30500
6908331;-0.31000
6911109;-0.32500
6913887;-0.32500
6916665;-0.31000
6919443;-0.30000
6922220;-0.29500
6924998;-0.30500
6927776;-0.32000
6930554;-0.30500
6933331;-0.31500
6936109;-0.31000
6938887;-0.30500
6941665;-0.33000
6944442;-0.33500
6947220;-0.33000
6949998;-0.32000
6952776;-0.31500
6955554;-0.32500
6958331;-0.32000
6961109;-0.35000
6963887;-0.33500
6966665;-0.31500
6969442;-0.30500
6972220;-0.31000
6974998;-0.31500
6977776;-0.33500
6980554;-0.32500
6983331;-0.31500
6986109;-0.31500
6988887;-0.31500
6991665;-0.32500
6994442;-0.33000
6997220;-0.32000
6999998;-0.31000
7002776;-0.30000
7005554;-0.30500
7008331;-0.31000
7011109;-0.31500
7013887;-0.30000
7016665;-0.26500
7019442;-0.26000
7022220;-0.26000
7024998;-0.27000
7027776;-0.28000
7030554;-0.26000
7033331;-0.25000
7036109;-0.23000
7038887;-0.22500
7041665;-0.22500
7044442;-0.21000
7047220;-0.20500
7049998;-0.18500
7052776;-0.18000
7055554;-0.19000
7058331;-0.19500
7061109;-0.22000
7063887;-0.22500
7066665;-0.21500
7069442;-0.21500
7072220;-0.21500
7074998;-0.23000
7077776;-0.25000
7080554;-0.25000
7083331;-0.24000
7086109;-0.22500
7088887;-0.20500
7091665;-0.22000
7094442;-0.23000
7097220;-0.25500
7099998;-0.26500
7102776;-0.27500
7105554;-0.29500
7108331;-0.33000
7111109;-0.36000
7113887;-0.34500
7116665;-0.34000
7119442;-0.34000
7122220;-0.33500
7124998;-0.33500
7127776;-0.33500
7130554;-0.35000
7133331;-0.33500
7136109;-0.34000
7138887;-0.34500
7141665;-0.35000
7144442;-0.36500
7147220;-0.36000
7149998;-0.35000
7152776;-0.35000
7155554;-0.35500
7158331;-0.37000
7161109;-0.37500
7163887;-0.36500
7166665;-0.35000
7169442;-0.35500
7172220;-0.36000
7174998;-0.37000
7177776;-0.37000
7180554;-0.36500
7183331;-0.35500
7186109;-0.35500
7188887;-0.36500
7191665;-0.40500
7194442;-0.45000
7197220;-0.47000
7199998;-0.48500
7202776;-0.51500
7205554;-0.56000
7208331;-0.56000
7211109;-0.48500
7213887;-0.34000
7216665;-0.17500
7219442;0.01000
7222220;0.27000
7224998;0.53500
7227776;0.75000
7230554;0.89000
7233331;0.92500
7236109;0.77000
7238887;0.44000
7241665;0.04500
7244442;-0.26000
7247220;-0.43000
7249998;-0.48000
7252776;-0.47000
7255554;-0.44500
7258331;-0.41500
7261109;-0.42000
7263887;-0.42000
7266665;-0.41000
7269442;-0.39000
7272220;-0.39000
7274998;-0.41500
7277776;-0.42000
7280554;-0.43000
7283331;-0.42500
7286109;-0.41500
7288887;-0.41500
7291665;-0.42000
7294442;-0.42500
7297220;-0.42500
7299998;-0.42500
7302776;-0.42500
7305554;-0.41000
7308331;-0.41000
7311109;-0.42000
7313887;-0.41500
7316665;-0.41000
7319442;-0.39500
7322220;-0.39500
7324998;-0.41000
7327776;-0.42000
7330554;-0.43000
7333331;-0.42500
7336109;-0.42000
7338887;-0.42500
7341665;-0.43500
7344442;-0.43000
7347220;-0.43500
7349998;-0.43500
7352776;-0.42500
7355553;-0.43500
7358331;-0.44500
7361109;-0.46000
7363887;-0.45500
7366665;-0.45000
7369442;-0.44500
7372220;-0.43500
7374998;-0.43000
7377776;-0.44000
7380553;-0.44000
7383331;-0.44000
7386109;-0.43500
7388887;-0.43500
7391665;-0.44500
7394442;-0.43000
7397220;-0.43000
7399998;-0.42500
7402776;-0.44000
7405553;-0.43000
7408331;-0.45500
7411109;-0.46500
7413887;-0.46000
7416665;-0.44500
7419442;-0.44500
7422220;-0.44000
7424998;-0.45500
7427776;-0.46500
7430553;-0.45500
7433331;-0.45000
7436109;-0.43000
7438887;-0.43500
7441665;-0.44000
7444442;-0.44000
7447220;-0.43500
7449998;-0.43000
7452776;-0.44500
7455553;-0.46000
7458331;-0.45500
7461109;-0.47500
7463887;-0.48000
7466665;-0.47500
7469442;-0.46500
7472220;-0.47000
7474998;-0.47000
7477776;-0.48000
7480553;-0.48000
7483331;-0.47500
7486109;-0.48000
7488887;-0.49000
7491665;-0.50000
7494442;-0.52000
7497220;-0.51500
7499998;-0.49000
7502776;-0.49000
7505553;-0.48500
7508331;-0.48500
7511109;-0.49500
7513887;-0.49500
7516665;-0.47000
7519442;-0.46000
7522220;-0.45500
7524998;-0.48000
7527776;-0.48000
7530553;-0.47000
7533331;-0.45000
7536109;-0.42000
7538887;-0.40000
7541665;-0.40000
7544442;-0.39500
7547220;-0.38500
7549998;-0.37000
7552776;-0.35500
7555553;-0.34500
7558331;-0.34000
7561109;-0.32500
7563887;-0.32000
7566665;-0.30500
7569442;-0.31000
7572220;-0.32000
7574998;-0.32500
7577776;-0.33500
7580553;-0.32000
7583331;-0.30500
7586109;-0.31000
7588887;-0.30500
7591665;-0.31000
7594442;-0.32000
7597220;-0.32500
7599998;-0.33000
7602776;-0.34000
7605553;-0.35500
7608331;-0.35500
7611109;-0.34000
7613887;-0.32000
7616665;-0.33000
7619442;-0.32000
7622220;-0.33000
7624998;-0.33000
7627776;-0.33500
7630553;-0.33500
7633331;-0.33500
7636109;-0.33000
7638887;-0.33500
7641665;-0.33500
7644442;-0.34000
7647220;-0.33500
7649998;-0.32000
7652776;-0.32000
7655553;-0.31000
7658331;-0.33500
7661109;-0.36000
7663887;-0.34000
7666665;-0.33500
7669442;-0.35500
7672220;-0.36000
7674998;-0.36500
7677776;-0.36500
7680553;-0.35000
7683331;-0.34500
7686109;-0.36000
7688887;-0.35000
7691665;-0.36500
7694442;-0.37500
7697220;-0.37500
7699998;-0.37000
7702776;-0.36000
7705553;-0.36000
7708331;-0.36500
7711109;-0.37500
7713887;-0.36500
7716665;-0.35000
7719442;-0.34500
7722220;-0.35500
7724998;-0.36000
7727776;-0.37500
7730553;-0.36000
7733331;-0.36500
7736109;-0.35000
7738887;-0.36500
7741664;-0.38000
7744442;-0.38500
7747220;-0.38500
7749998;-0.37500
7752776;-0.35500
7755553;-0.35000
7758331;-0.36500
7761109;-0.36500
7763887;-0.37500
7766664;-0.35000
7769442;-0.34500
7772220;-0.36000
7774998;-0.37500
7777776;-0.39000
7780553;-0.39000
7783331;-0.36000
7786109;-0.35500
7788887;-0.36000
7791664;-0.36500
7794442;-0.37500
7797220;-0.36500
7799998;-0.35000
7802776;-0.34500
7805553;-0.34000
7808331;-0.35500
7811109;-0.36500
7813887;-0.36000
7816664;-0.33500
7819442;-0.33500
7822220;-0.34500
7824998;-0.35000
7827776;-0.35500
7830553;-0.34000
7833331;-0.32500
7836109;-0.31500
7838887;-0.31000
7841664;-0.32000
7844442;-0.31500
7847220;-0.30000
7849998;-0.28500
7852776;-0.28000
7855553;-0.28000
7858331;-0.27500
7861109;-0.26500
7863887;-0.24500
7866664;-0.23500
7869442;-0.23000
7872220;-0.24000
7874998;-0.25500
7877776;-0.27000
7880553;-0.25500
7883331;-0.26000
7886109;-0.24500
7888887;-0.25000
7891664;-0.25000
7894442;-0.25500
7897220;-0.26000
7899998;-0.27000
7902776;-0.26500
7905553;-0.23500
7908331;-0.23000
7911109;-0.24000
7913887;-0.22000
7916664;-0.23000
7919442;-0.25000
7922220;-0.26500
7924998;-0.27000
7927776;-0.29500
7930553;-0.29500
7933331;-0.31000
7936109;-0.32000
7938887;-0.32500
7941664;-0.34000
7944442;-0.35500
7947220;-0.35500
7949998;-0.35000
7952776;-0.35000
7955553;-0.34500
7958331;-0.35500
7961109;-0.36000
7963887;-0.35500
7966664;-0.33000
7969442;-0.33500
7972220;-0.34500
7974998;-0.36500
7977776;-0.37500
7980553;-0.37000
7983331;-0.36500
7986109;-0.35500
7988887;-0.34500
7991664;-0.36000
7994442;-0.36500
7997220;-0.36000
7999998;-0.35000
8002776;-0.35500
8005553;-0.36000
8008331;-0.38000
8011109;-0.40500
8013887;-0.44500
8016664;-0.46000
8019442;-0.47000
8022220;-0.49500
8024998;-0.54500
8027776;-0.55500
8030553;-0.49000
8033331;-0.33500
8036109;-0.16500
8038887;0.01000
8041664;0.23000
8044442;0.49500
8047220;0.77500
8049998;0.98000
8052776;1.06000
8055553;1.01000
8058331;0.77500
8061109;0.42000
8063887;0.04000
8066664;-0.23500
8069442;-0.40500
8072220;-0.50000
8074998;-0.52000
8077776;-0.50000
8080553;-0.44500
8083331;-0.41000
8086109;-0.37000
8088887;-0.39500
8091664;-0.40500
8094442;-0.41000
8097220;-0.39500
8099998;-0.39500
8102776;-0.38500
8105553;-0.40000
8108331;-0.40500
8111109;-0.42000
8113887;-0.40000
8116664;-0.40000
8119442;-0.39500
8122220;-0.39500
8124998;-0.39500
8127776;-0.41000
8130553;-0.41000
8133331;-0.40000
8136109;-0.39000
8138887;-0.40000
8141664;-0.41000
8144442;-0.41000
8147220;-0.40500
8149998;-0.40500
8152775;-0.40000
8155553;-0.40500
8158331;-0.41000
8161109;-0.41500
8163887;-0.41000
8166664;-0.40000
8169442;-0.39000
8172220;-0.39500
8174998;-0.41000
8177775;-0.42500
8180553;-0.42000
8183331;-0.41000
8186109;-0.40000
8188887;-0.40000
8191664;-0.40500
8194442;-0.40500
8197220;-0.40500
8199998;-0.39500
8202775;-0.39500
8205553;-0.38500
8208331;-0.42000
8211109;-0.41500
8213887;-0.42500
8216664;-0.41500
8219442;-0.40500
8222220;-0.40500
8224998;-0.42500
8227775;-0.43500
8230553;-0.41500
8233331;-0.40000
8236109;-0.41000
8238887;-0.41000
8241664;-0.41500
8244442;-0.42000
8247220;-0.41000
8249998;-0.40500
8252775;-0.39500
8255553;-0.40000
8258331;-0.41500
8261109;-0.41500
8263887;-0.41000
8266664;-0.41000
8269442;-0.40500
8272220;-0.41000
8274998;-0.41500
8277775;-0.42500
8280553;-0.42500
8283331;-0.41500
8286109;-0.41500
8288887;-0.43500
8291664;-0.44000
8294442;-0.45500
8297220;-0.47000
8299998;-0.44500
8302775;-0.43500
8305553;-0.44500
8308331;-0.45000
8311109;-0.45500
8313887;-0.46500
8316664;-0.45000
8319442;-0.43500
8322220;-0.44000
8324998;-0.43500
8327775;-0.44500
8330553;-0.43000
8333331;-0.41000
8336109;-0.39500
8338887;-0.38000
8341664;-0.37500
8344442;-0.38000
8347220;-0.36000
8349998;-0.34500
8352775;-0.32000
8355553;-0.31500
8358331;-0.32500
8361109;-0.32000
8363887;-0.31000
8366664;-0.29000
8369442;-0.28000
8372220;-0.27500
8374998;-0.28500
8377775;-0.28000
8380553;-0.27000
8383331;-0.25500
8386109;-0.26000
8388887;-0.25500
8391664;-0.25500
8394442;-0.27000
8397220;-0.26000
8399998;-0.25000
8402775;-0.24000
8405553;-0.26500
8408331;-0.27000
8411109;-0.27500
8413887;-0.27000
8416664;-0.25500
8419442;-0.25500
8422220;-0.25500
8424998;-0.26500
8427775;-0.27000
8430553;-0.26000
8433331;-0.25000
8436109;-0.24500
8438887;-0.25500
8441664;-0.26000
8444442;-0.26000
8447220;-0.27500
8449998;-0.25500
8452775;-0.24500
8455553;-0.25000
8458331;-0.27000
8461109;-0.27000
8463887;-0.26000
8466664;-0.25500
8469442;-0.24500
8472220;-0.25500
8474998;-0.26000
8477775;-0.28000
8480553;-0.28000
8483331;-0.28000
8486109;-0.27500
8488887;-0.27500
8491664;-0.28000
8494442;-0.28000
8497220;-0.27000
8499998;-0.27500
8502775;-0.27500
8505553;-0.27000
8508331;-0.28500
8511109;-0.29000
8513887;-0.28000
8516664;-0.28500
8519442;-0.27500
8522220;-0.26500
8524998;-0.27500
8527775;-0.28500
8530553;-0.29000
8533331;-0.29500
8536109;-0.28500
8538886;-0.28000
8541664;-0.30000
8544442;-0.30000
8547220;-0.29500
8549998;-0.28500
8552775;-0.29500
8555553;-0.29000
8558331;-0.30000
8561109;-0.30500
8563886;-0.29500
8566664;-0.29500
8569442;-0.27500
8572220;-0.28500
8574998;-0.29500
8577775;-0.30500
8580553;-0.30500
8583331;-0.30000
8586109;-0.29500
8588886;-0.29500
8591664;-0.30500
8594442;-0.30500
8597220;-0.30500
8599998;-0.29000
8602775;-0.29000
8605553;-0.28000
8608331;-0.29500
8611109;-0.28500
8613886;-0.29500
8616664;-0.28000
8619442;-0.27500
8622220;-0.27000
8624998;-0.28500
8627775;-0.29000
8630553;-0.29000
8633331;-0.28500
8636109;-0.28000
8638886;-0.27500
8641664;-0.27000
8644442;-0.26500
8647220;-0.26000
8649998;-0.23500
8652775;-0.22000
8655553;-0.21000
8658331;-0.22000
8661109;-0.22500
8663886;-0.21000
8666664;-0.20000
8669442;-0.19000
8672220;-0.19500
8674998;-0.19000
8677775;-0.18500
8680553;-0.18000
8683331;-0.16000
8686109;-0.15000
8688886;-0.16000
8691664;-0.16500
8694442;-0.18000
8697220;-0.18000
8699998;-0.17500
8702775;-0.18500
8705553;-0.18000
8708331;-0.19500
8711109;-0.20000
8713886;-0.20500
8716664;-0.21000
8719442;-0.19000
8722220;-0.15000
8724998;-0.15000
8727775;-0.17000
8730553;-0.19000
8733331;-0.22500
8736109;-0.22000
8738886;-0.23000
8741664;-0.25000
8744442;-0.27000
8747220;-0.28000
8749998;-0.28000
8752775;-0.28500
8755553;-0.29000
8758331;-0.31000
8761109;-0.30500
8763886;-0.30000
8766664;-0.28500
8769442;-0.28000
8772220;-0.29000
8774998;-0.29500
8777775;-0.31000
8780553;-0.29500
8783331;-0.30000
8786109;-0.29000
8788886;-0.28500
8791664;-0.31000
8794442;-0.32000
8797220;-0.31500
8799998;-0.30500
8802775;-0.30000
8805553;-0.31000
8808331;-0.31000
8811109;-0.33000
8813886;-0.31500
8816664;-0.31500
8819442;-0.31500
8822220;-0.32000
8824998;-0.37500
8827775;-0.43000
8830553;-0.44500
8833331;-0.46000
8836109;-0.48500
8838886;-0.50000
8841664;-0.46000
8844442;-0.32000
8847220;-0.12500
8849998;0.10000
8852775;0.33000
8855553;0.63000
8858331;0.91000
8861109;1.10500
8863886;1.18500
8866664;1.09500
8869442;0.77500
8872220;0.27500
8874998;-0.18000
8877775;-0.42500
8880553;-0.44000
8883331;-0.37500
8886109;-0.31500
8888886;-0.30000
8891664;-0.32000
8894442;-0.34500
8897220;-0.33000
8899998;-0.32000
8902775;-0.32000
8905553;-0.33500
8908331;-0.35500
8911109;-0.35500
8913886;-0.35500
8916664;-0.35500
8919442;-0.36000
8922220;-0.36000
8924998;-0.35500
8927775;-0.36500
8930553;-0.36500
8933331;-0.36500
8936109;-0.35500
8938886;-0.36000
8941664;-0.36000
8944442;-0.38000
8947220;-0.36500
8949997;-0.36500
8952775;-0.36500
8955553;-0.35500
8958331;-0.36000
8961109;-0.37500
8963886;-0.37000
8966664;-0.36000
8969442;-0.35000
8972220;-0.36000
8974997;-0.35500
8977775;-0.37000
8980553;-0.36000
8983331;-0.36000
8986109;-0.35000
8988886;-0.35500
8991664;-0.36500
8994442;-0.38500
8997220;-0.36500
8999997;-0.36000
9002775;-0.36000
9005553;-0.36500
9008331;-0.37500
9011109;-0.38500
9013886;-0.38500
9016664;-0.36000
9019442;-0.36000
9022220;-0.35000
9024997;-0.36500
9027775;-0.37000
9030553;-0.36500
9033331;-0.35000
9036109;-0.34500
9038886;-0.35000
9041664;-0.36000
9044442;-0.36000
9047220;-0.36500
9049997;-0.35500
9052775;-0.35000
9055553;-0.34000
9058331;-0.35000
9061109;-0.36000
9063886;-0.35500
9066664;-0.35500
9069442;-0.35000
9072220;-0.36000
9074997;-0.36500
9077775;-0.38000
9080553;-0.37500
9083331;-0.37500
9086109;-0.38000
9088886;-0.36500
9091664;-0.36500
9094442;-0.38000
9097220;-0.37000
9099997;-0.36500
9102775;-0.35500
9105553;-0.35500
9108331;-0.37000
9111109;-0.37000
9113886;-0.37000
9116664;-0.38000
9119442;-0.36500
9122220;-0.36000
9124997;-0.36500
9127775;-0.37500
9130553;-0.36500
9133331;-0.35500
9136109;-0.34500
9138886;-0.35500
9141664;-0.35000
9144442;-0.34500
9147220;-0.32500
9149997;-0.30000
9152775;-0.29000
9155553;-0.28500
9158331;-0.27500
9161109;-0.27500
9163886;-0.27000
9166664;-0.25500
9169442;-0.24000
9172220;-0.24000
9174997;-0.24000
9177775;-0.24500
9180553;-0.24500
9183331;-0.22000
9186109;-0.23000
9188886;-0.23500
9191664;-0.23000
9194442;-0.26000
9197220;-0.23500
9199997;-0.22000
9202775;-0.22500
9205553;-0.22500
9208331;-0.23000
9211109;-0.24000
9213886;-0.24000
9216664;-0.23000
9219442;-0.22000
9222220;-0.22500
9224997;-0.23500
9227775;-0.24500
9230553;-0.25000
9233331;-0.24000
9236109;-0.23500
9238886;-0.24000
9241664;-0.25500
9244442;-0.26000
9247220;-0.25500
9249997;-0.24500
9252775;-0.23500
9255553;-0.25000
9258331;-0.24000
9261109;-0.26500
9263886;-0.25000
9266664;-0.24500
9269442;-0.25000
9272220;-0.23000
9274997;-0.25500
9277775;-0.26500
9280553;-0.25500
9283331;-0.25000
9286109;-0.24000
9288886;-0.23500
9291664;-0.25000
9294442;-0.26500
9297220;-0.26500
9299997;-0.26000
9302775;-0.25000
9305553;-0.25500
9308331;-0.26000
9311109;-0.27500
9313886;-0.27000
9316664;-0.27000
9319442;-0.28000
9322220;-0.27500
9324997;-0.27500
9327775;-0.30000
9330553;-0.28500
9333331;-0.28500
9336108;-0.27500
9338886;-0.28000
9341664;-0.28500
9344442;-0.29500
9347220;-0.29000
9349997;-0.27500
9352775;-0.26500
9355553;-0.27500
9358331;-0.28000
9361108;-0.28500
9363886;-0.27500
9366664;-0.26500
9369442;-0.27000
9372220;-0.26500
9374997;-0.27000
9377775;-0.27500
9380553;-0.27000
9383331;-0.26500
9386108;-0.26000
9388886;-0.26500
9391664;-0.28000
9394442;-0.29000
9397220;-0.28500
9399997;-0.27500
9402775;-0.26500
9405553;-0.27000
9408331;-0.29000
9411108;-0.28500
9413886;-0.27500
9416664;-0.27000
9419442;-0.26000
9422220;-0.25000
9424997;-0.24500
9427775;-0.25000
9430553;-0.22500
9433331;-0.20500
9436108;-0.20000
9438886;-0.18500
9441664;-0.19500
9444442;-0.20500
9447220;-0.20000
9449997;-0.17000
9452775;-0.15000
9455553;-0.16000
9458331;-0.16500
9461108;-0.15500
9463886;-0.15000
9466664;-0.14000
9469442;-0.15000
9472220;-0.14500
9474997;-0.16500
9477775;-0.18000
9480553;-0.18500
9483331;-0.18000
9486108;-0.17500
9488886;-0.16500
9491664;-0.17500
9494442;-0.19000
9497220;-0.20000
9499997;-0.18500
9502775;-0.15000
9505553;-0.13500
9508331;-0.16000
9511108;-0.20000
9513886;-0.23500
9516664;-0.22500
9519442;-0.22000
9522220;-0.24500
9524997;-0.26500
9527775;-0.29000
9530553;-0.29500
9533331;-0.28000
9536108;-0.27500
9538886;-0.27500
9541664;-0.29000
9544442;-0.31000
9547220;-0.31000
9549997;-0.31000
9552775;-0.30500
9555553;-0.31500
9558331;-0.30500
9561108;-0.32000
9563886;-0.32000
9566664;-0.30500
9569442;-0.28500
9572220;-0.30000
9574997;-0.30000
9577775;-0.32000
9580553;-0.31500
9583331;-0.30500
9586108;-0.29500
9588886;-0.30000
9591664;-0.31000
9594442;-0.32000
9597220;-0.32500
9599997;-0.33500
9602775;-0.36000
9605553;-0.40000
9608331;-0.43000
9611108;-0.46000
9613886;-0.48000
9616664;-0.51000
9619442;-0.50500
9622220;-0.42000
9624997;-0.26000
9627775;-0.07500
9630553;0.14500
9633331;0.39000
9636108;0.70000
9638886;0.95000
9641664;1.07000
9644442;1.01500
9647220;0.73500
9649997;0.30500
9652775;-0.11500
9655553;-0.37000
9658331;-0.43000
9661108;-0.39500
9663886;-0.33000
9666664;-0.32000
9669442;-0.32000
9672220;-0.33000
9674997;-0.33000
9677775;-0.34500
9680553;-0.35000
9683331;-0.34000
9686108;-0.34000
9688886;-0.35000
9691664;-0.35000
9694442;-0.36000
9697220;-0.36000
9699997;-0.35000
9702775;-0.34500
9705553;-0.35000
9708331;-0.35500
9711108;-0.37000
9713886;-0.36500
9716664;-0.35500
9719442;-0.34500
9722220;-0.35000
9724997;-0.35000
9727775;-0.36000
9730553;-0.35000
9733331;-0.35000
9736108;-0.34500
9738886;-0.34000
9741664;-0.35000
9744442;-0.35000
9747219;-0.35500
9749997;-0.35500
9752775;-0.34500
9755553;-0.34000
9758331;-0.35000
9761108;-0.35500
9763886;-0.35000
9766664;-0.34500
9769442;-0.35000
9772219;-0.35000
9774997;-0.36000
9777775;-0.36500
9780553;-0.36000
9783331;-0.35500
9786108;-0.35000
9788886;-0.35500
9791664;-0.36500
9794442;-0.37000
9797219;-0.36000
9799997;-0.35500
9802775;-0.34500
9805553;-0.33000
9808331;-0.35000
9811108;-0.35500
9813886;-0.36500
9816664;-0.36000
9819442;-0.34500
9822219;-0.35500
9824997;-0.35000
9827775;-0.36000
9830553;-0.36000
9833331;-0.35000
9836108;-0.35000
9838886;-0.35000
9841664;-0.36000
9844442;-0.37500
9847219;-0.37000
9849997;-0.35000
9852775;-0.35500
9855553;-0.35500
9858331;-0.36000
9861108;-0.37500
9863886;-0.36000
9866664;-0.35500
9869442;-0.35000
9872219;-0.35500
9874997;-0.37500
9877775;-0.37000
9880553;-0.37500
9883331;-0.36000
9886108;-0.35500
9888886;-0.36000
9891664;-0.35500
9894442;-0.35500
9897219;-0.35000
9899997;-0.34000
9902775;-0.33000
9905553;-0.33500
9908331;-0.35000
9911108;-0.32500
9913886;-0.31500
9916664;-0.29000
9919442;-0.27500
9922219;-0.27000
9924997;-0.26000
9927775;-0.26000
9930553;-0.25000
9933331;-0.24000
9936108;-0.22000
9938886;-0.22500
9941664;-0.23500
9944442;-0.24000
9947219;-0.22500
9949997;-0.21000
9952775;-0.22000
9955553;-0.21500
9958331;-0.21000
9961108;-0.22000
9963886;-0.22000
9966664;-0.21000
9969442;-0.20000
9972219;-0.21000
9974997;-0.22000
9977775;-0.22500
9980553;-0.21500
9983331;-0.21000
9986108;-0.21500
9988886;-0.22000
9991664;-0.22000
9994442;-0.23000
9997219;-0.21500
9999997;-0.21000
10002775;-0.19500
10005553;-0.20500
10008331;-0.22000
10011108;-0.23000
10013886;-0.21500
10016664;-0.22000
10019442;-0.21500
10022219;-0.22000
10024997;-0.22000
10027775;-0.23000
10030553;-0.24000
10033331;-0.24000
10036108;-0.22500
10038886;-0.24000
10041664;-0.25500
10044442;-0.27000
10047219;-0.27000
10049997;-0.27000
10052775;-0.26500
10055553;-0.26000
10058331;-0.27000
10061108;-0.28000
10063886;-0.26500
10066664;-0.25500
10069442;-0.24500
10072219;-0.27000
10074997;-0.28500
10077775;-0.29500
10080553;-0.27500
10083331;-0.27000
10086108;-0.26500
10088886;-0.26000
10091664;-0.26000
10094442;-0.27500
10097219;-0.28500
10099997;-0.26500
10102775;-0.27000
10105553;-0.27000
10108331;-0.27500
10111108;-0.28500
10113886;-0.28500
10116664;-0.27000
10119442;-0.26500
10122219;-0.27000
10124997;-0.28500
10127775;-0.29000
10130553;-0.29000
10133330;-0.28500
10136108;-0.28500
10138886;-0.29000
10141664;-0.29500
10144442;-0.30000
10147219;-0.28500
10149997;-0.27500
10152775;-0.27500
10155553;-0.25500
10158330;-0.26500
10161108;-0.27500
10163886;-0.27000
10166664;-0.26000
10169442;-0.27000
10172219;-0.27500
10174997;-0.27500
10177775;-0.27500
10180553;-0.26500
10183330;-0.24000
10186108;-0.22500
10188886;-0.21000
10191664;-0.22000
10194442;-0.22500
10197219;-0.21000
10199997;-0.19000
10202775;-0.18500
10205553;-0.18500
10208330;-0.19000
10211108;-0.19500
10213886;-0.18500
10216664;-0.16500
10219442;-0.15000
10222219;-0.15000
10224997;-0.15500
10227775;-0.16500
10230553;-0.16500
10233330;-0.15500
10236108;-0.14000
10238886;-0.16000
10241664;-0.17500
10244442;-0.19500
10247219;-0.18500
10249997;-0.20000
10252775;-0.19500
10255553;-0.18500
10258330;-0.15000
10261108;-0.15000
10263886;-0.16000
10266664;-0.19000
10269442;-0.21000
10272219;-0.24000
10274997;-0.26000
10277775;-0.27500
10280553;-0.29000
10283330;-0.29500
10286108;-0.30500
10288886;-0.32000
10291664;-0.32500
10294442;-0.31000
10297219;-0.30000
10299997;-0.28500
10302775;-0.28500
10305553;-0.29000
10308330;-0.28500
10311108;-0.30000
10313886;-0.29000
10316664;-0.28500
10319442;-0.29000
10322219;-0.27500
10324997;-0.29500
10327775;-0.31500
10330553;-0.31500
10333330;-0.30500
10336108;-0.29500
10338886;-0.29500
10341664;-0.31500
10344442;-0.32000
10347219;-0.31000
10349997;-0.32000
10352775;-0.31000
10355553;-0.33500
10358330;-0.38500
10361108;-0.42000
10363886;-0.43500
10366664;-0.43500
10369442;-0.45000
10372219;-0.49000
10374997;-0.50500
10377775;-0.46000
10380553;-0.36000
10383330;-0.21000
10386108;-0.03000
10388886;0.18500
10391664;0.45500
10394442;0.71500
10397219;0.91500
10399997;0.99500
10402775;0.89500
10405553;0.58500
10408330;0.19000
10411108;-0.16500
10413886;-0.37500
10416664;-0.44000
10419442;-0.41000
10422219;-0.37500
10424997;-0.35500
10427775;-0.35500
10430553;-0.36000
10433330;-0.35000
10436108;-0.33500
10438886;-0.34500
10441664;-0.35000
10444442;-0.36500
10447219;-0.36000
10449997;-0.34000
10452775;-0.34500
10455553;-0.36500
10458330;-0.36000
10461108;-0.37000
10463886;-0.37000
10466664;-0.35500
10469442;-0.33500
10472219;-0.33000
10474997;-0.33500
10477775;-0.35000
10480553;-0.35000
10483330;-0.36500
10486108;-0.34500
10488886;-0.34500
10491664;-0.34000
10494442;-0.35000
10497219;-0.33500
10499997;-0.33000
10502775;-0.33000
10505553;-0.34000
10508330;-0.34000
10511108;-0.36000
10513886;-0.37500
10516664;-0.36000
10519441;-0.37500
10522219;-0.38000
10524997;-0.38500
10527775;-0.39000
10530553;-0.36500
10533330;-0.35500
10536108;-0.35500
10538886;-0.35000
10541664;-0.36000
10544441;-0.36000
10547219;-0.35000
10549997;-0.35500
10552775;-0.35500
10555553;-0.37000
10558330;-0.38000
10561108;-0.40000
10563886;-0.38000
10566664;-0.36500
10569441;-0.35500
10572219;-0.35000
10574997;-0.35500
10577775;-0.37000
10580553;-0.36000
10583330;-0.36000
10586108;-0.36000
10588886;-0.36500
10591664;-0.37500
10594441;-0.38000
10597219;-0.38000
10599997;-0.35500
10602775;-0.35000
10605553;-0.36000
10608330;-0.36500
10611108;-0.39000
10613886;-0.38000
10616664;-0.37000
10619441;-0.37000
10622219;-0.36500
10624997;-0.37500
10627775;-0.39500
10630553;-0.40000
10633330;-0.39000
10636108;-0.39500
10638886;-0.40000
10641664;-0.41500
10644441;-0.42500
10647219;-0.41500
10649997;-0.39500
10652775;-0.39000
10655553;-0.40000
10658330;-0.41000
10661108;-0.41500
10663886;-0.39500
10666664;-0.39000
10669441;-0.38500
10672219;-0.38500
10674997;-0.38500
10677775;-0.38500
10680553;-0.37500
10683330;-0.35500
10686108;-0.34500
10688886;-0.34500
10691664;-0.34000
10694441;-0.33500
10697219;-0.31000
10699997;-0.30000
10702775;-0.28000
10705553;-0.29500
10708330;-0.30000
10711108;-0.29000
10713886;-0.26500
10716664;-0.26000
10719441;-0.25000
10722219;-0.26000
10724997;-0.25500
10727775;-0.26000
10730553;-0.24500
10733330;-0.25500
10736108;-0.24500
10738886;-0.24000
10741664;-0.26000
10744441;-0.27000
10747219;-0.26000
10749997;-0.24500
10752775;-0.25000
10755553;-0.26500
10758330;-0.27500
10761108;-0.30500
10763886;-0.25000
10766664;-0.25000
10769441;-0.25000
10772219;-0.25000
10774997;-0.25500
10777775;-0.28000
10780553;-0.27000
10783330;-0.24500
10786108;-0.23500
10788886;-0.24000
10791664;-0.25500
10794441;-0.26500
10797219;-0.27500
10799997;-0.25000
10802775;-0.24500
10805553;-0.26000
10808330;-0.29500
10811108;-0.29500
10813886;-0.29500
10816664;-0.27000
10819441;-0.25000
10822219;-0.25000
10824997;-0.26000
10827775;-0.26500
10830553;-0.27000
10833330;-0.26000
10836108;-0.28500
10838886;-0.29500
10841664;-0.30500
10844441;-0.31500
10847219;-0.30000
10849997;-0.30000
10852775;-0.28500
10855553;-0.28000
10858330;-0.28500
10861108;-0.30000
10863886;-0.30500
10866664;-0.30000
10869441;-0.29500
10872219;-0.30000
10874997;-0.30000
10877775;-0.29500
10880553;-0.29000
10883330;-0.28000
10886108;-0.27500
10888886;-0.30500
10891664;-0.31500
10894441;-0.31500
10897219;-0.31500
10899997;-0.30500
10902775;-0.31500
10905553;-0.32500
10908330;-0.33500
10911108;-0.34000
10913886;-0.32000
10916664;-0.30000
10919441;-0.28500
10922219;-0.28500
10924997;-0.30000
10927775;-0.31500
10930552;-0.29500
10933330;-0.28500
10936108;-0.28000
10938886;-0.27500
10941664;-0.28000
10944441;-0.29500
10947219;-0.27500
10949997;-0.26000
10952775;-0.25000
10955552;-0.26000
10958330;-0.25500
10961108;-0.26000
10963886;-0.25000
10966664;-0.23000
10969441;-0.22000
10972219;-0.21500
10974997;-0.22000
10977775;-0.24000
10980552;-0.24500
10983330;-0.21500
10986108;-0.18000
10988886;-0.18500
10991664;-0.16500
10994441;-0.18000
10997219;-0.17500
10999997;-0.17000
11002775;-0.19000
11005552;-0.21000
11008330;-0.21000
11011108;-0.21500
11013886;-0.22500
11016664;-0.22500
11019441;-0.22500
11022219;-0.22000
11024997;-0.21000
11027775;-0.20500
11030552;-0.19500
11033330;-0.18500
11036108;-0.19000
11038886;-0.19500
11041664;-0.24000
11044441;-0.27500
11047219;-0.29500
11049997;-0.31500
11052775;-0.31000
11055552;-0.30500
11058330;-0.31500
11061108;-0.34000
11063886;-0.33000
11066664;-0.32500
11069441;-0.33000
11072219;-0.33500
11074997;-0.33000
11077775;-0.31000
11080552;-0.31000
11083330;-0.30000
11086108;-0.29500
11088886;-0.30500
11091664;-0.32500
11094441;-0.33000
11097219;-0.33000
11099997;-0.32500
11102775;-0.32000
11105552;-0.32000
11108330;-0.32500
11111108;-0.34000
11113886;-0.34000
11116664;-0.35000
11119441;-0.35000
11122219;-0.39500
11124997;-0.43000
11127775;-0.47000
11130552;-0.49000
11133330;-0.51500
11136108;-0.51500
11138886;-0.50500
11141664;-0.41500
11144441;-0.30000
11147219;-0.17000
11149997;-0.06500
11152775;0.04000
11155552;0.15000
11158330;0.28500
11161108;0.45500
11163886;0.65500
11166664;0.82500
11169441;0.96000
11172219;1.07000
11174997;1.08500
11177775;0.94000
11180552;0.60000
11183330;0.17000
11186108;-0.19500
11188886;-0.40000
11191664;-0.46500
11194441;-0.45000
11197219;-0.41000
11199997;-0.36500
11202775;-0.34000
11205552;-0.36000
11208330;-0.37500
11211108;-0.38000
11213886;-0.38500
11216664;-0.36500
11219441;-0.37000
11222219;-0.37500
11224997;-0.37000
11227775;-0.38000
11230552;-0.38000
11233330;-0.36500
11236108;-0.35500
11238886;-0.35500
11241664;-0.37500
11244441;-0.38500
11247219;-0.39000
11249997;-0.36000
11252775;-0.36500
11255552;-0.36000
11258330;-0.36500
11261108;-0.37000
11263886;-0.37000
11266664;-0.37000
11269441;-0.37000
11272219;-0.36000
11274997;-0.37500
11277775;-0.39500
11280552;-0.39000
11283330;-0.37500
11286108;-0.36500
11288886;-0.36000
11291664;-0.36000
11294441;-0.37000
11297219;-0.37500
11299997;-0.37000
11302775;-0.36000
11305552;-0.35000
11308330;-0.35500
11311108;-0.37500
11313886;-0.36500
11316663;-0.36500
11319441;-0.34500
11322219;-0.36000
11324997;-0.37500
11327775;-0.38500
11330552;-0.36500
11333330;-0.38000
11336108;-0.36500
11338886;-0.37000
11341663;-0.37500
11344441;-0.38500
11347219;-0.38500
11349997;-0.37500
11352775;-0.37000
11355552;-0.36000
11358330;-0.38000
11361108;-0.38000
11363886;-0.38000
11366663;-0.37000
11369441;-0.36500
11372219;-0.37000
11374997;-0.37000
11377775;-0.38000
11380552;-0.39000
11383330;-0.37000
11386108;-0.37500
11388886;-0.38000
11391663;-0.38500
11394441;-0.40000
11397219;-0.40000
11399997;-0.39000
11402775;-0.39500
11405552;-0.40500
11408330;-0.41000
11411108;-0.43000
11413886;-0.43500
11416663;-0.44000
11419441;-0.42500
11422219;-0.42500
11424997;-0.43000
11427775;-0.43500
11430552;-0.44500
11433330;-0.43000
11436108;-0.42500
11438886;-0.41500
11441663;-0.42500
11444441;-0.44000
11447219;-0.41500
11449997;-0.39000
11452775;-0.40000
11455552;-0.39500
11458330;-0.39500
11461108;-0.39000
11463886;-0.37500
11466663;-0.35000
11469441;-0.33000
11472219;-0.31500
11474997;-0.31000
11477775;-0.30500
11480552;-0.30000
11483330;-0.27500
11486108;-0.26000
11488886;-0.26000
11491663;-0.25500
11494441;-0.27500
11497219;-0.25500
11499997;-0.25000
11502775;-0.22500
11505552;-0.24000
11508330;-0.23000
11511108;-0.24000
11513886;-0.23500
11516663;-0.21500
11519441;-0.21000
11522219;-0.22000
11524997;-0.22500
11527775;-0.23500
11530552;-0.24500
11533330;-0.22500
11536108;-0.23000
11538886;-0.23500
11541663;-0.24000
11544441;-0.26000
11547219;-0.25500
11549997;-0.24500
11552775;-0.23500
11555552;-0.24000
11558330;-0.24000
11561108;-0.25500
11563886;-0.25000
11566663;-0.24500
11569441;-0.23000
11572219;-0.23000
11574997;-0.25500
11577775;-0.25500
11580552;-0.25500
11583330;-0.25000
11586108;-0.25000
11588886;-0.24500
11591663;-0.25000
11594441;-0.27000
11597219;-0.26000
11599997;-0.25000
11602775;-0.26000
11605552;-0.26000
11608330;-0.26500
11611108;-0.28500
11613886;-0.28500
11616663;-0.27500
11619441;-0.27000
11622219;-0.26500
11624997;-0.27500
11627775;-0.29000
11630552;-0.27500
11633330;-0.27000
11636108;-0.26000
11638886;-0.25500
11641663;-0.26500
11644441;-0.28500
11647219;-0.28000
11649997;-0.27000
11652775;-0.26500
11655552;-0.26500
11658330;-0.27500
11661108;-0.28000
11663886;-0.28500
11666663;-0.28000
11669441;-0.27000
11672219;-0.27000
11674997;-0.28000
11677775;-0.29000
11680552;-0.27500
11683330;-0.27000
11686108;-0.26000
11688886;-0.26000
11691663;-0.26500
11694441;-0.27000
11697219;-0.27000
11699997;-0.25500
11702775;-0.25000
11705552;-0.26000
11708330;-0.25500
11711108;-0.26000
11713886;-0.25500
11716663;-0.25000
11719441;-0.25000
11722219;-0.24500
11724997;-0.25000
11727774;-0.26500
11730552;-0.26000
11733330;-0.24500
11736108;-0.22000
11738886;-0.22000
11741663;-0.21500
11744441;-0.21000
11747219;-0.20000
11749997;-0.19000
11752774;-0.17000
11755552;-0.18000
11758330;-0.17000
11761108;-0.17500
11763886;-0.16000
11766663;-0.14000
11769441;-0.14000
11772219;-0.12500
11774997;-0.13000
11777774;-0.14500
11780552;-0.14500
11783330;-0.14000
11786108;-0.15000
11788886;-0.15000
11791663;-0.16500
11794441;-0.18000
11797219;-0.16500
11799997;-0.15500
11802774;-0.15000
11805552;-0.15000
11808330;-0.16000
11811108;-0.17500
11813886;-0.16500
11816663;-0.15500
11819441;-0.12000
11822219;-0.11000
11824997;-0.13000
11827774;-0.17500
11830552;-0.21000
11833330;-0.20500
11836108;-0.22000
11838886;-0.23000
11841663;-0.24500
11844441;-0.26500
11847219;-0.27000
11849997;-0.26000
11852774;-0.26500
11855552;-0.25500
11858330;-0.26500
11861108;-0.27000
11863886;-0.27500
11866663;-0.26000
11869441;-0.25500
11872219;-0.27000
11874997;-0.27500
11877774;-0.28500
11880552;-0.28500
11883330;-0.29000
11886108;-0.27500
11888886;-0.27500
11891663;-0.28500
11894441;-0.28500
11897219;-0.29000
11899997;-0.28000
11902774;-0.28000
11905552;-0.29000
11908330;-0.31000
11911108;-0.36000
11913886;-0.41000
11916663;-0.42000
11919441;-0.42500
11922219;-0.45500
11924997;-0.48500
11927774;-0.44500
11930552;-0.32500
11933330;-0.15000
11936108;0.04500
11938886;0.24500
11941663;0.49000
11944441;0.76500
11947219;1.03000
11949997;1.18000
11952774;1.23500
11955552;1.09000
11958330;0.72500
11961108;0.23500
11963886;-0.19000
11966663;-0.39500
11969441;-0.40000
11972219;-0.34000
11974997;-0.31500
11977774;-0.30000
11980552;-0.29500
11983330;-0.29000
11986108;-0.29500
11988886;-0.30000
11991663;-0.31000
11994441;-0.32000
11997219;-0.32500
11999997;-0.32000
12002774;-0.31500
12005552;-0.32500
12008330;-0.35000
12011108;-0.36000
12013886;-0.35000
12016663;-0.34500
12019441;-0.33000
12022219;-0.33500
12024997;-0.33500
12027774;-0.35000
12030552;-0.34500
12033330;-0.35000
12036108;-0.32500
12038886;-0.33500
12041663;-0.34000
12044441;-0.35000
12047219;-0.34000
12049997;-0.34000
12052774;-0.33500
12055552;-0.33500
12058330;-0.34000
12061108;-0.34500
12063886;-0.35000
12066663;-0.35000
12069441;-0.35000
12072219;-0.35000
12074997;-0.35000
12077774;-0.37000
12080552;-0.37000
12083330;-0.36000
12086108;-0.34000
12088886;-0.34000
12091663;-0.35000
12094441;-0.35000
12097219;-0.35500
12099997;-0.34000
12102774;-0.33000
12105552;-0.33500
12108330;-0.35000
12111108;-0.37000
12113885;-0.37000
12116663;-0.35000
12119441;-0.34500
12122219;-0.34000
12124997;-0.35000
12127774;-0.35000
12130552;-0.35000
12133330;-0.34000
12136108;-0.34500
12138885;-0.34500
12141663;-0.34500
12144441;-0.36000
12147219;-0.35500
12149997;-0.35000
12152774;-0.34500
12155552;-0.34500
12158330;-0.37000
12161108;-0.36500
12163885;-0.36000
12166663;-0.35000
12169441;-0.35000
12172219;-0.35000
12174997;-0.36000
12177774;-0.36000
12180552;-0.36000
12183330;-0.35500
12186108;-0.33500
12188885;-0.34500
12191663;-0.36500
12194441;-0.37000
12197219;-0.36500
12199997;-0.36000
12202774;-0.34500
12205552;-0.35500
12208330;-0.36000
12211108;-0.37000
12213885;-0.35000
12216663;-0.34500
12219441;-0.34500
12222219;-0.34500
12224997;-0.35500
12227774;-0.36000
12230552;-0.35000
12233330;-0.34500
12236108;-0.33500
12238885;-0.32500
12241663;-0.32500
12244441;-0.33500
12247219;-0.30500
12249997;-0.29000
12252774;-0.27000
12255552;-0.25500
12258330;-0.25500
12261108;-0.25500
12263885;-0.24000
12266663;-0.23500
12269441;-0.22000
12272219;-0.21000
12274997;-0.22000
12277774;-0.22000
12280552;-0.22000
12283330;-0.20000
12286108;-0.21000
12288885;-0.20000
12291663;-0.21500
12294441;-0.21500
12297219;-0.20500
12299997;-0.20000
12302774;-0.20000
12305552;-0.20500
12308330;-0.22000
12311108;-0.22500
12313885;-0.21500
12316663;-0.21000
12319441;-0.21000
12322219;-0.21000
12324997;-0.20500
12327774;-0.22000
12330552;-0.23000
12333330;-0.22000
12336108;-0.20500
12338885;-0.20500
12341663;-0.21500
12344441;-0.22000
12347219;-0.22000
12349997;-0.22000
12352774;-0.20000
12355552;-0.21000
12358330;-0.22500
12361108;-0.23000
12363885;-0.23000
12366663;-0.22500
12369441;-0.22500
12372219;-0.23000
12374997;-0.23500
12377774;-0.24500
12380552;-0.25000
12383330;-0.23500
12386108;-0.23500
12388885;-0.23500
12391663;-0.25000
12394441;-0.25500
12397219;-0.26500
12399997;-0.25000
12402774;-0.24500
12405552;-0.25000
12408330;-0.26000
12411108;-0.27500
12413885;-0.28500
12416663;-0.27000
12419441;-0.25500
12422219;-0.25500
12424997;-0.25500
12427774;-0.27500
12430552;-0.27500
12433330;-0.26500
12436108;-0.26000
12438885;-0.25000
12441663;-0.28000
12444441;-0.29500
12447219;-0.29500
12449997;-0.27500
12452774;-0.27000
12455552;-0.27000
12458330;-0.28000
12461108;-0.29000
12463885;-0.29000
12466663;-0.28000
12469441;-0.28500
12472219;-0.28000
12474997;-0.29000
12477774;-0.30000
12480552;-0.29000
12483330;-0.28000
12486108;-0.27500
12488885;-0.27500
12491663;-0.27500
12494441;-0.28500
12497219;-0.27000
12499996;-0.27000
12502774;-0.25500
12505552;-0.26000
12508330;-0.26000
12511108;-0.26500
12513885;-0.25500
12516663;-0.26000
12519441;-0.25000
12522219;-0.25000
12524996;-0.25500
12527774;-0.25500
12530552;-0.25000
12533330;-0.22000
12536108;-0.19000
12538885;-0.21000
12541663;-0.20500
12544441;-0.20000
12547219;-0.20500
12549996;-0.19000
12552774;-0.19500
12555552;-0.18500
12558330;-0.18000
12561108;-0.17000
12563885;-0.16500
12566663;-0.16000
12569441;-0.14500
12572219;-0.14500
12574996;-0.15500
12577774;-0.17000
12580552;-0.17000
12583330;-0.17000
12586108;-0.16000
12588885;-0.15500
12591663;-0.18000
12594441;-0.18000
12597219;-0.20000
12599996;-0.17500
12602774;-0.15000
12605552;-0.12500
12608330;-0.13500
12611108;-0.16500
12613885;-0.19000
12616663;-0.21500
12619441;-0.20500
12622219;-0.23000
12624996;-0.24000
12627774;-0.27000
12630552;-0.27000
12633330;-0.27500
12636108;-0.28000
12638885;-0.28000
12641663;-0.28500
12644441;-0.29000
12647219;-0.29000
12649996;-0.28500
12652774;-0.27500
12655552;-0.28000
12658330;-0.28500
12661108;-0.30000
12663885;-0.30000
12666663;-0.27500
12669441;-0.27000
12672219;-0.28500
12674996;-0.28000
12677774;-0.30000
12680552;-0.30500
12683330;-0.29000
12686108;-0.27500
12688885;-0.30000
12691663;-0.31000
12694441;-0.32500
12697219;-0.33000
12699996;-0.34500
12702774;-0.37500
12705552;-0.40500
12708330;-0.43000
12711108;-0.45000
12713885;-0.44500
12716663;-0.46000
12719441;-0.50500
12722219;-0.53500
12724996;-0.54500
12727774;-0.49000
12730552;-0.40000
12733330;-0.25000
12736108;-0.08500
12738885;0.10000
12741663;0.31500
12744441;0.58500
12747219;0.87500
12749996;1.08000
12752774;1.14500
12755552;1.06500
12758330;0.76000
12761108;0.31000
12763885;-0.11000
12766663;-0.35500
12769441;-0.41500
12772219;-0.37000
12774996;-0.34000
12777774;-0.32000
12780552;-0.33500
12783330;-0.33500
12786108;-0.32500
12788885;-0.33000
12791663;-0.35000
12794441;-0.35000
12797219;-0.35000
12799996;-0.34500
12802774;-0.34500
12805552;-0.34500
12808330;-0.34500
12811108;-0.36000
12813885;-0.35000
12816663;-0.34000
12819441;-0.33500
12822219;-0.33500
12824996;-0.34000
12827774;-0.35000
12830552;-0.35000
12833330;-0.34000
12836108;-0.32500
12838885;-0.33500
12841663;-0.34000
12844441;-0.35000
12847219;-0.35000
12849996;-0.34500
12852774;-0.33000
12855552;-0.33000
12858330;-0.34000
12861108;-0.35000
12863885;-0.35000
12866663;-0.35000
12869441;-0.33500
12872219;-0.34000
12874996;-0.35500
12877774;-0.36000
12880552;-0.36500
12883330;-0.35000
12886108;-0.34500
12888885;-0.34000
12891663;-0.35500
12894441;-0.36000
12897219;-0.36000
12899996;-0.35000
12902774;-0.33500
12905552;-0.33500
12908330;-0.35000
12911107;-0.35500
12913885;-0.36000
12916663;-0.35500
12919441;-0.33000
12922219;-0.34500
12924996;-0.34500
12927774;-0.35500
12930552;-0.37000
12933330;-0.36000
12936107;-0.33500
12938885;-0.34000
12941663;-0.34000
12944441;-0.36000
12947219;-0.35500
12949996;-0.34500
12952774;-0.33500
12955552;-0.34500
12958330;-0.35000
12961107;-0.36000
12963885;-0.35500
12966663;-0.34500
12969441;-0.34000
12972219;-0.33000
12974996;-0.35000
12977774;-0.35500
12980552;-0.35500
12983330;-0.35000
12986107;-0.33500
12988885;-0.34500
12991663;-0.35000
12994441;-0.36500
12997219;-0.36000
12999996;-0.34500
13002774;-0.33000
13005552;-0.34000
13008330;-0.35500
13011107;-0.36500
13013885;-0.35500
13016663;-0.34500
13019441;-0.33500
13022219;-0.34000
13024996;-0.34500
13027774;-0.35500
13030552;-0.34000
13033330;-0.33500
13036107;-0.31500
13038885;-0.31500
13041663;-0.31500
13044441;-0.31000
13047219;-0.30500
13049996;-0.29000
13052774;-0.26500
13055552;-0.26000
13058330;-0.26000
13061107;-0.24500
13063885;-0.24000
13066663;-0.22500
13069441;-0.21500
13072219;-0.21500
13074996;-0.22000
13077774;-0.22000
13080552;-0.22500
13083330;-0.19500
13086107;-0.19500
13088885;-0.20000
13091663;-0.21000
13094441;-0.20000
13097219;-0.21500
13099996;-0.19500
13102774;-0.19000
13105552;-0.20000
13108330;-0.21500
13111107;-0.22000
13113885;-0.21500
13116663;-0.21000
13119441;-0.21000
13122219;-0.21000
13124996;-0.21500
13127774;-0.21000
13130552;-0.21000
13133330;-0.20500
13136107;-0.20000
13138885;-0.20000
13141663;-0.20000
13144441;-0.21500
13147219;-0.22000
13149996;-0.21500
13152774;-0.20500
13155552;-0.21500
13158330;-0.21500
13161107;-0.22500
13163885;-0.23000
13166663;-0.24500
13169441;-0.21000
13172219;-0.23000
13174996;-0.23000
13177774;-0.23000
13180552;-0.25000
13183330;-0.24000
13186107;-0.23000
13188885;-0.22500
13191663;-0.25000
13194441;-0.25500
13197219;-0.24500
13199996;-0.23500
13202774;-0.24500
13205552;-0.23500
13208330;-0.24500
13211107;-0.25500
13213885;-0.25500
13216663;-0.25000
13219441;-0.24000
13222219;-0.24500
13224996;-0.25500
13227774;-0.26500
13230552;-0.27000
13233330;-0.26000
13236107;-0.27000
13238885;-0.26000
13241663;-0.25500
13244441;-0.28000
13247219;-0.27000
13249996;-0.26000
13252774;-0.25000
13255552;-0.26500
13258330;-0.26500
13261107;-0.28000
13263885;-0.27000
13266663;-0.27000
13269441;-0.25500
13272219;-0.27000
13274996;-0.25500
13277774;-0.27500
13280552;-0.27000
13283330;-0.26500
13286107;-0.25500
13288885;-0.26500
13291663;-0.27000
13294441;-0.27000
13297218;-0.27000
13299996;-0.25000
13302774;-0.25000
13305552;-0.25000
13308330;-0.26500
13311107;-0.27500
13313885;-0.26000
13316663;-0.26000
13319441;-0.25000
13322218;-0.25000
13324996;-0.25500
13327774;-0.26500
13330552;-0.26500
13333330;-0.25000
13336107;-0.25000
13338885;-0.24500
13341663;-0.25500
13344441;-0.25000
13347218;-0.25500
13349996;-0.22500
13352774;-0.19500
13355552;-0.19000
13358330;-0.19500
13361107;-0.19500
13363885;-0.19000
13366663;-0.18500
13369441;-0.17500
13372218;-0.17000
13374996;-0.16000
13377774;-0.16500
13380552;-0.15500
13383330;-0.13500
13386107;-0.13000
13388885;-0.13500
13391663;-0.14500
13394441;-0.14500
13397218;-0.16000
13399996;-0.16500
13402774;-0.16000
13405552;-0.16000
13408330;-0.15500
13411107;-0.15000
13413885;-0.18000
13416663;-0.17500
13419441;-0.15000
13422218;-0.13000
13424996;-0.13000
13427774;-0.14000
13430552;-0.18000
13433330;-0.19500
13436107;-0.21500
13438885;-0.21500
13441663;-0.22500
13444441;-0.24000
13447218;-0.25500
13449996;-0.25000
13452774;-0.24000
13455552;-0.25500
13458330;-0.26500
13461107;-0.28000
13463885;-0.28500
13466663;-0.27500
13469441;-0.25000
13472218;-0.25500
13474996;-0.27500
13477774;-0.27500
13480552;-0.28000
13483330;-0.27500
13486107;-0.26500
13488885;-0.27000
13491663;-0.27500
13494441;-0.30000
13497218;-0.29500
13499996;-0.29000
13502774;-0.29000
13505552;-0.27500
13508330;-0.28500
13511107;-0.28500
13513885;-0.28500
13516663;-0.29000
13519441;-0.27000
13522218;-0.29000
13524996;-0.30000
13527774;-0.32000
13530552;-0.37500
13533330;-0.41000
13536107;-0.41000
13538885;-0.44000
13541663;-0.47500
13544441;-0.49000
13547218;-0.44500
13549996;-0.32000
13552774;-0.16000
13555552;-0.01500
13558330;0.15500
13561107;0.39500
13563885;0.66500
13566663;0.91500
13569441;1.05500
13572218;1.06500
13574996;0.91500
13577774;0.58000
13580552;0.15500
13583330;-0.18000
13586107;-0.35500
13588885;-0.42000
13591663;-0.41000
13594441;-0.36500
13597218;-0.34000
13599996;-0.32000
13602774;-0.31000
13605552;-0.32000
13608330;-0.32500
13611107;-0.32500
13613885;-0.32500
13616663;-0.31500
13619441;-0.31000
13622218;-0.31500
13624996;-0.32000
13627774;-0.33500
13630552;-0.34000
13633330;-0.32000
13636107;-0.32000
13638885;-0.33500
13641663;-0.33000
13644441;-0.35000
13647218;-0.34500
13649996;-0.34000
13652774;-0.33500
13655552;-0.34000
13658330;-0.34000
13661107;-0.32500
13663885;-0.33500
13666663;-0.32000
13669441;-0.31500
13672218;-0.32500
13674996;-0.33000
13677774;-0.33500
13680552;-0.34500
13683330;-0.33500
13686107;-0.32500
13688885;-0.34000
13691663;-0.34500
13694441;-0.35500
13697218;-0.35000
13699996;-0.33500
13702774;-0.33000
13705552;-0.34000
13708329;-0.35000
13711107;-0.35000
13713885;-0.35000
13716663;-0.33500
13719441;-0.32000
13722218;-0.32500
13724996;-0.33500
13727774;-0.34500
13730552;-0.35500
13733329;-0.34500
13736107;-0.33500
13738885;-0.33500
13741663;-0.33500
13744441;-0.35000
13747218;-0.34500
13749996;-0.34000
13752774;-0.33500
13755552;-0.33500
13758329;-0.34000
13761107;-0.35500
13763885;-0.36000
13766663;-0.35000
13769441;-0.34000
13772218;-0.36000
13774996;-0.35500
13777774;-0.35500
13780552;-0.36000
13783329;-0.34500
13786107;-0.33500
13788885;-0.33000
13791663;-0.35000
13794441;-0.35500
13797218;-0.35000
13799996;-0.32500
13802774;-0.32500
13805552;-0.33000
13808329;-0.34000
13811107;-0.34000
13813885;-0.34000
13816663;-0.33000
13819441;-0.32500
13822218;-0.33000
13824996;-0.35500
13827774;-0.35500
13830552;-0.36500
13833329;-0.35500
13836107;-0.35000
13838885;-0.36000
13841663;-0.35500
13844441;-0.36000
13847218;-0.36000
13849996;-0.35000
13852774;-0.34000
13855552;-0.33500
13858329;-0.34500
13861107;-0.34500
13863885;-0.35000
13866663;-0.35500
13869441;-0.33500
13872218;-0.33000
13874996;-0.33500
13877774;-0.34500
13880552;-0.33500
13883329;-0.32000
13886107;-0.29500
13888885;-0.29000
13891663;-0.29000
13894441;-0.30000
13897218;-0.28500
13899996;-0.27000
13902774;-0.25500
13905552;-0.25000
13908329;-0.25000
13911107;-0.25000
13913885;-0.25000
13916663;-0.23500
13919441;-0.21500
13922218;-0.23000
13924996;-0.23000
13927774;-0.24500
13930552;-0.24000
13933329;-0.23000
13936107;-0.22000
13938885;-0.21500
13941663;-0.23000
13944441;-0.23000
13947218;-0.23500
13949996;-0.22500
13952774;-0.21500
13955552;-0.23500
13958329;-0.23500
13961107;-0.23500
13963885;-0.24000
13966663;-0.24500
13969441;-0.22000
13972218;-0.22500
13974996;-0.23500
13977774;-0.24000
13980552;-0.25500
13983329;-0.24500
13986107;-0.26500
13988885;-0.27000
13991663;-0.27500
13994441;-0.27000
13997218;-0.26500
13999996;-0.25500
14002774;-0.23500
14005552;-0.23500
14008329;-0.24500
14011107;-0.25000
14013885;-0.26500
14016663;-0.26000
14019441;-0.25000
14022218;-0.26500
14024996;-0.28000
14027774;-0.28500
14030552;-0.27500
14033329;-0.26000
14036107;-0.25000
14038885;-0.25500
14041663;-0.25500
14044441;-0.28500
14047218;-0.28500
14049996;-0.27500
14052774;-0.26000
14055552;-0.24500
14058329;-0.26000
14061107;-0.28000
14063885;-0.30000
14066663;-0.29500
14069441;-0.30000
14072218;-0.31500
14074996;-0.31500
14077774;-0.31500
14080552;-0.32000
14083329;-0.31500
14086107;-0.30500
14088885;-0.31000
14091663;-0.30500
14094440;-0.31000
14097218;-0.32000
14099996;-0.29000
14102774;-0.28500
14105552;-0.28500
14108329;-0.29500
14111107;-0.31000
14113885;-0.31500
14116663;-0.29000
14119440;-0.28000
14122218;-0.29000
14124996;-0.30000
14127774;-0.30000
14130552;-0.32000
14133329;-0.31000
14136107;-0.29500
14138885;-0.30500
14141663;-0.31500
14144440;-0.32000
14147218;-0.31000
14149996;-0.30500
14152774;-0.29000
14155552;-0.29500
14158329;-0.29500
14161107;-0.28500
14163885;-0.28500
14166663;-0.25500
14169440;-0.24500
14172218;-0.22500
14174996;-0.22000
14177774;-0.23500
14180552;-0.22500
14183329;-0.22500
14186107;-0.22000
14188885;-0.21500
14191663;-0.21500
14194440;-0.21500
14197218;-0.21000
14199996;-0.20000
14202774;-0.17500
14205552;-0.18000
14208329;-0.18500
14211107;-0.20000
14213885;-0.22000
14216663;-0.21500
14219440;-0.22000
14222218;-0.20500
14224996;-0.20500
14227774;-0.21500
14230552;-0.22000
14233329;-0.23500
14236107;-0.23500
14238885;-0.22500
14241663;-0.23000
14244440;-0.22000
14247218;-0.20500
14249996;-0.18000
14252774;-0.18500
14255552;-0.20500
14258329;-0.22500
14261107;-0.25500
14263885;-0.26500
14266663;-0.27000
14269440;-0.30000
14272218;-0.33000
14274996;-0.34000
14277774;-0.35000
14280552;-0.35500
14283329;-0.34500
14286107;-0.34000
14288885;-0.33500
14291663;-0.34500
14294440;-0.35000
14297218;-0.35500
14299996;-0.34500
14302774;-0.33000
14305552;-0.34000
14308329;-0.34000
14311107;-0.34000
14313885;-0.35000
14316663;-0.33000
14319440;-0.32500
14322218;-0.34000
14324996;-0.36000
14327774;-0.36500
14330552;-0.36500
14333329;-0.37000
14336107;-0.35000
14338885;-0.36000
14341663;-0.38000
14344440;-0.40500
14347218;-0.44000
14349996;-0.46000
14352774;-0.47500
14355552;-0.52500
14358329;-0.54000
14361107;-0.51500
14363885;-0.41000
14366663;-0.25500
14369440;-0.09500
14372218;0.09000
14374996;0.34000
14377774;0.61000
14380552;0.85000
14383329;0.99500
14386107;0.96500
14388885;0.73500
14391663;0.34000
14394440;-0.08500
14397218;-0.37500
14399996;-0.48000
14402774;-0.48500
14405552;-0.46500
14408329;-0.43000
14411107;-0.41000
14413885;-0.40500
14416663;-0.40500
14419440;-0.41000
14422218;-0.40500
14424996;-0.40000
14427774;-0.40000
14430552;-0.38500
14433329;-0.38000
14436107;-0.36500
14438885;-0.39000
14441663;-0.40500
14444440;-0.41500
14447218;-0.41500
14449996;-0.40500
14452774;-0.39500
14455552;-0.40500
14458329;-0.40000
14461107;-0.40000
14463885;-0.38500
14466663;-0.38500
14469440;-0.38000
14472218;-0.37500
14474996;-0.40000
14477774;-0.39500
14480552;-0.40000
14483329;-0.39000
14486107;-0.39000
14488885;-0.40000
14491663;-0.42000
14494440;-0.42500
14497218;-0.42000
14499996;-0.41000
14502774;-0.39000
14505551;-0.39000
14508329;-0.39500
14511107;-0.39500
14513885;-0.40500
14516663;-0.40500
14519440;-0.40500
14522218;-0.40500
14524996;-0.41500
14527774;-0.43000
14530551;-0.43500
14533329;-0.42500
14536107;-0.41500
14538885;-0.41500
14541663;-0.44000
14544440;-0.44000
14547218;-0.45000
14549996;-0.43000
14552774;-0.41500
14555551;-0.41000
14558329;-0.42500
14561107;-0.43000
14563885;-0.44000
14566663;-0.43000
14569440;-0.40500
14572218;-0.40500
14574996;-0.42000
14577774;-0.43500
14580551;-0.44000
14583329;-0.45500
14586107;-0.43500
14588885;-0.42500
14591663;-0.43500
14594440;-0.42500
14597218;-0.44500
14599996;-0.45000
14602774;-0.44000
14605551;-0.42500
14608329;-0.43500
14611107;-0.43500
14613885;-0.43500
14616663;-0.44500
14619440;-0.44500
14622218;-0.48000
14624996;-0.47000
14627774;-0.49000
14630551;-0.49000
14633329;-0.49000
14636107;-0.49000
14638885;-0.48000
14641663;-0.48000
14644440;-0.47000
14647218;-0.49000
14649996;-0.48000
14652774;-0.48000
14655551;-0.48500
14658329;-0.49000
14661107;-0.49000
14663885;-0.49000
14666663;-0.46000
14669440;-0.43500
14672218;-0.42500
14674996;-0.41000
14677774;-0.41000
14680551;-0.39500
14683329;-0.37000
14686107;-0.36000
14688885;-0.35500
14691663;-0.35000
14694440;-0.36000
14697218;-0.35000
14699996;-0.32500
14702774;-0.31500
14705551;-0.31500
14708329;-0.31500
14711107;-0.32000
14713885;-0.31500
14716663;-0.30500
14719440;-0.28500
14722218;-0.28000
14724996;-0.28000
14727774;-0.28000
14730551;-0.29500
14733329;-0.28500
14736107;-0.27000
14738885;-0.27000
14741663;-0.28500
14744440;-0.29500
14747218;-0.30000
14749996;-0.29000
14752774;-0.28000
14755551;-0.28500
14758329;-0.28500
14761107;-0.29500
14763885;-0.29500
14766663;-0.27500
14769440;-0.28000
14772218;-0.28000
14774996;-0.30000
14777774;-0.30000
14780551;-0.30000
14783329;-0.29000
14786107;-0.28000
14788885;-0.28500
14791663;-0.29500
14794440;-0.30000
14797218;-0.30500
14799996;-0.29000
14802774;-0.29000
14805551;-0.28500
14808329;-0.29000
14811107;-0.30500
14813885;-0.30500
14816663;-0.29500
14819440;-0.29500
14822218;-0.29000
14824996;-0.30500
14827774;-0.30500
14830551;-0.32500
14833329;-0.30500
14836107;-0.29000
14838885;-0.30000
14841663;-0.31500
14844440;-0.31500
14847218;-0.32500
14849996;-0.31000
14852774;-0.30500
14855551;-0.30500
14858329;-0.32000
14861107;-0.31500
14863885;-0.32000
14866663;-0.31000
14869440;-0.30500
14872218;-0.29500
14874996;-0.31000
14877774;-0.32000
14880551;-0.32000
14883329;-0.30500
14886107;-0.29000
14888885;-0.29500
14891662;-0.30000
14894440;-0.31000
14897218;-0.30500
14899996;-0.30500
14902774;-0.30000
14905551;-0.29500
14908329;-0.29500
14911107;-0.30500
14913885;-0.30000
14916662;-0.29500
14919440;-0.29500
14922218;-0.28500
14924996;-0.30000
14927774;-0.31000
14930551;-0.31500
14933329;-0.29500
14936107;-0.28500
14938885;-0.28000
14941662;-0.28500
14944440;-0.27500
14947218;-0.28500
14949996;-0.26500
14952774;-0.25500
14955551;-0.23000
14958329;-0.23000
14961107;-0.22500
14963885;-0.23000
14966662;-0.21000
14969440;-0.20500
14972218;-0.20000
14974996;-0.20500
14977774;-0.21000
14980551;-0.21000
14983329;-0.20000
14986107;-0.18500
14988885;-0.17500
14991662;-0.17500
14994440;-0.17000
14997218;-0.18500
14999996;-0.17000
15002774;-0.17000
15005551;-0.17000
15008329;-0.18000
15011107;-0.20000
15013885;-0.20000
15016662;-0.17500
15019440;-0.17500
15022218;-0.18500
15024996;-0.19500
15027774;-0.20000
15030551;-0.17500
15033329;-0.16000
15036107;-0.14500
15038885;-0.19500
15041662;-0.23500
15044440;-0.25000
15047218;-0.25500
15049996;-0.26500
15052774;-0.26500
15055551;-0.28000
15058329;-0.29000
15061107;-0.31000
15063885;-0.31000
15066662;-0.29000
15069440;-0.29000
15072218;-0.28500
15074996;-0.28500
15077774;-0.30000
15080551;-0.29500
15083329;-0.30000
15086107;-0.29500
15088885;-0.29000
15091662;-0.30000
15094440;-0.31000
15097218;-0.32000
15099996;-0.32000
15102774;-0.32500
15105551;-0.32500
15108329;-0.32000
15111107;-0.32500
15113885;-0.33500
15116662;-0.32000
15119440;-0.32500
15122218;-0.31500
15124996;-0.32500
15127774;-0.34000
15130551;-0.37500
15133329;-0.41000
15136107;-0.43000
15138885;-0.44500
15141662;-0.48500
15144440;-0.50000
15147218;-0.47000
15149996;-0.33000
15152774;-0.15000
15155551;0.06000
15158329;0.30000
15161107;0.56500
15163885;0.83500
15166662;1.05000
15169440;1.13500
15172218;1.08500
15174996;0.81500
15177774;0.34500
15180551;-0.12000
15183329;-0.42000
15186107;-0.49000
15188885;-0.44000
15191662;-0.38000
15194440;-0.35500
15197218;-0.35500
15199996;-0.35500
15202774;-0.34500
15205551;-0.35000
15208329;-0.35000
15211107;-0.37000
15213885;-0.37000
15216662;-0.36000
15219440;-0.36500
15222218;-0.36500
15224996;-0.37000
15227774;-0.37500
15230551;-0.37500
15233329;-0.37000
15236107;-0.36500
15238885;-0.36000
15241662;-0.37000
15244440;-0.38000
15247218;-0.38000
15249996;-0.37000
15252774;-0.37500
15255551;-0.37000
15258329;-0.38000
15261107;-0.38000
15263885;-0.39000
15266662;-0.37500
15269440;-0.36500
15272218;-0.37000
15274996;-0.37000
15277774;-0.37500
15280551;-0.37500
15283329;-0.36500
15286107;-0.35000
15288885;-0.36000
15291662;-0.37000
15294440;-0.38000
15297218;-0.38000
15299996;-0.37500
15302773;-0.37000
15305551;-0.36500
15308329;-0.37000
15311107;-0.38000
15313885;-0.38500
15316662;-0.36500
15319440;-0.36500
15322218;-0.37000
15324996;-0.38000
15327773;-0.39000
15330551;-0.39000
15333329;-0.38000
15336107;-0.37500
15338885;-0.38000
15341662;-0.39000
15344440;-0.39500
15347218;-0.39000
15349996;-0.39000
15352773;-0.38000
15355551;-0.38000
15358329;-0.38000
15361107;-0.39000
15363885;-0.39500
15366662;-0.39500
15369440;-0.39000
15372218;-0.38000
15374996;-0.39500
15377773;-0.41000
15380551;-0.42000
15383329;-0.39500
15386107;-0.38500
15388885;-0.40000
15391662;-0.41500
15394440;-0.41500
15397218;-0.42000
15399996;-0.42500
15402773;-0.41500
15405551;-0.40500
15408329;-0.41000
15411107;-0.42000
15413885;-0.42500
15416662;-0.41000
15419440;-0.40000
15422218;-0.40500
15424996;-0.40000
15427773;-0.41000
15430551;-0.40000
15433329;-0.38500
15436107;-0.38000
15438885;-0.36500
15441662;-0.36500
15444440;-0.36000
15447218;-0.35000
15449996;-0.33500
15452773;-0.32000
15455551;-0.31500
15458329;-0.31000
15461107;-0.30000
15463885;-0.29500
15466662;-0.28000
15469440;-0.26000
15472218;-0.27000
15474996;-0.25500
15477773;-0.25500
15480551;-0.26000
15483329;-0.25500
15486107;-0.23500
15488885;-0.23000
15491662;-0.21500
15494440;-0.24000
15497218;-0.22500
15499996;-0.21500
15502773;-0.21500
15505551;-0.21000
15508329;-0.21500
15511107;-0.23500
15513885;-0.23500
15516662;-0.22500
15519440;-0.22500
15522218;-0.22500
15524996;-0.23500
15527773;-0.23500
15530551;-0.24000
15533329;-0.23000
15536107;-0.22500
15538885;-0.22000
15541662;-0.23000
15544440;-0.24000
15547218;-0.25500
15549996;-0.24500
15552773;-0.23000
15555551;-0.21500
15558329;-0.23000
15561107;-0.24000
15563885;-0.24500
15566662;-0.23500
15569440;-0.23000
15572218;-0.23500
15574996;-0.24500
15577773;-0.24000
15580551;-0.26500
15583329;-0.25500
15586107;-0.26000
15588885;-0.25500
15591662;-0.25500
15594440;-0.26500
15597218;-0.26500
15599996;-0.26000
15602773;-0.25500
15605551;-0.27000
15608329;-0.27000
15611107;-0.28500
15613885;-0.28500
15616662;-0.27500
15619440;-0.27000
15622218;-0.26500
15624996;-0.27500
15627773;-0.27500
15630551;-0.28500
15633329;-0.27500
15636107;-0.26500
15638885;-0.26500
15641662;-0.27500
15644440;-0.27500
15647218;-0.29500
15649996;-0.28500
15652773;-0.26500
15655551;-0.28000
15658329;-0.29000
15661107;-0.29500
15663885;-0.30000
15666662;-0.29000
15669440;-0.28500
15672218;-0.28500
15674996;-0.30000
15677773;-0.29000
15680551;-0.29500
15683329;-0.28000
15686107;-0.27000
15688884;-0.26000
15691662;-0.26500
15694440;-0.28000
15697218;-0.28500
15699996;-0.26500
15702773;-0.24500
15705551;-0.25500
15708329;-0.25000
15711107;-0.24500
15713884;-0.24000
15716662;-0.21000
15719440;-0.19000
15722218;-0.19000
15724996;-0.20000
15727773;-0.20000
15730551;-0.20000
15733329;-0.19000
15736107;-0.18000
15738884;-0.17500
15741662;-0.17000
15744440;-0.17000
15747218;-0.17000
15749996;-0.16500
15752773;-0.15500
15755551;-0.15000
15758329;-0.17000
15761107;-0.16500
15763884;-0.17500
15766662;-0.17000
15769440;-0.18000
15772218;-0.17500
15774996;-0.17500
15777773;-0.18000
15780551;-0.17000
15783329;-0.18000
15786107;-0.18500
15788884;-0.17000
15791662;-0.16000
15794440;-0.14500
15797218;-0.16000
15799996;-0.17500
15802773;-0.18500
15805551;-0.21500
15808329;-0.22000
15811107;-0.25000
15813884;-0.27500
15816662;-0.27500
15819440;-0.27500
15822218;-0.28000
15824996;-0.28500
15827773;-0.28500
15830551;-0.29000
15833329;-0.28000
15836107;-0.27500
15838884;-0.27500
15841662;-0.29000
15844440;-0.29000
15847218;-0.30500
15849996;-0.29500
15852773;-0.29000
15855551;-0.28500
15858329;-0.30500
15861107;-0.32000
15863884;-0.31500
15866662;-0.30500
15869440;-0.29000
15872218;-0.30000
15874996;-0.30000
15877773;-0.31500
15880551;-0.32500
15883329;-0.35500
15886107;-0.36000
15888884;-0.40500
15891662;-0.43500
15894440;-0.46500
15897218;-0.50500
15899996;-0.49000
15902773;-0.39000
15905551;-0.22500
15908329;-0.05000
15911107;0.12500
15913884;0.35500
15916662;0.64000
15919440;0.92500
15922218;1.12000
15924996;1.21000
