time_ms;ecg_value
0;1.01000
2778;1.15000
5556;1.15000
8333;0.91500
11111;0.46500
13889;-0.03500
16667;-0.37000
19444;-0.47500
22222;-0.43000
25000;-0.38000
27778;-0.36000
30556;-0.36000
33333;-0.36000
36111;-0.36000
38889;-0.35500
41667;-0.37000
44444;-0.38000
47222;-0.38000
50000;-0.38500
52778;-0.37500
55556;-0.37500
58333;-0.39000
61111;-0.39000
63889;-0.39000
66667;-0.39000
69444;-0.39000
72222;-0.37500
75000;-0.38500
77778;-0.39500
80556;-0.39500
83333;-0.40000
86111;-0.39500
88889;-0.40000
91667;-0.40000
94444;-0.41500
97222;-0.42500
100000;-0.41500
102778;-0.40000
105556;-0.41000
108333;-0.40500
111111;-0.41000
113889;-0.41500
116667;-0.42000
119444;-0.40000
122222;-0.39500
125000;-0.40000
127778;-0.39500
130556;-0.41000
133333;-0.41500
136111;-0.39500
138889;-0.39000
141667;-0.40000
144444;-0.40000
147222;-0.40500
150000;-0.40000
152778;-0.39000
155556;-0.39000
158333;-0.39000
161111;-0.40000
163889;-0.40500
166667;-0.41500
169444;-0.40500
172222;-0.41000
175000;-0.41500
177778;-0.41500
180556;-0.43000
183333;-0.41500
186111;-0.41000
188889;-0.40000
191667;-0.41000
194444;-0.41500
197222;-0.41500
200000;-0.40500
202778;-0.39500
205555;-0.39500
208333;-0.40000
211111;-0.41500
213889;-0.41000
216667;-0.39500
219444;-0.39500
222222;-0.38500
225000;-0.40000
227778;-0.40500
230555;-0.42000
233333;-0.40500
236111;-0.41500
238889;-0.39500
241667;-0.41000
244444;-0.42000
247222;-0.43000
250000;-0.41500
252778;-0.41000
255555;-0.41500
258333;-0.42500
261111;-0.43000
263889;-0.42500
266667;-0.42000
269444;-0.41000
272222;-0.41000
275000;-0.41000
277778;-0.41000
280555;-0.41000
283333;-0.40000
286111;-0.38000
288889;-0.36500
291667;-0.38000
294444;-0.37000
297222;-0.35500
300000;-0.34000
302778;-0.33000
305555;-0.31000
308333;-0.30500
311111;-0.31000
313889;-0.30000
316667;-0.29000
319444;-0.27500
322222;-0.27500
325000;-0.28000
327778;-0.27500
330555;-0.29500
333333;-0.28000
336111;-0.27000
338889;-0.26500
341667;-0.26500
344444;-0.27000
347222;-0.27000
350000;-0.27000
352778;-0.26000
355555;-0.25000
358333;-0.26500
361111;-0.27000
363889;-0.28000
366667;-0.28000
369444;-0.27000
372222;-0.26500
375000;-0.27000
377778;-0.28000
380555;-0.28500
383333;-0.28500
386111;-0.27500
388889;-0.26000
391667;-0.27500
394444;-0.27500
397222;-0.28000
400000;-0.27500
402778;-0.28500
405555;-0.29000
408333;-0.29000
411111;-0.30000
413889;-0.31000
416667;-0.28000
419444;-0.27500
422222;-0.28000
425000;-0.27500
427778;-0.30500
430555;-0.31000
433333;-0.30000
436111;-0.29000
438889;-0.29500
441667;-0.30000
444444;-0.30000
447222;-0.32000
450000;-0.32000
452778;-0.31500
455555;-0.32000
458333;-0.31500
461111;-0.33500
463889;-0.33500
466667;-0.33000
469444;-0.33500
472222;-0.32500
475000;-0.32000
477778;-0.32500
480555;-0.33000
483333;-0.32500
486111;-0.31000
488889;-0.32000
491667;-0.32500
494444;-0.32500
497222;-0.33500
500000;-0.32500
502778;-0.33000
505555;-0.32000
508333;-0.33500
511111;-0.34500
513889;-0.34500
516667;-0.34000
519444;-0.33500
522222;-0.33000
525000;-0.33500
527778;-0.34000
530555;-0.34000
533333;-0.32000
536111;-0.31000
538889;-0.31000
541667;-0.31500
544444;-0.31500
547222;-0.32500
550000;-0.31000
552778;-0.30500
555555;-0.30500
558333;-0.31500
561111;-0.33000
563889;-0.31500
566667;-0.31500
569444;-0.30000
572222;-0.31000
575000;-0.30000
577778;-0.30500
580555;-0.31000
583333;-0.31000
586111;-0.30000
588889;-0.27000
591667;-0.26500
594444;-0.27000
597222;-0.26000
600000;-0.25000
602778;-0.23000
605555;-0.23000
608333;-0.22500
611111;-0.21500
613889;-0.22000
616666;-0.20500
619444;-0.19000
622222;-0.19500
625000;-0.20000
627778;-0.22000
630555;-0.22000
633333;-0.22500
636111;-0.22500
638889;-0.22000
641666;-0.22500
644444;-0.24500
647222;-0.25000
650000;-0.23500
652778;-0.20500
655555;-0.19500
658333;-0.22000
661111;-0.25500
663889;-0.28500
666666;-0.30000
669444;-0.30500
672222;-0.30500
675000;-0.30500
677778;-0.34000
680555;-0.33500
683333;-0.33500
686111;-0.32000
688889;-0.33000
691666;-0.33000
694444;-0.32500
697222;-0.34000
700000;-0.33500
702778;-0.33000
705555;-0.33000
708333;-0.32500
711111;-0.34500
713889;-0.35500
716666;-0.35000
719444;-0.33500
722222;-0.33500
725000;-0.34500
727778;-0.36000
730555;-0.36000
733333;-0.34500
736111;-0.34500
738889;-0.33500
741666;-0.34000
744444;-0.35000
747222;-0.38000
750000;-0.42000
752778;-0.43500
755555;-0.46500
758333;-0.48000
761111;-0.51500
763889;-0.56500
766666;-0.57500
769444;-0.51000
772222;-0.39000
775000;-0.21500
777778;-0.04000
780555;0.16000
783333;0.44000
786111;0.74500
788889;0.97500
791666;1.09000
794444;1.04000
797222;0.77500
800000;0.33500
802778;-0.11000
805555;-0.38000
808333;-0.46500
811111;-0.43000
813889;-0.38000
816666;-0.34000
819444;-0.34000
822222;-0.35000
825000;-0.36500
827778;-0.36500
830555;-0.37000
833333;-0.37000
836111;-0.37000
838889;-0.37000
841666;-0.37500
844444;-0.38000
847222;-0.39500
850000;-0.38500
852778;-0.38500
855555;-0.38000
858333;-0.39000
861111;-0.40000
863889;-0.40000
866666;-0.40000
869444;-0.39000
872222;-0.40000
875000;-0.39500
877778;-0.39000
880555;-0.40500
883333;-0.39500
886111;-0.39500
888889;-0.39000
891666;-0.38000
894444;-0.39000
897222;-0.39500
900000;-0.39000
902778;-0.38000
905555;-0.38500
908333;-0.39000
911111;-0.39000
913889;-0.40000
916666;-0.39500
919444;-0.37500
922222;-0.37000
925000;-0.38000
927778;-0.38500
930555;-0.39500
933333;-0.38500
936111;-0.38000
938889;-0.38500
941666;-0.38000
944444;-0.39500
947222;-0.40500
950000;-0.40500
952778;-0.40000
955555;-0.39500
958333;-0.40500
961111;-0.40500
963889;-0.42000
966666;-0.40500
969444;-0.39000
972222;-0.38500
975000;-0.38000
977778;-0.39500
980555;-0.39500
983333;-0.39000
986111;-0.38500
988889;-0.39500
991666;-0.38000
994444;-0.39000
997222;-0.39000
1000000;-0.38000
1002777;-0.39000
1005555;-0.38500
1008333;-0.38500
1011111;-0.39500
1013889;-0.39500
1016666;-0.39500
1019444;-0.39000
1022222;-0.40000
1025000;-0.40500
1027777;-0.41500
1030555;-0.42500
1033333;-0.41500
1036111;-0.42000
1038889;-0.40000
1041666;-0.40000
1044444;-0.40000
1047222;-0.40500
1050000;-0.40500
1052777;-0.39000
1055555;-0.38500
1058333;-0.39000
1061111;-0.39000
1063889;-0.39500
1066666;-0.38000
1069444;-0.36500
1072222;-0.35000
1075000;-0.34500
1077777;-0.33500
1080555;-0.33500
1083333;-0.31500
1086111;-0.30500
1088889;-0.29500
1091666;-0.29500
1094444;-0.29000
1097222;-0.29500
1100000;-0.28000
1102777;-0.27000
1105555;-0.27000
1108333;-0.28500
1111111;-0.27500
1113889;-0.28000
1116666;-0.27000
1119444;-0.26500
1122222;-0.26000
1125000;-0.26000
1127777;-0.26500
1130555;-0.27000
1133333;-0.26000
1136111;-0.25000
1138889;-0.23500
1141666;-0.24000
1144444;-0.25000
1147222;-0.26500
1150000;-0.26000
1152777;-0.24000
1155555;-0.25000
1158333;-0.25500
1161111;-0.27000
1163889;-0.26500
1166666;-0.25000
1169444;-0.24000
1172222;-0.25500
1175000;-0.25000
1177777;-0.25500
1180555;-0.26000
1183333;-0.25000
1186111;-0.25500
1188889;-0.25500
1191666;-0.26000
1194444;-0.28000
1197222;-0.29000
1200000;-0.27000
1202777;-0.28000
1205555;-0.27000
1208333;-0.27500
1211111;-0.30000
1213889;-0.31000
1216666;-0.30500
1219444;-0.29000
1222222;-0.27500
1225000;-0.28000
1227777;-0.28500
1230555;-0.29500
1233333;-0.29000
1236111;-0.27500
1238889;-0.27000
1241666;-0.28000
1244444;-0.30500
1247222;-0.30500
1250000;-0.30500
1252777;-0.31000
1255555;-0.31000
1258333;-0.30500
1261111;-0.32000
1263889;-0.32000
1266666;-0.31500
1269444;-0.31000
1272222;-0.30500
1275000;-0.32000
1277777;-0.31000
1280555;-0.32000
1283333;-0.30000
1286111;-0.29500
1288889;-0.28000
1291666;-0.29000
1294444;-0.30000
1297222;-0.31000
1300000;-0.31000
1302777;-0.30000
1305555;-0.29500
1308333;-0.30000
1311111;-0.30500
1313889;-0.30500
1316666;-0.32000
1319444;-0.30500
1322222;-0.30500
1325000;-0.30000
1327777;-0.30000
1330555;-0.31000
1333333;-0.30500
1336111;-0.29000
1338889;-0.28000
1341666;-0.30000
1344444;-0.29500
1347222;-0.29000
1350000;-0.29500
1352777;-0.28500
1355555;-0.28000
1358333;-0.27500
1361111;-0.28500
1363889;-0.29000
1366666;-0.28000
1369444;-0.27500
1372222;-0.26000
1375000;-0.26000
1377777;-0.23500
1380555;-0.23000
1383333;-0.22500
1386111;-0.22000
1388888;-0.21500
1391666;-0.22000
1394444;-0.21000
1397222;-0.21000
1400000;-0.19000
1402777;-0.19000
1405555;-0.17500
1408333;-0.18500
1411111;-0.19500
1413888;-0.21500
1416666;-0.20500
1419444;-0.21000
1422222;-0.20000
1425000;-0.20500
1427777;-0.20000
1430555;-0.22000
1433333;-0.23500
1436111;-0.22500
1438888;-0.20500
1441666;-0.19000
1444444;-0.19500
1447222;-0.22000
1450000;-0.23500
1452777;-0.24500
1455555;-0.25500
1458333;-0.28000
1461111;-0.30500
1463888;-0.31500
1466666;-0.31000
1469444;-0.30500
1472222;-0.30500
1475000;-0.30000
1477777;-0.31500
1480555;-0.33500
1483333;-0.32500
1486111;-0.32500
1488888;-0.31500
1491666;-0.32000
1494444;-0.33000
1497222;-0.35500
1500000;-0.34500
1502777;-0.31000
1505555;-0.31000
1508333;-0.33000
1511111;-0.33000
1513888;-0.34000
1516666;-0.34000
1519444;-0.33000
1522222;-0.32000
1525000;-0.32000
1527777;-0.32500
1530555;-0.32000
1533333;-0.32500
1536111;-0.33000
1538888;-0.33500
1541666;-0.37000
1544444;-0.41000
1547222;-0.45000
1550000;-0.46000
1552777;-0.48500
1555555;-0.51500
1558333;-0.51500
1561111;-0.42500
1563888;-0.28500
1566666;-0.11500
1569444;0.09000
1572222;0.35500
1575000;0.63000
1577777;0.84500
1580555;0.94500
1583333;0.93500
1586111;0.74000
1588888;0.37000
1591666;-0.02000
1594444;-0.29000
1597222;-0.42500
1600000;-0.46500
1602777;-0.49000
1605555;-0.46000
1608333;-0.43000
1611111;-0.39500
1613888;-0.38500
1616666;-0.37500
1619444;-0.37500
1622222;-0.37000
1625000;-0.37000
1627777;-0.37000
1630555;-0.38500
1633333;-0.39500
1636111;-0.39500
1638888;-0.39500
1641666;-0.40000
1644444;-0.39000
1647222;-0.39500
1650000;-0.37500
1652777;-0.38000
1655555;-0.37000
1658333;-0.36000
1661111;-0.37500
1663888;-0.38500
1666666;-0.37500
1669444;-0.36500
1672222;-0.36500
1675000;-0.36000
1677777;-0.37500
1680555;-0.39000
1683333;-0.38500
1686111;-0.38500
1688888;-0.37500
1691666;-0.38000
1694444;-0.38500
1697222;-0.39500
1700000;-0.38500
1702777;-0.37500
1705555;-0.36500
1708333;-0.37500
1711111;-0.36500
1713888;-0.38500
1716666;-0.38500
1719444;-0.39000
1722222;-0.39000
1725000;-0.40000
1727777;-0.39500
1730555;-0.40500
1733333;-0.39000
1736111;-0.37500
1738888;-0.37500
1741666;-0.36500
1744444;-0.38500
1747222;-0.39000
1750000;-0.37500
1752777;-0.37000
1755555;-0.36500
1758333;-0.37000
1761111;-0.37000
1763888;-0.38000
1766666;-0.37000
1769444;-0.36000
1772222;-0.36500
1775000;-0.37500
1777777;-0.38000
1780555;-0.37500
1783333;-0.38000
1786111;-0.38000
1788888;-0.38500
1791666;-0.39500
1794444;-0.39500
1797222;-0.40500
1799999;-0.40000
1802777;-0.39000
1805555;-0.38000
1808333;-0.38500
1811111;-0.40000
1813888;-0.41500
1816666;-0.40000
1819444;-0.38500
1822222;-0.37500
1824999;-0.39000
1827777;-0.40500
1830555;-0.43000
1833333;-0.42500
1836111;-0.41000
1838888;-0.40500
1841666;-0.40500
1844444;-0.41000
1847222;-0.43000
1849999;-0.42500
1852777;-0.42500
1855555;-0.42500
1858333;-0.41000
1861111;-0.41000
1863888;-0.43000
1866666;-0.43000
1869444;-0.43000
1872222;-0.41500
1874999;-0.41000
1877777;-0.41000
1880555;-0.40500
1883333;-0.38000
1886111;-0.35500
1888888;-0.33500
1891666;-0.33500
1894444;-0.33500
1897222;-0.32500
1899999;-0.30500
1902777;-0.28000
1905555;-0.26500
1908333;-0.27000
1911111;-0.28000
1913888;-0.29000
1916666;-0.27500
1919444;-0.27000
1922222;-0.25500
1924999;-0.23500
1927777;-0.25500
1930555;-0.25500
1933333;-0.26500
1936111;-0.25500
1938888;-0.25500
1941666;-0.26500
1944444;-0.28000
1947222;-0.28000
1949999;-0.26500
1952777;-0.26500
1955555;-0.26000
1958333;-0.27500
1961111;-0.27500
1963888;-0.27500
1966666;-0.26000
1969444;-0.24500
1972222;-0.25500
1974999;-0.25000
1977777;-0.26500
1980555;-0.28000
1983333;-0.28500
1986111;-0.26500
1988888;-0.27500
1991666;-0.27000
1994444;-0.28500
1997222;-0.28500
1999999;-0.28000
2002777;-0.26000
2005555;-0.24500
2008333;-0.25000
2011111;-0.26500
2013888;-0.28000
2016666;-0.28500
2019444;-0.28000
2022222;-0.27000
2024999;-0.27500
2027777;-0.29000
2030555;-0.29500
2033333;-0.29500
2036111;-0.29000
2038888;-0.30500
2041666;-0.30000
2044444;-0.29500
2047222;-0.30500
2049999;-0.30500
2052777;-0.28500
2055555;-0.27000
2058333;-0.27000
2061111;-0.28000
2063888;-0.28500
2066666;-0.29500
2069444;-0.28500
2072222;-0.28500
2074999;-0.28500
2077777;-0.30500
2080555;-0.31000
2083333;-0.30500
2086111;-0.29500
2088888;-0.29000
2091666;-0.28500
2094444;-0.28500
2097222;-0.30000
2099999;-0.30500
2102777;-0.30000
2105555;-0.29000
2108333;-0.29500
2111111;-0.30000
2113888;-0.31000
2116666;-0.28000
2119444;-0.27500
2122222;-0.26000
2124999;-0.26000
2127777;-0.27500
2130555;-0.29500
2133333;-0.29500
2136111;-0.28000
2138888;-0.27000
2141666;-0.26500
2144444;-0.26500
2147222;-0.28500
2149999;-0.28500
2152777;-0.27000
2155555;-0.25500
2158333;-0.24500
2161111;-0.27500
2163888;-0.28500
2166666;-0.26500
2169444;-0.24500
2172222;-0.22500
2174999;-0.21500
2177777;-0.22000
2180555;-0.23500
2183333;-0.25000
2186110;-0.22500
2188888;-0.20500
2191666;-0.19000
2194444;-0.19500
2197222;-0.19500
2199999;-0.17500
2202777;-0.15500
2205555;-0.15500
2208333;-0.17000
2211110;-0.18000
2213888;-0.20500
2216666;-0.20500
2219444;-0.20000
2222222;-0.19500
2224999;-0.19500
2227777;-0.21000
2230555;-0.22000
2233333;-0.22500
2236110;-0.19000
2238888;-0.16500
2241666;-0.15500
2244444;-0.18000
2247222;-0.21000
2249999;-0.23500
2252777;-0.23500
2255555;-0.24000
2258333;-0.26000
2261110;-0.29500
2263888;-0.32000
2266666;-0.32000
2269444;-0.30500
2272222;-0.30000
2274999;-0.29500
2277777;-0.30000
2280555;-0.31500
2283333;-0.30500
2286110;-0.31000
2288888;-0.30500
2291666;-0.31000
2294444;-0.31000
2297222;-0.31500
2299999;-0.30500
2302777;-0.31000
2305555;-0.30500
2308333;-0.32000
2311110;-0.32000
2313888;-0.32500
2316666;-0.30500
2319444;-0.30000
2322222;-0.32000
2324999;-0.31500
2327777;-0.33500
2330555;-0.36000
2333333;-0.38500
2336110;-0.41500
2338888;-0.43000
2341666;-0.45500
2344444;-0.49000
2347222;-0.52000
2349999;-0.46500
2352777;-0.34000
2355555;-0.17500
2358333;-0.00500
2361110;0.17000
2363888;0.37000
2366666;0.63000
2369444;0.84500
2372222;0.99500
2374999;1.10000
2377777;1.18000
2380555;1.19000
2383333;1.07000
2386110;0.76000
2388888;0.33500
2391666;-0.09000
2394444;-0.34000
2397222;-0.43500
2399999;-0.42500
2402777;-0.38000
2405555;-0.34500
2408333;-0.34000
2411110;-0.35000
2413888;-0.35500
2416666;-0.36000
2419444;-0.34000
2422222;-0.34000
2424999;-0.35000
2427777;-0.36000
2430555;-0.37000
2433333;-0.35500
2436110;-0.35000
2438888;-0.34000
2441666;-0.33500
2444444;-0.34000
2447222;-0.36000
2449999;-0.35000
2452777;-0.34500
2455555;-0.34500
2458333;-0.35000
2461110;-0.35500
2463888;-0.36000
2466666;-0.36500
2469444;-0.35500
2472222;-0.35000
2474999;-0.35000
2477777;-0.36500
2480555;-0.38000
2483333;-0.36500
2486110;-0.36500
2488888;-0.36000
2491666;-0.37000
2494444;-0.37500
2497222;-0.39000
2499999;-0.38000
2502777;-0.37500
2505555;-0.36000
2508333;-0.37000
2511110;-0.37500
2513888;-0.39000
2516666;-0.38500
2519444;-0.37000
2522222;-0.36000
2524999;-0.37000
2527777;-0.37500
2530555;-0.37500
2533333;-0.38500
2536110;-0.37000
2538888;-0.38000
2541666;-0.37500
2544444;-0.38000
2547222;-0.38500
2549999;-0.39000
2552777;-0.38000
2555555;-0.37500
2558333;-0.36000
2561110;-0.37500
2563888;-0.39000
2566666;-0.39000
2569444;-0.37500
2572222;-0.38000
2574999;-0.38000
2577777;-0.38500
2580555;-0.40000
2583333;-0.40000
2586110;-0.39500
2588888;-0.38500
2591666;-0.40000
2594444;-0.40500
2597221;-0.40500
2599999;-0.39500
2602777;-0.38500
2605555;-0.38000
2608333;-0.39500
2611110;-0.39500
2613888;-0.41000
2616666;-0.40500
2619444;-0.41500
2622221;-0.40500
2624999;-0.42000
2627777;-0.42000
2630555;-0.43500
2633333;-0.43500
2636110;-0.43500
2638888;-0.42000
2641666;-0.43000
2644444;-0.45000
2647221;-0.45000
2649999;-0.44000
2652777;-0.44000
2655555;-0.42500
2658333;-0.43000
2661110;-0.44000
2663888;-0.43500
2666666;-0.44000
2669444;-0.41500
2672221;-0.39500
2674999;-0.37000
2677777;-0.38000
2680555;-0.36500
2683333;-0.35000
2686110;-0.33000
2688888;-0.32000
2691666;-0.31000
2694444;-0.30000
2697221;-0.29000
2699999;-0.27500
2702777;-0.27000
2705555;-0.25500
2708333;-0.26500
2711110;-0.26000
2713888;-0.25000
2716666;-0.27000
2719444;-0.25500
2722221;-0.25500
2724999;-0.26500
2727777;-0.26000
2730555;-0.27500
2733333;-0.26500
2736110;-0.25500
2738888;-0.25500
2741666;-0.25500
2744444;-0.27000
2747221;-0.27500
2749999;-0.27000
2752777;-0.26000
2755555;-0.25000
2758333;-0.25500
2761110;-0.25500
2763888;-0.27000
2766666;-0.26000
2769444;-0.24500
2772221;-0.24000
2774999;-0.25000
2777777;-0.25500
2780555;-0.26500
2783333;-0.25500
2786110;-0.25000
2788888;-0.23500
2791666;-0.25000
2794444;-0.25500
2797221;-0.26000
2799999;-0.25500
2802777;-0.26000
2805555;-0.25000
2808333;-0.25500
2811110;-0.26500
2813888;-0.27500
2816666;-0.27000
2819444;-0.27500
2822221;-0.27000
2824999;-0.27500
2827777;-0.27500
2830555;-0.28000
2833333;-0.27500
2836110;-0.27000
2838888;-0.26500
2841666;-0.27000
2844444;-0.27500
2847221;-0.28500
2849999;-0.27500
2852777;-0.26500
2855555;-0.25500
2858333;-0.26000
2861110;-0.27000
2863888;-0.28000
2866666;-0.26500
2869444;-0.26000
2872221;-0.26000
2874999;-0.26000
2877777;-0.27000
2880555;-0.28500
2883333;-0.29000
2886110;-0.27500
2888888;-0.28000
2891666;-0.27000
2894444;-0.27500
2897221;-0.29000
2899999;-0.28000
2902777;-0.27000
2905555;-0.26500
2908333;-0.26000
2911110;-0.26500
2913888;-0.27000
2916666;-0.27000
2919444;-0.26500
2922221;-0.26500
2924999;-0.26000
2927777;-0.27500
2930555;-0.28500
2933333;-0.28000
2936110;-0.25500
2938888;-0.25500
2941666;-0.26000
2944444;-0.26000
2947221;-0.27000
2949999;-0.28000
2952777;-0.28000
2955555;-0.26000
2958333;-0.26500
2961110;-0.27000
2963888;-0.27500
2966666;-0.26000
2969444;-0.25500
2972221;-0.25000
2974999;-0.26000
2977777;-0.26500
2980555;-0.26500
2983332;-0.26500
2986110;-0.26000
2988888;-0.24000
2991666;-0.23000
2994444;-0.22500
2997221;-0.22500
2999999;-0.21000
3002777;-0.19500
3005555;-0.19000
3008332;-0.19000
3011110;-0.19000
3013888;-0.20500
3016666;-0.18000
3019444;-0.17500
3022221;-0.16000
3024999;-0.15500
3027777;-0.16500
3030555;-0.17500
3033332;-0.16000
3036110;-0.14000
3038888;-0.14500
3041666;-0.13500
3044444;-0.14000
3047221;-0.15500
3049999;-0.16000
3052777;-0.14500
3055555;-0.17000
3058332;-0.17000
3061110;-0.18000
3063888;-0.17500
3066666;-0.17500
3069444;-0.17500
3072221;-0.16500
3074999;-0.17000
3077777;-0.15000
3080555;-0.15000
3083332;-0.12500
3086110;-0.15500
3088888;-0.18000
3091666;-0.21500
3094444;-0.23500
3097221;-0.25500
3099999;-0.26000
3102777;-0.25500
3105555;-0.27000
3108332;-0.28000
3111110;-0.28500
3113888;-0.29500
3116666;-0.29000
3119444;-0.27500
3122221;-0.26500
3124999;-0.26500
3127777;-0.28500
3130555;-0.29500
3133332;-0.29000
3136110;-0.30000
3138888;-0.28000
3141666;-0.29000
3144444;-0.29000
3147221;-0.29500
3149999;-0.30500
3152777;-0.28500
3155555;-0.28500
3158332;-0.30000
3161110;-0.31000
3163888;-0.32000
3166666;-0.31000
3169444;-0.30500
3172221;-0.33500
3174999;-0.37000
3177777;-0.42000
3180555;-0.46000
3183332;-0.47500
3186110;-0.48500
3188888;-0.49000
3191666;-0.41000
3194444;-0.27000
3197221;-0.07000
3199999;0.14500
3202777;0.40000
3205555;0.68000
3208332;0.97500
3211110;1.16500
3213888;1.29000
3216666;1.38500
3219444;1.43500
3222221;1.37000
3224999;1.16000
3227777;0.82500
3230555;0.42000
3233332;0.02500
3236110;-0.26500
3238888;-0.39500
3241666;-0.42000
3244444;-0.39500
3247221;-0.36000
3249999;-0.34000
3252777;-0.32000
3255555;-0.32000
3258332;-0.32000
3261110;-0.34000
3263888;-0.35500
3266666;-0.34000
3269444;-0.33500
3272221;-0.33500
3274999;-0.34500
3277777;-0.34500
3280555;-0.36000
3283332;-0.35500
3286110;-0.35000
3288888;-0.34000
3291666;-0.35000
3294444;-0.35500
3297221;-0.36500
3299999;-0.36000
3302777;-0.36000
3305555;-0.35500
3308332;-0.34500
3311110;-0.36000
3313888;-0.37000
3316666;-0.38000
3319444;-0.36000
3322221;-0.36000
3324999;-0.37500
3327777;-0.38000
3330555;-0.37500
3333332;-0.37000
3336110;-0.35500
3338888;-0.35500
3341666;-0.35000
3344444;-0.36000
3347221;-0.37000
3349999;-0.36500
3352777;-0.36000
3355555;-0.36500
3358332;-0.36000
3361110;-0.36500
3363888;-0.37500
3366666;-0.37500
3369444;-0.36500
3372221;-0.36000
3374999;-0.36000
3377777;-0.36500
3380555;-0.38000
3383332;-0.37000
3386110;-0.36500
3388888;-0.37000
3391666;-0.37000
3394443;-0.37500
3397221;-0.38000
3399999;-0.37500
3402777;-0.38000
3405555;-0.35500
3408332;-0.36000
3411110;-0.37500
3413888;-0.38500
3416666;-0.37500
3419443;-0.36500
3422221;-0.35000
3424999;-0.35500
3427777;-0.37000
3430555;-0.37500
3433332;-0.37500
3436110;-0.37000
3438888;-0.35500
3441666;-0.37000
3444443;-0.37500
3447221;-0.38000
3449999;-0.38000
3452777;-0.37000
3455555;-0.37000
3458332;-0.38000
3461110;-0.38500
3463888;-0.39500
3466666;-0.39500
3469443;-0.39000
3472221;-0.38000
3474999;-0.38500
3477777;-0.39000
3480555;-0.39500
3483332;-0.39500
3486110;-0.38500
3488888;-0.38500
3491666;-0.37500
3494443;-0.38500
3497221;-0.38000
3499999;-0.37500
3502777;-0.36000
3505555;-0.35500
3508332;-0.35000
3511110;-0.35500
3513888;-0.36000
3516666;-0.34000
3519443;-0.34000
3522221;-0.31000
3524999;-0.30500
3527777;-0.29000
3530555;-0.29500
3533332;-0.29000
3536110;-0.26500
3538888;-0.27500
3541666;-0.27000
3544443;-0.27000
3547221;-0.27500
3549999;-0.25500
3552777;-0.24000
3555555;-0.23500
3558332;-0.23500
3561110;-0.23500
3563888;-0.23500
3566666;-0.24000
3569443;-0.23500
3572221;-0.22500
3574999;-0.23000
3577777;-0.23000
3580555;-0.24000
3583332;-0.23000
3586110;-0.23000
3588888;-0.23500
3591666;-0.22500
3594443;-0.24500
3597221;-0.25000
3599999;-0.23500
3602777;-0.23500
3605555;-0.23000
3608332;-0.23000
3611110;-0.23500
3613888;-0.25500
3616666;-0.25500
3619443;-0.25000
3622221;-0.24500
3624999;-0.24000
3627777;-0.26000
3630555;-0.25500
3633332;-0.26000
3636110;-0.24500
3638888;-0.23500
3641666;-0.23000
3644443;-0.24000
3647221;-0.25500
3649999;-0.24500
3652777;-0.24500
3655555;-0.24000
3658332;-0.24500
3661110;-0.25500
3663888;-0.26000
3666666;-0.26500
3669443;-0.26000
3672221;-0.25500
3674999;-0.26500
3677777;-0.26000
3680555;-0.28000
3683332;-0.28000
3686110;-0.28000
3688888;-0.27500
3691666;-0.27000
3694443;-0.27500
3697221;-0.28500
3699999;-0.27000
3702777;-0.27500
3705555;-0.26500
3708332;-0.26000
3711110;-0.27500
3713888;-0.27500
3716666;-0.27500
3719443;-0.27000
3722221;-0.26000
3724999;-0.26000
3727777;-0.27500
3730555;-0.27000
3733332;-0.27000
3736110;-0.27000
3738888;-0.26000
3741666;-0.26000
3744443;-0.28500
3747221;-0.28500
3749999;-0.30000
3752777;-0.29500
3755555;-0.27500
3758332;-0.28000
3761110;-0.27500
3763888;-0.29000
3766666;-0.30000
3769443;-0.27500
3772221;-0.27500
3774999;-0.26500
3777777;-0.27000
3780554;-0.26500
3783332;-0.27500
3786110;-0.27000
3788888;-0.25500
3791666;-0.25000
3794443;-0.26000
3797221;-0.26500
3799999;-0.26500
3802777;-0.25000
3805554;-0.25500
3808332;-0.25000
3811110;-0.25500
3813888;-0.25500
3816666;-0.25000
3819443;-0.24500
3822221;-0.23000
3824999;-0.23500
3827777;-0.24000
3830554;-0.25500
3833332;-0.24500
3836110;-0.22500
3838888;-0.21000
3841666;-0.19500
3844443;-0.20000
3847221;-0.20500
3849999;-0.20500
3852777;-0.19500
3855554;-0.19500
3858332;-0.20000
3861110;-0.19000
3863888;-0.19500
3866666;-0.17500
3869443;-0.16500
3872221;-0.14500
3874999;-0.14500
3877777;-0.15000
3880554;-0.17000
3883332;-0.17000
3886110;-0.16000
3888888;-0.16000
3891666;-0.16000
3894443;-0.16500
3897221;-0.17500
3899999;-0.18000
3902777;-0.18000
3905554;-0.17000
3908332;-0.16000
3911110;-0.13000
3913888;-0.14000
3916666;-0.15500
3919443;-0.17000
3922221;-0.19000
3924999;-0.22000
3927777;-0.23500
3930554;-0.26500
3933332;-0.27000
3936110;-0.26500
3938888;-0.27500
3941666;-0.27500
3944443;-0.30000
3947221;-0.30000
3949999;-0.29000
3952777;-0.28000
3955554;-0.26500
3958332;-0.27500
3961110;-0.28000
3963888;-0.28500
3966666;-0.29000
3969443;-0.28000
3972221;-0.27500
3974999;-0.27500
3977777;-0.28000
3980554;-0.29000
3983332;-0.29000
3986110;-0.28000
3988888;-0.27000
3991666;-0.27500
3994443;-0.27500
3997221;-0.28500
3999999;-0.29500
4002777;-0.27500
4005554;-0.26500
4008332;-0.27500
4011110;-0.31000
4013888;-0.36000
4016666;-0.39000
4019443;-0.41000
4022221;-0.41500
4024999;-0.41500
4027777;-0.42000
4030554;-0.46000
4033332;-0.49500
4036110;-0.52000
4038888;-0.47500
4041666;-0.37000
4044443;-0.22500
4047221;-0.05500
4049999;0.15000
4052777;0.40000
4055554;0.67500
4058332;0.94500
4061110;1.09500
4063888;1.14000
4066666;1.00500
4069443;0.66500
4072221;0.23000
4074999;-0.17500
4077777;-0.38000
4080554;-0.42000
4083332;-0.36000
4086110;-0.31000
4088888;-0.28500
4091666;-0.30000
4094443;-0.31000
4097221;-0.32000
4099999;-0.32000
4102777;-0.31500
4105554;-0.31000
4108332;-0.31000
4111110;-0.33500
4113888;-0.34000
4116666;-0.33000
4119443;-0.33500
4122221;-0.32000
4124999;-0.32000
4127777;-0.33500
4130554;-0.33500
4133332;-0.32500
4136110;-0.31000
4138888;-0.31000
4141666;-0.31500
4144443;-0.32500
4147221;-0.33500
4149999;-0.31500
4152777;-0.32500
4155554;-0.31000
4158332;-0.32000
4161110;-0.32500
4163888;-0.33500
4166666;-0.31500
4169443;-0.31000
4172221;-0.30000
4174999;-0.30500
4177777;-0.31500
4180554;-0.31500
4183332;-0.31000
4186110;-0.31000
4188888;-0.31500
4191665;-0.32500
4194443;-0.33000
4197221;-0.34000
4199999;-0.33500
4202777;-0.32500
4205554;-0.31500
4208332;-0.31500
4211110;-0.32500
4213888;-0.32500
4216665;-0.33000
4219443;-0.32000
4222221;-0.31000
4224999;-0.31000
4227777;-0.31000
4230554;-0.33000
4233332;-0.33500
4236110;-0.31500
4238888;-0.30500
4241665;-0.31500
4244443;-0.33000
4247221;-0.33000
4249999;-0.33000
4252777;-0.32000
4255554;-0.31000
4258332;-0.31500
4261110;-0.32000
4263888;-0.32500
4266665;-0.32000
4269443;-0.33000
4272221;-0.31500
4274999;-0.32500
4277777;-0.34000
4280554;-0.35500
4283332;-0.34500
4286110;-0.33500
4288888;-0.32000
4291665;-0.32500
4294443;-0.34000
4297221;-0.34500
4299999;-0.33500
4302777;-0.33000
4305554;-0.32500
4308332;-0.34500
4311110;-0.34500
4313888;-0.34000
4316665;-0.34500
4319443;-0.34000
4322221;-0.32500
4324999;-0.32500
4327777;-0.33500
4330554;-0.34500
4333332;-0.34000
4336110;-0.33000
4338888;-0.33000
4341665;-0.33000
4344443;-0.35500
4347221;-0.34000
4349999;-0.33000
4352777;-0.31500
4355554;-0.30000
4358332;-0.29000
4361110;-0.28000
4363888;-0.28000
4366665;-0.26500
4369443;-0.26500
4372221;-0.24500
4374999;-0.23000
4377777;-0.24000
4380554;-0.26500
4383332;-0.25000
4386110;-0.24000
4388888;-0.22000
4391665;-0.21500
4394443;-0.22000
4397221;-0.22000
4399999;-0.21500
4402777;-0.20000
4405554;-0.18000
4408332;-0.18500
4411110;-0.19500
4413888;-0.21000
4416665;-0.22000
4419443;-0.20000
4422221;-0.19000
4424999;-0.19000
4427777;-0.20000
4430554;-0.20500
4433332;-0.19000
4436110;-0.18500
4438888;-0.18500
4441665;-0.17000
4444443;-0.18500
4447221;-0.18000
4449999;-0.18500
4452777;-0.17000
4455554;-0.17000
4458332;-0.18000
4461110;-0.19500
4463888;-0.21000
4466665;-0.20000
4469443;-0.20000
4472221;-0.18500
4474999;-0.19000
4477777;-0.20500
4480554;-0.21000
4483332;-0.23500
4486110;-0.22000
4488888;-0.21000
4491665;-0.21000
4494443;-0.23000
4497221;-0.24500
4499999;-0.23500
4502777;-0.23500
4505554;-0.23000
4508332;-0.23000
4511110;-0.24000
4513888;-0.24000
4516665;-0.24500
4519443;-0.21500
4522221;-0.21500
4524999;-0.22000
4527777;-0.22500
4530554;-0.24000
4533332;-0.24500
4536110;-0.25500
4538888;-0.24000
4541665;-0.23000
4544443;-0.23500
4547221;-0.25500
4549999;-0.25500
4552777;-0.24000
4555554;-0.23500
4558332;-0.23500
4561110;-0.24500
4563888;-0.26500
4566665;-0.25500
4569443;-0.26000
4572221;-0.25000
4574999;-0.26000
4577776;-0.25500
4580554;-0.27000
4583332;-0.25500
4586110;-0.25500
4588888;-0.24500
4591665;-0.23000
4594443;-0.23500
4597221;-0.24500
4599999;-0.24500
4602776;-0.24000
4605554;-0.24500
4608332;-0.25000
4611110;-0.24500
4613888;-0.25500
4616665;-0.24500
4619443;-0.25000
4622221;-0.23500
4624999;-0.24500
4627776;-0.26000
4630554;-0.26000
4633332;-0.25500
4636110;-0.24000
4638888;-0.23500
4641665;-0.24000
4644443;-0.26000
4647221;-0.26000
4649999;-0.25000
4652776;-0.24500
4655554;-0.22500
4658332;-0.23000
4661110;-0.23000
4663888;-0.23500
4666665;-0.23000
4669443;-0.24500
4672221;-0.24000
4674999;-0.22000
4677776;-0.23500
4680554;-0.23000
4683332;-0.22000
4686110;-0.20500
4688888;-0.19000
4691665;-0.17500
4694443;-0.19000
4697221;-0.19000
4699999;-0.17500
4702776;-0.16000
4705554;-0.15500
4708332;-0.15500
4711110;-0.14500
4713888;-0.15000
4716665;-0.14000
4719443;-0.13500
4722221;-0.13000
4724999;-0.14000
4727776;-0.15000
4730554;-0.16500
4733332;-0.15500
4736110;-0.16000
4738888;-0.16500
4741665;-0.14500
4744443;-0.14500
4747221;-0.15000
4749999;-0.16000
4752776;-0.15000
4755554;-0.16000
4758332;-0.16000
4761110;-0.15000
4763888;-0.15500
4766665;-0.15000
4769443;-0.14500
4772221;-0.16000
4774999;-0.18500
4777776;-0.22000
4780554;-0.23000
4783332;-0.25000
4786110;-0.24000
4788888;-0.25000
4791665;-0.25000
4794443;-0.24500
4797221;-0.27500
4799999;-0.27000
4802776;-0.28500
4805554;-0.26000
4808332;-0.26500
4811110;-0.27500
4813888;-0.28000
4816665;-0.27500
4819443;-0.27000
4822221;-0.26500
4824999;-0.26000
4827776;-0.28000
4830554;-0.28500
4833332;-0.29500
4836110;-0.28500
4838888;-0.28500
4841665;-0.28500
4844443;-0.28500
4847221;-0.30000
4849999;-0.31000
4852776;-0.30500
4855554;-0.30000
4858332;-0.31000
4861110;-0.33000
4863888;-0.37000
4866665;-0.38500
4869443;-0.40000
4872221;-0.38500
4874999;-0.41000
4877776;-0.47500
4880554;-0.53500
4883332;-0.54500
4886110;-0.49500
4888888;-0.42500
4891665;-0.33000
4894443;-0.21500
4897221;-0.08500
4899999;0.08500
4902776;0.31000
4905554;0.56500
4908332;0.81000
4911110;0.96500
4913888;1.03000
4916665;0.98500
4919443;0.78500
4922221;0.45000
4924999;0.07000
4927776;-0.22500
4930554;-0.39500
4933332;-0.42500
4936110;-0.40500
4938888;-0.35500
4941665;-0.35000
4944443;-0.32500
4947221;-0.35000
4949999;-0.33500
4952776;-0.31500
4955554;-0.31000
4958332;-0.31000
4961110;-0.31500
4963887;-0.33000
4966665;-0.32500
4969443;-0.32500
4972221;-0.31000
4974999;-0.32000
4977776;-0.31500
4980554;-0.32500
4983332;-0.32000
4986110;-0.30500
4988887;-0.30500
4991665;-0.31500
4994443;-0.32000
4997221;-0.34000
4999999;-0.33000
5002776;-0.31500
5005554;-0.32000
5008332;-0.31500
5011110;-0.31500
5013887;-0.34000
5016665;-0.33500
5019443;-0.32000
5022221;-0.32000
5024999;-0.31000
5027776;-0.31000
5030554;-0.32000
5033332;-0.33000
5036110;-0.32000
5038887;-0.31500
5041665;-0.32000
5044443;-0.32000
5047221;-0.32500
5049999;-0.32500
5052776;-0.31000
5055554;-0.30000
5058332;-0.30000
5061110;-0.30500
5063887;-0.31000
5066665;-0.31000
5069443;-0.30500
5072221;-0.29500
5074999;-0.30500
5077776;-0.30500
5080554;-0.31000
5083332;-0.30500
5086110;-0.31000
5088887;-0.31000
5091665;-0.30000
5094443;-0.30000
5097221;-0.33000
5099999;-0.32500
5102776;-0.33000
5105554;-0.32500
5108332;-0.32000
5111110;-0.32500
5113887;-0.32000
5116665;-0.32000
5119443;-0.31000
5122221;-0.29000
5124999;-0.29500
5127776;-0.30500
5130554;-0.31500
5133332;-0.31500
5136110;-0.32000
5138887;-0.31500
5141665;-0.31500
5144443;-0.32000
5147221;-0.33000
5149999;-0.32000
5152776;-0.32500
5155554;-0.32500
5158332;-0.33500
5161110;-0.35000
5163887;-0.37000
5166665;-0.35500
5169443;-0.35000
5172221;-0.35000
5174999;-0.36000
5177776;-0.38000
5180554;-0.37000
5183332;-0.39000
5186110;-0.37000
5188887;-0.35500
5191665;-0.36000
5194443;-0.37500
5197221;-0.37000
5199999;-0.36500
5202776;-0.34500
5205554;-0.32000
5208332;-0.30000
5211110;-0.28500
5213887;-0.29500
5216665;-0.28500
5219443;-0.27000
5222221;-0.25000
5224999;-0.25000
5227776;-0.24500
5230554;-0.25500
5233332;-0.23500
5236110;-0.21500
5238887;-0.21000
5241665;-0.20500
5244443;-0.20000
5247221;-0.20500
5249999;-0.21000
5252776;-0.19500
5255554;-0.18000
5258332;-0.18500
5261110;-0.19000
5263887;-0.22000
5266665;-0.21000
5269443;-0.21500
5272221;-0.21000
5274999;-0.20000
5277776;-0.19500
5280554;-0.19000
5283332;-0.18500
5286110;-0.19000
5288887;-0.19500
5291665;-0.19000
5294443;-0.19500
5297221;-0.20500
5299999;-0.20000
5302776;-0.19000
5305554;-0.18500
5308332;-0.18500
5311110;-0.21000
5313887;-0.22500
5316665;-0.22500
5319443;-0.21000
5322221;-0.20000
5324999;-0.19000
5327776;-0.19500
5330554;-0.21500
5333332;-0.20500
5336110;-0.22000
5338887;-0.22000
5341665;-0.22500
5344443;-0.23500
5347221;-0.25000
5349999;-0.26000
5352776;-0.23500
5355554;-0.22000
5358332;-0.22000
5361110;-0.22500
5363887;-0.23000
5366665;-0.24500
5369443;-0.25000
5372221;-0.24500
5374998;-0.23500
5377776;-0.24500
5380554;-0.25000
5383332;-0.23500
5386110;-0.22500
5388887;-0.21500
5391665;-0.21500
5394443;-0.23000
5397221;-0.25000
5399998;-0.25500
5402776;-0.24500
5405554;-0.23000
5408332;-0.23000
5411110;-0.24000
5413887;-0.25500
5416665;-0.25000
5419443;-0.25000
5422221;-0.23500
5424998;-0.23000
5427776;-0.24500
5430554;-0.26500
5433332;-0.25500
5436110;-0.23500
5438887;-0.23000
5441665;-0.23500
5444443;-0.24000
5447221;-0.25500
5449998;-0.25500
5452776;-0.24500
5455554;-0.22000
5458332;-0.22500
5461110;-0.24500
5463887;-0.25000
5466665;-0.25500
5469443;-0.24000
5472221;-0.23000
5474998;-0.22000
5477776;-0.24500
5480554;-0.24000
5483332;-0.24000
5486110;-0.23500
5488887;-0.22000
5491665;-0.23500
5494443;-0.23500
5497221;-0.24500
5499998;-0.22500
5502776;-0.21500
5505554;-0.20500
5508332;-0.20000
5511110;-0.20000
5513887;-0.20000
5516665;-0.19000
5519443;-0.17500
5522221;-0.15500
5524998;-0.15000
5527776;-0.15500
5530554;-0.15000
5533332;-0.14500
5536110;-0.13500
5538887;-0.13500
5541665;-0.13000
5544443;-0.14000
5547221;-0.16500
5549998;-0.16500
5552776;-0.16000
5555554;-0.15000
5558332;-0.17000
5561110;-0.19000
5563887;-0.21000
5566665;-0.20500
5569443;-0.18000
5572221;-0.15000
5574998;-0.14000
5577776;-0.17000
5580554;-0.20500
5583332;-0.22500
5586110;-0.24500
5588887;-0.24000
5591665;-0.24000
5594443;-0.26000
5597221;-0.26500
5599998;-0.26500
5602776;-0.26500
5605554;-0.26000
5608332;-0.25500
5611110;-0.26500
5613887;-0.26500
5616665;-0.26500
5619443;-0.27000
5622221;-0.25500
5624998;-0.26000
5627776;-0.26000
5630554;-0.28000
5633332;-0.28500
5636110;-0.28000
5638887;-0.28500
5641665;-0.30500
5644443;-0.30500
5647221;-0.30500
5649998;-0.29500
5652776;-0.28500
5655554;-0.27500
5658332;-0.29500
5661110;-0.29500
5663887;-0.30500
5666665;-0.30000
5669443;-0.29000
5672221;-0.28500
5674998;-0.29000
5677776;-0.33500
5680554;-0.37000
5683332;-0.40000
5686110;-0.41000
5688887;-0.43000
5691665;-0.48000
5694443;-0.48500
5697221;-0.41000
5699998;-0.28500
5702776;-0.11000
5705554;0.08000
5708332;0.31000
5711110;0.57500
5713887;0.81500
5716665;1.00500
5719443;1.08500
5722221;0.99500
5724998;0.67000
5727776;0.21500
5730554;-0.17000
5733332;-0.38000
5736110;-0.42500
5738887;-0.39000
5741665;-0.35500
5744443;-0.33500
5747221;-0.33000
5749998;-0.32500
5752776;-0.32500
5755554;-0.31500
5758332;-0.32500
5761109;-0.33000
5763887;-0.34000
5766665;-0.34000
5769443;-0.34000
5772221;-0.33000
5774998;-0.32500
5777776;-0.33000
5780554;-0.34000
5783332;-0.33500
5786109;-0.32500
5788887;-0.32000
5791665;-0.33000
5794443;-0.33500
5797221;-0.33500
5799998;-0.33500
5802776;-0.34000
5805554;-0.32500
5808332;-0.31500
5811109;-0.32500
5813887;-0.33000
5816665;-0.34000
5819443;-0.33000
5822221;-0.32000
5824998;-0.33000
5827776;-0.34500
5830554;-0.35500
5833332;-0.34500
5836109;-0.34500
5838887;-0.34000
5841665;-0.34000
5844443;-0.35000
5847221;-0.36500
5849998;-0.37500
5852776;-0.36000
5855554;-0.35500
5858332;-0.35500
5861109;-0.36000
5863887;-0.37000
5866665;-0.36000
5869443;-0.34000
5872221;-0.34500
5874998;-0.34500
5877776;-0.34500
5880554;-0.36000
5883332;-0.35500
5886109;-0.35500
5888887;-0.35000
5891665;-0.36500
5894443;-0.36000
5897221;-0.36000
5899998;-0.36000
5902776;-0.35500
5905554;-0.34000
5908332;-0.35000
5911109;-0.36500
5913887;-0.36500
5916665;-0.37000
5919443;-0.36500
5922221;-0.36000
5924998;-0.36000
5927776;-0.38000
5930554;-0.40000
5933332;-0.40500
5936109;-0.38500
5938887;-0.38000
5941665;-0.38000
5944443;-0.39000
5947221;-0.40000
5949998;-0.40500
5952776;-0.39000
5955554;-0.39500
5958332;-0.41000
5961109;-0.41000
5963887;-0.42000
5966665;-0.42500
5969443;-0.41500
5972221;-0.41500
5974998;-0.40500
5977776;-0.42500
5980554;-0.43000
5983332;-0.44000
5986109;-0.42500
5988887;-0.41000
5991665;-0.42500
5994443;-0.43500
5997221;-0.45000
5999998;-0.43500
6002776;-0.41500
6005554;-0.40000
6008332;-0.40000
6011109;-0.39000
6013887;-0.37500
6016665;-0.36000
6019443;-0.34500
6022221;-0.32000
6024998;-0.29500
6027776;-0.29500
6030554;-0.30000
6033332;-0.28500
6036109;-0.27000
6038887;-0.25500
6041665;-0.25000
6044443;-0.24500
6047221;-0.25500
6049998;-0.24500
6052776;-0.24500
6055554;-0.23500
6058332;-0.23000
6061109;-0.23500
6063887;-0.25000
6066665;-0.25000
6069443;-0.25000
6072221;-0.24000
6074998;-0.24000
6077776;-0.24000
6080554;-0.24000
6083332;-0.25000
6086109;-0.23000
6088887;-0.23500
6091665;-0.23000
6094443;-0.24500
6097221;-0.25000
6099998;-0.24000
6102776;-0.24000
6105554;-0.23500
6108332;-0.23500
6111109;-0.25000
6113887;-0.25500
6116665;-0.26000
6119443;-0.24500
6122221;-0.24500
6124998;-0.25500
6127776;-0.27000
6130554;-0.26500
6133332;-0.27000
6136109;-0.26000
6138887;-0.25000
6141665;-0.25000
6144443;-0.26500
6147221;-0.27000
6149998;-0.27500
6152776;-0.26500
6155554;-0.26000
6158332;-0.26500
6161109;-0.25500
6163887;-0.26500
6166665;-0.27000
6169443;-0.27000
6172220;-0.26000
6174998;-0.25500
6177776;-0.26500
6180554;-0.28000
6183332;-0.27500
6186109;-0.27000
6188887;-0.26500
6191665;-0.26500
6194443;-0.27500
6197220;-0.27500
6199998;-0.28000
6202776;-0.28000
6205554;-0.28000
6208332;-0.26000
6211109;-0.28000
6213887;-0.29000
6216665;-0.28500
6219443;-0.29000
6222220;-0.26500
6224998;-0.27500
6227776;-0.27500
6230554;-0.27500
6233332;-0.28500
6236109;-0.26500
6238887;-0.24500
6241665;-0.25000
6244443;-0.27500
6247220;-0.28000
6249998;-0.27500
6252776;-0.27000
6255554;-0.26000
6258332;-0.26500
6261109;-0.27500
6263887;-0.28000
6266665;-0.27000
6269443;-0.26500
6272220;-0.25500
6274998;-0.26000
6277776;-0.27500
6280554;-0.28000
6283332;-0.28500
6286109;-0.28000
6288887;-0.27000
6291665;-0.27000
6294443;-0.27500
6297220;-0.28500
6299998;-0.27000
6302776;-0.25500
6305554;-0.22500
6308332;-0.23000
6311109;-0.21500
6313887;-0.20500
6316665;-0.20500
6319443;-0.19500
6322220;-0.18500
6324998;-0.19000
6327776;-0.19000
6330554;-0.18000
6333332;-0.17500
6336109;-0.16000
6338887;-0.15500
6341665;-0.15500
6344443;-0.15500
6347220;-0.16500
6349998;-0.16000
6352776;-0.16500
6355554;-0.16000
6358332;-0.17000
6361109;-0.18500
6363887;-0.18500
6366665;-0.19000
6369443;-0.19000
6372220;-0.19500
6374998;-0.20000
6377776;-0.19000
6380554;-0.16500
6383332;-0.15000
6386109;-0.16500
6388887;-0.18500
6391665;-0.21500
6394443;-0.23500
6397220;-0.25500
6399998;-0.27000
6402776;-0.27500
6405554;-0.26500
6408332;-0.28000
6411109;-0.29000
6413887;-0.29000
6416665;-0.29000
6419443;-0.28500
6422220;-0.28000
6424998;-0.29000
6427776;-0.29500
6430554;-0.30500
6433332;-0.30500
6436109;-0.30000
6438887;-0.29500
6441665;-0.31000
6444443;-0.31500
6447220;-0.31000
6449998;-0.31500
6452776;-0.30000
6455554;-0.29000
6458332;-0.29500
6461109;-0.30000
6463887;-0.30000
6466665;-0.30500
6469443;-0.29500
6472220;-0.29000
6474998;-0.31000
6477776;-0.35000
6480554;-0.39000
6483332;-0.43000
6486109;-0.45500
6488887;-0.47000
6491665;-0.49500
6494443;-0.49500
6497220;-0.40500
6499998;-0.24000
6502776;-0.04000
6505554;0.16500
6508332;0.43500
6511109;0.73000
6513887;0.99500
6516665;1.17000
6519443;1.21500
6522220;1.07500
6524998;0.64500
6527776;0.11500
6530554;-0.28500
6533332;-0.42500
6536109;-0.41000
6538887;-0.34000
6541665;-0.30500
6544443;-0.30000
6547220;-0.33500
6549998;-0.34500
6552776;-0.33500
6555554;-0.32500
6558331;-0.33000
6561109;-0.34000
6563887;-0.35000
6566665;-0.35000
6569443;-0.35500
6572220;-0.34500
6574998;-0.35500
6577776;-0.36500
6580554;-0.37500
6583331;-0.36500
6586109;-0.37000
6588887;-0.35500
6591665;-0.36000
6594443;-0.35500
6597220;-0.35500
6599998;-0.36000
6602776;-0.34000
6605554;-0.32500
6608331;-0.34000
6611109;-0.33500
6613887;-0.34500
6616665;-0.35500
6619443;-0.34000
6622220;-0.33000
6624998;-0.35000
6627776;-0.35000
6630554;-0.36000
6633331;-0.36500
6636109;-0.34500
6638887;-0.33500
6641665;-0.34000
6644443;-0.35000
6647220;-0.37000
6649998;-0.36500
6652776;-0.35500
6655554;-0.36000
6658331;-0.36000
6661109;-0.36500
6663887;-0.37000
6666665;-0.37000
6669443;-0.36500
6672220;-0.37000
6674998;-0.36000
6677776;-0.37000
6680554;-0.37000
6683331;-0.36500
6686109;-0.35500
6688887;-0.34000
6691665;-0.34500
6694443;-0.36500
6697220;-0.36500
6699998;-0.37500
6702776;-0.35000
6705554;-0.35000
6708331;-0.35500
6711109;-0.36000
6713887;-0.36000
6716665;-0.37500
6719443;-0.36500
6722220;-0.35000
6724998;-0.36000
6727776;-0.36000
6730554;-0.36500
6733331;-0.38500
6736109;-0.37000
6738887;-0.36000
6741665;-0.36500
6744443;-0.37000
6747220;-0.37000
6749998;-0.37500
6752776;-0.37500
6755554;-0.36500
6758331;-0.37500
6761109;-0.37000
6763887;-0.39000
6766665;-0.38500
6769443;-0.37000
6772220;-0.36500
6774998;-0.37000
6777776;-0.37000
6780554;-0.37000
6783331;-0.37000
6786109;-0.36000
6788887;-0.34500
6791665;-0.35000
6794443;-0.33500
6797220;-0.34500
6799998;-0.33000
6802776;-0.32000
6805554;-0.29500
6808331;-0.29000
6811109;-0.28500
6813887;-0.28000
6816665;-0.26500
6819443;-0.24500
6822220;-0.23500
6824998;-0.24000
6827776;-0.23000
6830554;-0.24500
6833331;-0.25500
6836109;-0.24500
6838887;-0.21500
6841665;-0.23500
6844443;-0.24000
6847220;-0.24000
6849998;-0.24000
6852776;-0.23000
6855554;-0.22000
6858331;-0.22500
6861109;-0.23000
6863887;-0.24500
6866665;-0.23500
6869443;-0.22000
6872220;-0.21000
6874998;-0.21500
6877776;-0.22500
6880554;-0.23000
6883331;-0.24000
6886109;-0.22500
6888887;-0.22000
6891665;-0.23000
6894443;-0.23500
6897220;-0.24000
6899998;-0.24000
6902776;-0.24000
6905554;-0.23000
6908331;-0.24000
6911109;-0.25000
6913887;-0.27000
6916665;-0.26500
6919443;-0.26000
6922220;-0.27000
6924998;-0.25000
6927776;-0.27000
6930554;-0.27000
6933331;-0.26500
6936109;-0.27000
6938887;-0.26000
6941665;-0.27000
6944442;-0.26500
6947220;-0.27500
6949998;-0.28500
6952776;-0.28000
6955554;-0.27000
6958331;-0.27500
6961109;-0.29000
6963887;-0.29000
6966665;-0.29500
6969442;-0.28500
6972220;-0.27000
6974998;-0.30000
6977776;-0.30500
6980554;-0.30000
6983331;-0.31000
6986109;-0.30000
6988887;-0.28500
6991665;-0.28500
6994442;-0.28500
6997220;-0.30000
6999998;-0.30000
7002776;-0.29000
7005554;-0.27000
7008331;-0.28500
7011109;-0.27500
7013887;-0.29000
7016665;-0.29000
7019442;-0.28500
7022220;-0.27500
7024998;-0.28500
7027776;-0.28000
7030554;-0.28500
7033331;-0.29500
7036109;-0.28000
7038887;-0.28000
7041665;-0.28500
7044442;-0.28500
7047220;-0.29500
7049998;-0.29500
7052776;-0.28500
7055554;-0.27000
7058331;-0.27000
7061109;-0.29000
7063887;-0.28500
7066665;-0.29500
7069442;-0.28500
7072220;-0.27500
7074998;-0.27500
7077776;-0.27000
7080554;-0.28500
7083331;-0.28000
7086109;-0.26000
7088887;-0.24000
7091665;-0.24000
7094442;-0.23000
7097220;-0.22500
7099998;-0.23000
7102776;-0.22000
7105554;-0.19500
7108331;-0.20500
7111109;-0.20500
7113887;-0.20500
7116665;-0.20000
7119442;-0.17000
7122220;-0.17500
7124998;-0.16500
7127776;-0.18000
7130554;-0.20000
7133331;-0.20000
7136109;-0.21000
7138887;-0.20000
7141665;-0.21000
7144442;-0.19000
7147220;-0.21000
7149998;-0.21000
7152776;-0.20500
7155554;-0.20000
7158331;-0.19000
7161109;-0.17000
7163887;-0.16000
7166665;-0.18500
7169442;-0.20000
7172220;-0.21500
7174998;-0.23500
7177776;-0.25500
7180554;-0.27000
7183331;-0.28500
7186109;-0.28500
7188887;-0.28500
7191665;-0.30000
7194442;-0.30500
7197220;-0.30000
7199998;-0.32000
7202776;-0.31000
7205554;-0.31000
7208331;-0.31500
7211109;-0.31500
7213887;-0.32500
7216665;-0.32500
7219442;-0.32500
7222220;-0.30500
7224998;-0.32000
7227776;-0.32500
7230554;-0.32500
7233331;-0.32500
7236109;-0.31500
7238887;-0.31000
7241665;-0.32000
7244442;-0.31500
7247220;-0.33500
7249998;-0.33000
7252776;-0.31500
7255554;-0.31500
7258331;-0.35000
7261109;-0.39000
7263887;-0.44000
7266665;-0.47000
7269442;-0.49500
7272220;-0.52000
7274998;-0.53000
7277776;-0.47000
7280554;-0.33500
7283331;-0.14000
7286109;0.07000
7288887;0.29500
7291665;0.58000
7294442;0.86000
7297220;1.04500
7299998;1.11000
7302776;1.05000
7305554;0.78000
7308331;0.31500
7311109;-0.12500
7313887;-0.39500
7316665;-0.46500
7319442;-0.41500
7322220;-0.35000
7324998;-0.33500
7327776;-0.34500
7330554;-0.36500
7333331;-0.36500
7336109;-0.35500
7338887;-0.34500
7341665;-0.36000
7344442;-0.37500
7347220;-0.37000
7349998;-0.36500
7352776;-0.36000
7355553;-0.35500
7358331;-0.35500
7361109;-0.35500
7363887;-0.36000
7366665;-0.36500
7369442;-0.35500
7372220;-0.34500
7374998;-0.36000
7377776;-0.37000
7380553;-0.38000
7383331;-0.38000
7386109;-0.37000
7388887;-0.36000
7391665;-0.36000
7394442;-0.37000
7397220;-0.37500
7399998;-0.37500
7402776;-0.36000
7405553;-0.35000
7408331;-0.35500
7411109;-0.36000
7413887;-0.37500
7416665;-0.37000
7419442;-0.36000
7422220;-0.34000
7424998;-0.35000
7427776;-0.36000
7430553;-0.36500
7433331;-0.36000
7436109;-0.36000
7438887;-0.35000
7441665;-0.35500
7444442;-0.35000
7447220;-0.37500
7449998;-0.38000
7452776;-0.36500
7455553;-0.35000
7458331;-0.37000
7461109;-0.37000
7463887;-0.37500
7466665;-0.38000
7469442;-0.37500
7472220;-0.35500
7474998;-0.36000
7477776;-0.35000
7480553;-0.37000
7483331;-0.36500
7486109;-0.35000
7488887;-0.35000
7491665;-0.35000
7494442;-0.34000
7497220;-0.35000
7499998;-0.36500
7502776;-0.35500
7505553;-0.34500
7508331;-0.35500
7511109;-0.37000
7513887;-0.36500
7516665;-0.37000
7519442;-0.36500
7522220;-0.35500
7524998;-0.37500
7527776;-0.37500
7530553;-0.38000
7533331;-0.39000
7536109;-0.39000
7538887;-0.37500
7541665;-0.38500
7544442;-0.38500
7547220;-0.39000
7549998;-0.39000
7552776;-0.38000
7555553;-0.38000
7558331;-0.38500
7561109;-0.38500
7563887;-0.38500
7566665;-0.38500
7569442;-0.38000
7572220;-0.36500
7574998;-0.36500
7577776;-0.37000
7580553;-0.38000
7583331;-0.37500
7586109;-0.35000
7588887;-0.34500
7591665;-0.32500
7594442;-0.32500
7597220;-0.31500
7599998;-0.31000
7602776;-0.30500
7605553;-0.28500
7608331;-0.27000
7611109;-0.27000
7613887;-0.28000
7616665;-0.28500
7619442;-0.27000
7622220;-0.24500
7624998;-0.25500
7627776;-0.26000
7630553;-0.26500
7633331;-0.25500
7636109;-0.24000
7638887;-0.23500
7641665;-0.23500
7644442;-0.23500
7647220;-0.24500
7649998;-0.24000
7652776;-0.24000
7655553;-0.23000
7658331;-0.24500
7661109;-0.23500
7663887;-0.25000
7666665;-0.25000
7669442;-0.24500
7672220;-0.23000
7674998;-0.23500
7677776;-0.24500
7680553;-0.25000
7683331;-0.24000
7686109;-0.23000
7688887;-0.22500
7691665;-0.22500
7694442;-0.23000
7697220;-0.24000
7699998;-0.25000
7702776;-0.24500
7705553;-0.24000
7708331;-0.24500
7711109;-0.24500
7713887;-0.26000
7716665;-0.26000
7719442;-0.26500
7722220;-0.25500
7724998;-0.26000
7727776;-0.26000
7730553;-0.27000
7733331;-0.29000
7736109;-0.29000
7738887;-0.27500
7741664;-0.28000
7744442;-0.28500
7747220;-0.29500
7749998;-0.29500
7752776;-0.28500
7755553;-0.27500
7758331;-0.28500
7761109;-0.28000
7763887;-0.28000
7766664;-0.29000
7769442;-0.28000
7772220;-0.27000
7774998;-0.26500
7777776;-0.27500
7780553;-0.28500
7783331;-0.28000
7786109;-0.28000
7788887;-0.27000
7791664;-0.27500
7794442;-0.27500
7797220;-0.28000
7799998;-0.28000
7802776;-0.28000
7805553;-0.27000
7808331;-0.27500
7811109;-0.28500
7813887;-0.28500
7816664;-0.29000
7819442;-0.29000
7822220;-0.26500
7824998;-0.26500
7827776;-0.27000
7830553;-0.28500
7833331;-0.28500
7836109;-0.27000
7838887;-0.25500
7841664;-0.25500
7844442;-0.26500
7847220;-0.27000
7849998;-0.27000
7852776;-0.26000
7855553;-0.24500
7858331;-0.25500
7861109;-0.27000
7863887;-0.27000
7866664;-0.26500
7869442;-0.26500
7872220;-0.25000
7874998;-0.25500
7877776;-0.26000
7880553;-0.25000
7883331;-0.24500
7886109;-0.23500
7888887;-0.22000
7891664;-0.22000
7894442;-0.21000
7897220;-0.21500
7899998;-0.21500
7902776;-0.20500
7905553;-0.17500
7908331;-0.18500
7911109;-0.18500
7913887;-0.19000
7916664;-0.18500
7919442;-0.15500
7922220;-0.14500
7924998;-0.14000
7927776;-0.14000
7930553;-0.15000
7933331;-0.16500
7936109;-0.15500
7938887;-0.16500
7941664;-0.16500
7944442;-0.17000
7947220;-0.17000
7949998;-0.17500
7952776;-0.18500
7955553;-0.16500
7958331;-0.15000
7961109;-0.14000
7963887;-0.15000
7966664;-0.18500
7969442;-0.19500
7972220;-0.19500
7974998;-0.22500
7977776;-0.24500
7980553;-0.27500
7983331;-0.29000
7986109;-0.27000
7988887;-0.28000
7991664;-0.28000
7994442;-0.28500
7997220;-0.28500
7999998;-0.29000
8002776;-0.28500
8005553;-0.28500
8008331;-0.27500
8011109;-0.27500
8013887;-0.28500
8016664;-0.28500
8019442;-0.27000
8022220;-0.27500
8024998;-0.28000
8027776;-0.28000
8030553;-0.29000
8033331;-0.29500
8036109;-0.29000
8038887;-0.29000
8041664;-0.29500
8044442;-0.29000
8047220;-0.28000
8049998;-0.29000
8052776;-0.30000
8055553;-0.31000
8058331;-0.36000
8061109;-0.41000
8063887;-0.44500
8066664;-0.46500
8069442;-0.50000
8072220;-0.52000
8074998;-0.50000
8077776;-0.39500
8080553;-0.27000
8083331;-0.11500
8086109;0.08000
8088887;0.33000
8091664;0.62000
8094442;0.87500
8097220;1.01000
8099998;1.09000
8102776;1.08000
8105553;0.93500
8108331;0.62500
8111109;0.24000
8113887;-0.10000
8116664;-0.32000
8119442;-0.41500
8122220;-0.42500
8124998;-0.39500
8127776;-0.35500
8130553;-0.34000
8133331;-0.34500
8136109;-0.33500
8138887;-0.32000
8141664;-0.32000
8144442;-0.32000
8147220;-0.33000
8149998;-0.33500
8152775;-0.34500
8155553;-0.32500
8158331;-0.32500
8161109;-0.32500
8163887;-0.33500
8166664;-0.33000
8169442;-0.33500
8172220;-0.33000
8174998;-0.33000
8177775;-0.33500
8180553;-0.34000
8183331;-0.34500
8186109;-0.34000
8188887;-0.33000
8191664;-0.31000
8194442;-0.30500
8197220;-0.32500
8199998;-0.31500
8202775;-0.32500
8205553;-0.31500
8208331;-0.31000
8211109;-0.32000
8213887;-0.32500
8216664;-0.34000
8219442;-0.33500
8222220;-0.33000
8224998;-0.34500
8227775;-0.36500
8230553;-0.36500
8233331;-0.37500
8236109;-0.36000
8238887;-0.34500
8241664;-0.34000
8244442;-0.34000
8247220;-0.32500
8249998;-0.33000
8252775;-0.31500
8255553;-0.33000
8258331;-0.33500
8261109;-0.33500
8263887;-0.34500
8266664;-0.34000
8269442;-0.34000
8272220;-0.33500
8274998;-0.34000
8277775;-0.34000
8280553;-0.34500
8283331;-0.34000
8286109;-0.33500
8288887;-0.32000
8291664;-0.33000
8294442;-0.34000
8297220;-0.34000
8299998;-0.34000
8302775;-0.34000
8305553;-0.34500
8308331;-0.35500
8311109;-0.36000
8313887;-0.37000
8316664;-0.37500
8319442;-0.36000
8322220;-0.34500
8324998;-0.34500
8327775;-0.34500
8330553;-0.36500
8333331;-0.37000
8336109;-0.35000
8338887;-0.35000
8341664;-0.34000
8344442;-0.33000
8347220;-0.35000
8349998;-0.35500
8352775;-0.36000
8355553;-0.37000
8358331;-0.37000
8361109;-0.36500
8363887;-0.37000
8366664;-0.37000
8369442;-0.36500
8372220;-0.36000
8374998;-0.37500
8377775;-0.38500
8380553;-0.38000
8383331;-0.39000
8386109;-0.38000
8388887;-0.37000
8391664;-0.36500
8394442;-0.37500
8397220;-0.36500
8399998;-0.37000
8402775;-0.34500
8405553;-0.32000
8408331;-0.32000
8411109;-0.31500
8413887;-0.30000
8416664;-0.30000
8419442;-0.28000
8422220;-0.25500
8424998;-0.24000
8427775;-0.23500
8430553;-0.24500
8433331;-0.25000
8436109;-0.24500
8438887;-0.23000
8441664;-0.22000
8444442;-0.23000
8447220;-0.23000
8449998;-0.23000
8452775;-0.22500
8455553;-0.21500
8458331;-0.21000
8461109;-0.21500
8463887;-0.23000
8466664;-0.23000
8469442;-0.23000
8472220;-0.22000
8474998;-0.22500
8477775;-0.24000
8480553;-0.25000
8483331;-0.25500
8486109;-0.25000
8488887;-0.24500
8491664;-0.23500
8494442;-0.23500
8497220;-0.23500
8499998;-0.22500
8502775;-0.22000
8505553;-0.22000
8508331;-0.22000
8511109;-0.22500
8513887;-0.24500
8516664;-0.24500
8519442;-0.24000
8522220;-0.23000
8524998;-0.23000
8527775;-0.24500
8530553;-0.26500
8533331;-0.25500
8536109;-0.26000
8538886;-0.25500
8541664;-0.25500
8544442;-0.26000
8547220;-0.27000
8549998;-0.25500
8552775;-0.25000
8555553;-0.24500
8558331;-0.25000
8561109;-0.28000
8563886;-0.28000
8566664;-0.27000
8569442;-0.26500
8572220;-0.25000
8574998;-0.24000
8577775;-0.26000
8580553;-0.27000
8583331;-0.28500
8586109;-0.27500
8588886;-0.26500
8591664;-0.26500
8594442;-0.26500
8597220;-0.27000
8599998;-0.27000
8602775;-0.26500
8605553;-0.25500
8608331;-0.25500
8611109;-0.26000
8613886;-0.27000
8616664;-0.27500
8619442;-0.27000
8622220;-0.26500
8624998;-0.26500
8627775;-0.28000
8630553;-0.27500
8633331;-0.28000
8636109;-0.26500
8638886;-0.26500
8641664;-0.26000
8644442;-0.27500
8647220;-0.27000
8649998;-0.27000
8652775;-0.28500
8655553;-0.26500
8658331;-0.25000
8661109;-0.26000
8663886;-0.27000
8666664;-0.27500
8669442;-0.27000
8672220;-0.26500
8674998;-0.26000
8677775;-0.26500
8680553;-0.27000
8683331;-0.27000
8686109;-0.24500
8688886;-0.24000
8691664;-0.24000
8694442;-0.25000
8697220;-0.26500
8699998;-0.25500
8702775;-0.25000
8705553;-0.23000
8708331;-0.22500
8711109;-0.21500
8713886;-0.21500
8716664;-0.22000
8719442;-0.21000
8722220;-0.21000
8724998;-0.21500
8727775;-0.21500
8730553;-0.20500
8733331;-0.19500
8736109;-0.16500
8738886;-0.15000
8741664;-0.14500
8744442;-0.14500
8747220;-0.17000
8749998;-0.20000
8752775;-0.18500
8755553;-0.16500
8758331;-0.15500
8761109;-0.17000
8763886;-0.17500
8766664;-0.19000
8769442;-0.18000
8772220;-0.17500
8774998;-0.17500
8777775;-0.17500
8780553;-0.17500
8783331;-0.18000
8786109;-0.20000
8788886;-0.21500
8791664;-0.24500
8794442;-0.27000
8797220;-0.28000
8799998;-0.28000
8802775;-0.28000
8805553;-0.27500
8808331;-0.28500
8811109;-0.27500
8813886;-0.29000
8816664;-0.28500
8819442;-0.28000
8822220;-0.26500
8824998;-0.28500
8827775;-0.29500
8830553;-0.31500
8833331;-0.30000
8836109;-0.30500
8838886;-0.30000
8841664;-0.29500
8844442;-0.30000
8847220;-0.30500
8849998;-0.31500
8852775;-0.30000
8855553;-0.29000
8858331;-0.30000
8861109;-0.30500
8863886;-0.31000
8866664;-0.30000
8869442;-0.29000
8872220;-0.27500
8874998;-0.27500
8877775;-0.27500
8880553;-0.29500
8883331;-0.31500
8886109;-0.35000
8888886;-0.37500
8891664;-0.41000
8894442;-0.43000
8897220;-0.46500
8899998;-0.50000
8902775;-0.47500
8905553;-0.37000
8908331;-0.23500
8911109;-0.07500
8913886;0.08500
8916664;0.31500
8919442;0.57500
8922220;0.82000
8924998;0.99000
8927775;1.06000
8930553;0.99000
8933331;0.71500
8936109;0.33500
8938886;-0.04500
8941664;-0.30500
8944442;-0.40000
8947220;-0.43000
8949997;-0.40500
8952775;-0.37000
8955553;-0.33000
8958331;-0.33000
8961109;-0.33500
8963886;-0.34500
8966664;-0.34500
8969442;-0.33500
8972220;-0.33500
8974997;-0.34500
8977775;-0.33000
8980553;-0.33500
8983331;-0.34000
8986109;-0.33000
8988886;-0.32000
8991664;-0.32000
8994442;-0.33500
8997220;-0.33500
8999997;-0.34500
9002775;-0.34000
9005553;-0.33500
9008331;-0.34500
9011109;-0.34500
9013886;-0.37000
9016664;-0.36000
9019442;-0.35500
9022220;-0.34000
9024997;-0.35000
9027775;-0.34500
9030553;-0.36500
9033331;-0.36000
9036109;-0.35000
9038886;-0.34000
9041664;-0.34500
9044442;-0.35500
9047220;-0.35000
9049997;-0.36000
9052775;-0.35500
9055553;-0.34000
9058331;-0.34000
9061109;-0.34500
9063886;-0.34500
9066664;-0.36000
9069442;-0.34500
9072220;-0.34000
9074997;-0.32500
9077775;-0.34000
9080553;-0.36000
9083331;-0.36500
9086109;-0.35500
9088886;-0.34500
9091664;-0.37000
9094442;-0.36000
9097220;-0.37500
9099997;-0.37500
9102775;-0.36500
9105553;-0.36000
9108331;-0.36000
9111109;-0.36500
9113886;-0.38000
9116664;-0.36500
9119442;-0.36000
9122220;-0.34500
9124997;-0.35500
9127775;-0.36000
9130553;-0.37000
9133331;-0.37000
9136109;-0.36000
9138886;-0.35500
9141664;-0.35500
9144442;-0.35500
9147220;-0.37000
9149997;-0.37000
9152775;-0.37500
9155553;-0.37000
9158331;-0.37000
9161109;-0.38000
9163886;-0.38500
9166664;-0.39500
9169442;-0.39500
9172220;-0.39500
9174997;-0.40000
9177775;-0.41500
9180553;-0.43500
9183331;-0.43000
9186109;-0.42500
9188886;-0.41500
9191664;-0.41500
9194442;-0.43000
9197220;-0.43000
9199997;-0.45000
9202775;-0.44000
9205553;-0.43500
9208331;-0.43000
9211109;-0.44000
9213886;-0.44000
9216664;-0.43000
9219442;-0.42000
9222220;-0.42000
9224997;-0.41500
9227775;-0.42000
9230553;-0.41000
9233331;-0.40500
9236109;-0.38000
9238886;-0.36000
9241664;-0.35000
9244442;-0.34500
9247220;-0.34000
9249997;-0.33500
9252775;-0.31500
9255553;-0.29500
9258331;-0.28500
9261109;-0.29500
9263886;-0.29500
9266664;-0.28000
9269442;-0.27000
9272220;-0.27000
9274997;-0.26000
9277775;-0.26500
9280553;-0.27000
9283331;-0.26000
9286109;-0.25000
9288886;-0.24000
9291664;-0.24000
9294442;-0.24500
9297220;-0.25000
9299997;-0.26000
9302775;-0.24000
9305553;-0.22500
9308331;-0.23000
9311109;-0.23500
9313886;-0.25500
9316664;-0.25500
9319442;-0.24500
9322220;-0.25500
9324997;-0.25000
9327775;-0.25500
9330553;-0.26000
9333331;-0.26000
9336108;-0.25500
9338886;-0.24500
9341664;-0.24500
9344442;-0.25000
9347220;-0.25500
9349997;-0.26000
9352775;-0.25500
9355553;-0.24000
9358331;-0.24500
9361108;-0.26000
9363886;-0.26500
9366664;-0.27000
9369442;-0.26000
9372220;-0.24500
9374997;-0.26000
9377775;-0.26000
9380553;-0.27000
9383331;-0.28000
9386108;-0.27000
9388886;-0.27000
9391664;-0.28500
9394442;-0.29000
9397220;-0.29000
9399997;-0.29500
9402775;-0.29000
9405553;-0.27500
9408331;-0.27500
9411108;-0.28500
9413886;-0.28500
9416664;-0.28500
9419442;-0.28500
9422220;-0.27000
9424997;-0.27500
9427775;-0.29000
9430553;-0.28500
9433331;-0.30000
9436108;-0.28500
9438886;-0.28000
9441664;-0.27500
9444442;-0.28000
9447220;-0.28000
9449997;-0.29500
9452775;-0.28500
9455553;-0.27500
9458331;-0.27000
9461108;-0.27000
9463886;-0.28000
9466664;-0.27500
9469442;-0.27000
9472220;-0.26500
9474997;-0.26000
9477775;-0.28000
9480553;-0.28000
9483331;-0.27500
9486108;-0.27000
9488886;-0.25500
9491664;-0.26000
9494442;-0.27000
9497220;-0.27500
9499997;-0.27500
9502775;-0.27000
9505553;-0.26000
9508331;-0.26500
9511108;-0.27000
9513886;-0.28000
9516664;-0.28500
9519442;-0.28000
9522220;-0.27000
9524997;-0.27500
9527775;-0.27000
9530553;-0.28000
9533331;-0.27500
9536108;-0.27500
9538886;-0.26000
9541664;-0.26000
9544442;-0.25000
9547220;-0.26000
9549997;-0.27000
9552775;-0.25500
9555553;-0.25000
9558331;-0.25000
9561108;-0.24500
9563886;-0.25000
9566664;-0.23000
9569442;-0.21000
9572220;-0.19000
9574997;-0.19000
9577775;-0.18500
9580553;-0.19500
9583331;-0.20500
9586108;-0.18500
9588886;-0.18000
9591664;-0.16000
9594442;-0.17500
9597220;-0.17500
9599997;-0.16500
9602775;-0.16000
9605553;-0.15000
9608331;-0.16500
9611108;-0.16000
9613886;-0.17000
9616664;-0.18500
9619442;-0.17500
9622220;-0.15500
9624997;-0.15000
9627775;-0.17500
9630553;-0.18500
9633331;-0.19000
9636108;-0.15000
9638886;-0.12500
9641664;-0.11000
9644442;-0.12000
9647220;-0.16000
9649997;-0.18500
9652775;-0.20000
9655553;-0.21000
9658331;-0.20000
9661108;-0.20500
9663886;-0.22500
9666664;-0.24000
9669442;-0.24000
9672220;-0.25500
9674997;-0.26000
9677775;-0.28000
9680553;-0.29000
9683331;-0.30000
9686108;-0.29000
9688886;-0.27500
9691664;-0.28500
9694442;-0.29000
9697220;-0.29500
9699997;-0.30500
9702775;-0.28500
9705553;-0.28000
9708331;-0.28500
9711108;-0.30000
9713886;-0.29500
9716664;-0.30000
9719442;-0.29000
9722220;-0.28000
9724997;-0.28000
9727775;-0.29000
9730553;-0.30000
9733331;-0.29000
9736108;-0.30000
9738886;-0.30000
9741664;-0.33500
9744442;-0.37000
9747219;-0.41500
9749997;-0.45000
9752775;-0.47000
9755553;-0.49500
9758331;-0.49000
9761108;-0.42000
9763886;-0.28500
9766664;-0.10000
9769442;0.10500
9772219;0.33000
9774997;0.61000
9777775;0.89500
9780553;1.11000
9783331;1.22500
9786108;1.20500
9788886;0.99500
9791664;0.55500
9794442;0.06500
9797219;-0.27000
9799997;-0.39500
9802775;-0.38000
9805553;-0.32500
9808331;-0.28000
9811108;-0.28000
9813886;-0.30500
9816664;-0.31500
9819442;-0.31500
9822219;-0.31500
9824997;-0.30500
9827775;-0.32000
9830553;-0.33500
9833331;-0.33500
9836108;-0.33000
9838886;-0.31500
9841664;-0.32000
9844442;-0.32500
9847219;-0.33000
9849997;-0.35000
9852775;-0.34000
9855553;-0.31500
9858331;-0.32500
9861108;-0.33000
9863886;-0.32500
9866664;-0.32500
9869442;-0.33000
9872219;-0.32000
9874997;-0.32000
9877775;-0.31500
9880553;-0.32500
9883331;-0.33500
9886108;-0.32000
9888886;-0.32000
9891664;-0.31500
9894442;-0.33000
9897219;-0.33000
9899997;-0.33500
9902775;-0.32000
9905553;-0.32000
9908331;-0.33000
9911108;-0.32500
9913886;-0.34000
9916664;-0.33500
9919442;-0.32000
9922219;-0.31000
9924997;-0.31000
9927775;-0.31500
9930553;-0.31500
9933331;-0.34000
9936108;-0.31500
9938886;-0.30500
9941664;-0.30000
9944442;-0.31500
9947219;-0.32500
9949997;-0.32500
9952775;-0.32500
9955553;-0.31000
9958331;-0.30500
9961108;-0.31500
9963886;-0.32000
9966664;-0.33500
9969442;-0.32000
9972219;-0.33000
9974997;-0.32500
9977775;-0.33500
9980553;-0.34500
9983331;-0.34500
9986108;-0.33000
9988886;-0.32500
9991664;-0.32000
9994442;-0.34500
9997219;-0.33000
9999997;-0.34500
10002775;-0.33500
10005553;-0.32000
10008331;-0.32000
10011108;-0.32000
10013886;-0.33000
10016664;-0.32500
10019442;-0.32500
10022219;-0.30500
10024997;-0.31000
10027775;-0.33000
10030553;-0.34000
10033331;-0.34500
10036108;-0.33500
10038886;-0.32500
10041664;-0.32000
10044442;-0.33500
10047219;-0.34000
10049997;-0.34500
10052775;-0.33000
10055553;-0.34500
10058331;-0.33500
10061108;-0.33500
10063886;-0.35500
10066664;-0.35500
10069442;-0.35500
10072219;-0.33500
10074997;-0.33500
10077775;-0.34000
10080553;-0.34500
10083331;-0.34500
10086108;-0.33500
10088886;-0.31500
10091664;-0.30500
10094442;-0.29500
10097219;-0.28500
10099997;-0.28000
10102775;-0.25000
10105553;-0.23500
10108331;-0.23000
10111108;-0.23000
10113886;-0.24000
10116664;-0.22000
10119442;-0.20500
10122219;-0.19000
10124997;-0.20500
10127775;-0.19500
10130553;-0.19500
10133330;-0.21000
10136108;-0.20000
10138886;-0.18500
10141664;-0.19000
10144442;-0.18500
10147219;-0.20000
10149997;-0.20000
10152775;-0.19000
10155553;-0.19000
10158330;-0.19500
10161108;-0.20000
10163886;-0.20500
10166664;-0.21500
10169442;-0.21000
10172219;-0.20000
10174997;-0.19500
10177775;-0.20000
10180553;-0.19500
10183330;-0.20000
10186108;-0.20500
10188886;-0.19500
10191664;-0.18500
10194442;-0.19000
10197219;-0.20000
10199997;-0.20000
10202775;-0.19500
10205553;-0.18500
10208330;-0.19000
10211108;-0.20000
10213886;-0.21500
10216664;-0.21500
10219442;-0.20500
10222219;-0.20000
10224997;-0.20000
10227775;-0.21000
10230553;-0.21500
10233330;-0.21500
10236108;-0.22500
10238886;-0.21000
10241664;-0.21500
10244442;-0.22000
10247219;-0.23500
10249997;-0.24000
10252775;-0.23500
10255553;-0.24000
10258330;-0.23000
10261108;-0.24000
10263886;-0.24000
10266664;-0.25500
10269442;-0.24000
10272219;-0.22500
10274997;-0.22500
10277775;-0.23000
10280553;-0.24000
10283330;-0.24000
10286108;-0.22500
10288886;-0.24000
10291664;-0.23000
10294442;-0.24000
10297219;-0.24000
10299997;-0.25000
10302775;-0.24500
10305553;-0.23000
10308330;-0.23000
10311108;-0.24000
10313886;-0.24500
10316664;-0.25000
10319442;-0.24500
10322219;-0.24500
10324997;-0.24500
10327775;-0.24500
10330553;-0.25500
10333330;-0.26500
10336108;-0.26000
10338886;-0.25500
10341664;-0.23500
10344442;-0.23500
10347219;-0.26000
10349997;-0.24500
10352775;-0.24500
10355553;-0.23000
10358330;-0.23000
10361108;-0.23500
10363886;-0.25000
10366664;-0.23500
10369442;-0.24000
10372219;-0.22500
10374997;-0.22000
10377775;-0.22000
10380553;-0.22500
10383330;-0.23500
10386108;-0.23500
10388886;-0.22500
10391664;-0.23000
10394442;-0.22500
10397219;-0.23000
10399997;-0.24000
10402775;-0.22000
10405553;-0.21500
10408330;-0.21000
10411108;-0.21500
10413886;-0.20500
10416664;-0.19500
10419442;-0.17500
10422219;-0.15500
10424997;-0.15000
10427775;-0.16000
10430553;-0.15500
10433330;-0.15000
10436108;-0.15500
10438886;-0.12000
10441664;-0.11000
10444442;-0.11500
10447219;-0.13000
10449997;-0.13000
10452775;-0.13000
10455553;-0.12500
10458330;-0.13000
10461108;-0.15000
10463886;-0.15000
10466664;-0.16000
10469442;-0.14000
10472219;-0.12500
10474997;-0.12500
10477775;-0.14500
10480553;-0.14500
10483330;-0.14500
10486108;-0.10500
10488886;-0.08500
10491664;-0.11000
10494442;-0.14000
10497219;-0.17000
10499997;-0.19000
10502775;-0.19500
10505553;-0.21000
10508330;-0.21500
10511108;-0.23500
10513886;-0.24000
10516664;-0.26500
10519441;-0.25500
10522219;-0.24500
10524997;-0.23500
10527775;-0.24000
10530553;-0.26000
10533330;-0.25000
10536108;-0.25500
10538886;-0.24500
10541664;-0.23500
10544441;-0.23500
10547219;-0.25000
10549997;-0.25500
10552775;-0.25500
10555553;-0.25000
10558330;-0.25500
10561108;-0.26500
10563886;-0.25000
10566664;-0.26000
10569441;-0.25000
10572219;-0.24500
10574997;-0.23500
10577775;-0.25000
10580553;-0.25500
10583330;-0.26000
10586108;-0.26000
10588886;-0.28500
10591664;-0.32500
10594441;-0.37500
10597219;-0.41500
10599997;-0.44500
10602775;-0.48500
10605553;-0.45500
10608330;-0.36500
10611108;-0.21500
10613886;-0.03500
10616664;0.17500
10619441;0.42500
10622219;0.72500
10624997;0.99500
10627775;1.16000
10630553;1.20500
10633330;1.09500
10636108;0.76500
10638886;0.33500
10641664;-0.08000
10644441;-0.32500
10647219;-0.38500
10649997;-0.34000
10652775;-0.27500
10655553;-0.24500
10658330;-0.25000
10661108;-0.27500
10663886;-0.28000
10666664;-0.28500
10669441;-0.28000
10672219;-0.27500
10674997;-0.28500
10677775;-0.30000
10680553;-0.30500
10683330;-0.30500
10686108;-0.30500
10688886;-0.30000
10691664;-0.28000
10694441;-0.30500
10697219;-0.30500
10699997;-0.30000
10702775;-0.30000
10705553;-0.28500
10708330;-0.27500
10711108;-0.28000
10713886;-0.27000
10716664;-0.28500
10719441;-0.28000
10722219;-0.27500
10724997;-0.26000
10727775;-0.26500
10730553;-0.27500
10733330;-0.27000
10736108;-0.27000
10738886;-0.26500
10741664;-0.26500
10744441;-0.28000
10747219;-0.29500
10749997;-0.28500
10752775;-0.28500
10755553;-0.28500
10758330;-0.28500
10761108;-0.28500
10763886;-0.30000
10766664;-0.30000
10769441;-0.30000
10772219;-0.29000
10774997;-0.28000
10777775;-0.28000
10780553;-0.28500
10783330;-0.29000
10786108;-0.28500
10788886;-0.27500
10791664;-0.27000
10794441;-0.28000
10797219;-0.29000
10799997;-0.29500
10802775;-0.29500
10805553;-0.28500
10808330;-0.29000
10811108;-0.28000
10813886;-0.29000
10816664;-0.28500
10819441;-0.28500
10822219;-0.27500
10824997;-0.27500
10827775;-0.29500
10830553;-0.30000
10833330;-0.30500
10836108;-0.29500
10838886;-0.28500
10841664;-0.29000
10844441;-0.29500
10847219;-0.30000
10849997;-0.30500
10852775;-0.29500
10855553;-0.29000
10858330;-0.28500
10861108;-0.29000
10863886;-0.29500
10866664;-0.29500
10869441;-0.30000
10872219;-0.29500
10874997;-0.29000
10877775;-0.29000
10880553;-0.30500
10883330;-0.30500
10886108;-0.30000
10888886;-0.29500
10891664;-0.29000
10894441;-0.30000
10897219;-0.31000
10899997;-0.31500
10902775;-0.30000
10905553;-0.28000
10908330;-0.28000
10911108;-0.28000
10913886;-0.28000
10916664;-0.28000
10919441;-0.25500
10922219;-0.24000
10924997;-0.23000
10927775;-0.23000
10930552;-0.23000
10933330;-0.21000
10936108;-0.20000
10938886;-0.19000
10941664;-0.18000
10944441;-0.18000
10947219;-0.18500
10949997;-0.17500
10952775;-0.17000
10955552;-0.15500
10958330;-0.14500
10961108;-0.16500
10963886;-0.17500
10966664;-0.17000
10969441;-0.15000
10972219;-0.15000
10974997;-0.14500
10977775;-0.16000
10980552;-0.17000
10983330;-0.17000
10986108;-0.17000
10988886;-0.16000
10991664;-0.16000
10994441;-0.16500
10997219;-0.16500
10999997;-0.18500
11002775;-0.18000
11005552;-0.16000
11008330;-0.16000
11011108;-0.16000
11013886;-0.16000
11016664;-0.17000
11019441;-0.17000
11022219;-0.15000
11024997;-0.15500
11027775;-0.16500
11030552;-0.17500
11033330;-0.18000
11036108;-0.18500
11038886;-0.18500
11041664;-0.17000
11044441;-0.18500
11047219;-0.19500
11049997;-0.21000
11052775;-0.21000
11055552;-0.19500
11058330;-0.19000
11061108;-0.20000
11063886;-0.21000
11066664;-0.21500
11069441;-0.21000
11072219;-0.20000
11074997;-0.20500
11077775;-0.19500
11080552;-0.19500
11083330;-0.21500
11086108;-0.20500
11088886;-0.19500
11091664;-0.20500
11094441;-0.20500
11097219;-0.20500
11099997;-0.21500
11102775;-0.21500
11105552;-0.20000
11108330;-0.20000
11111108;-0.21000
11113886;-0.21500
11116664;-0.23000
11119441;-0.21500
11122219;-0.22000
11124997;-0.22000
11127775;-0.22500
11130552;-0.23500
11133330;-0.24500
11136108;-0.23000
11138886;-0.22000
11141664;-0.22000
11144441;-0.22000
11147219;-0.22000
11149997;-0.23000
11152775;-0.22000
11155552;-0.22000
11158330;-0.21000
11161108;-0.21000
11163886;-0.21500
11166664;-0.22500
11169441;-0.22500
11172219;-0.21000
11174997;-0.21000
11177775;-0.21500
11180552;-0.22000
11183330;-0.23500
11186108;-0.21500
11188886;-0.21000
11191664;-0.20500
11194441;-0.21000
11197219;-0.22000
11199997;-0.23000
11202775;-0.22000
11205552;-0.22000
11208330;-0.21000
11211108;-0.20500
11213886;-0.23000
11216664;-0.23000
11219441;-0.22500
11222219;-0.21500
11224997;-0.20500
11227775;-0.20000
11230552;-0.21000
11233330;-0.20500
11236108;-0.18500
11238886;-0.16000
11241664;-0.14500
11244441;-0.13000
11247219;-0.13500
11249997;-0.13500
11252775;-0.14500
11255552;-0.13000
11258330;-0.12000
11261108;-0.12500
11263886;-0.11500
11266664;-0.11500
11269441;-0.09500
11272219;-0.09000
11274997;-0.09500
11277775;-0.08000
11280552;-0.09000
11283330;-0.11000
11286108;-0.09000
11288886;-0.09000
11291664;-0.09000
11294441;-0.10500
11297219;-0.11500
11299997;-0.13000
11302775;-0.11500
11305552;-0.10000
11308330;-0.09000
11311108;-0.09500
11313886;-0.12500
11316663;-0.11500
11319441;-0.09000
11322219;-0.06000
11324997;-0.06000
11327775;-0.11500
11330552;-0.13500
11333330;-0.16500
11336108;-0.17500
11338886;-0.19000
11341663;-0.20500
11344441;-0.20000
11347219;-0.22000
11349997;-0.24000
11352775;-0.23000
11355552;-0.22500
11358330;-0.21000
11361108;-0.22000
11363886;-0.22000
11366663;-0.22500
11369441;-0.22000
11372219;-0.21500
11374997;-0.22000
11377775;-0.22500
11380552;-0.23500
11383330;-0.25000
11386108;-0.24000
11388886;-0.23000
11391663;-0.22500
11394441;-0.23500
11397219;-0.25000
11399997;-0.25000
11402775;-0.24500
11405552;-0.24500
11408330;-0.26500
11411108;-0.31000
11413886;-0.35000
11416663;-0.37500
11419441;-0.42000
11422219;-0.43000
11424997;-0.44500
11427775;-0.37500
11430552;-0.25000
11433330;-0.08000
11436108;0.10000
11438886;0.33000
11441663;0.60000
11444441;0.85500
11447219;1.04500
11449997;1.12500
11452775;1.05000
11455552;0.78500
11458330;0.37500
11461108;-0.04500
11463886;-0.30000
11466663;-0.38500
11469441;-0.37000
11472219;-0.32500
11474997;-0.28500
11477775;-0.26000
11480552;-0.27500
11483330;-0.29000
11486108;-0.28000
11488886;-0.25500
11491663;-0.25500
11494441;-0.26000
11497219;-0.26000
11499997;-0.26000
11502775;-0.27000
11505552;-0.26500
11508330;-0.27000
11511108;-0.27000
11513886;-0.28000
11516663;-0.29500
11519441;-0.28500
11522219;-0.27000
11524997;-0.26500
11527775;-0.28000
11530552;-0.27500
11533330;-0.28500
11536108;-0.27500
11538886;-0.26000
11541663;-0.25500
11544441;-0.28000
11547219;-0.29000
11549997;-0.30000
11552775;-0.30000
11555552;-0.28000
11558330;-0.27500
11561108;-0.28500
11563886;-0.28500
11566663;-0.29000
11569441;-0.28500
11572219;-0.28000
11574997;-0.27000
11577775;-0.27500
11580552;-0.27500
11583330;-0.30000
11586108;-0.29500
11588886;-0.28500
11591663;-0.29500
11594441;-0.29000
11597219;-0.28500
11599997;-0.30000
11602775;-0.30500
11605552;-0.29000
11608330;-0.26500
11611108;-0.26000
11613886;-0.28500
11616663;-0.29000
11619441;-0.29000
11622219;-0.27500
11624997;-0.25500
11627775;-0.27000
11630552;-0.27000
11633330;-0.28000
11636108;-0.28000
11638886;-0.27000
11641663;-0.27000
11644441;-0.26000
11647219;-0.28000
11649997;-0.29500
11652775;-0.29000
11655552;-0.27500
11658330;-0.27000
11661108;-0.27500
11663886;-0.29000
11666663;-0.29500
11669441;-0.28500
11672219;-0.28000
11674997;-0.27000
11677775;-0.29000
11680552;-0.29000
11683330;-0.29500
11686108;-0.29500
11688886;-0.29500
11691663;-0.29000
11694441;-0.30000
11697219;-0.30500
11699997;-0.30000
11702775;-0.30500
11705552;-0.29000
11708330;-0.28000
11711108;-0.30000
11713886;-0.31000
11716663;-0.32000
11719441;-0.32000
11722219;-0.30000
11724997;-0.29000
11727774;-0.28500
11730552;-0.29500
11733330;-0.29500
11736108;-0.29500
11738886;-0.30000
11741663;-0.29500
11744441;-0.29000
11747219;-0.30000
11749997;-0.31500
11752774;-0.29000
11755552;-0.28000
11758330;-0.25500
11761108;-0.25000
11763886;-0.24500
11766663;-0.24500
11769441;-0.24000
11772219;-0.22500
11774997;-0.19500
11777774;-0.18500
11780552;-0.18500
11783330;-0.19000
11786108;-0.19000
11788886;-0.18500
11791663;-0.18000
11794441;-0.18000
11797219;-0.19000
11799997;-0.18500
11802774;-0.18500
11805552;-0.18000
11808330;-0.18000
11811108;-0.20000
11813886;-0.20500
11816663;-0.20000
11819441;-0.19000
11822219;-0.18500
11824997;-0.19000
11827774;-0.19500
11830552;-0.19000
11833330;-0.20000
11836108;-0.19000
11838886;-0.18000
11841663;-0.17500
11844441;-0.18500
11847219;-0.21000
11849997;-0.21000
11852774;-0.21500
11855552;-0.21000
11858330;-0.20000
11861108;-0.20000
11863886;-0.20000
11866663;-0.21000
11869441;-0.20500
11872219;-0.19500
11874997;-0.19500
11877774;-0.21500
11880552;-0.22500
11883330;-0.22000
11886108;-0.22000
11888886;-0.22000
11891663;-0.21500
11894441;-0.22000
11897219;-0.24000
11899997;-0.24500
11902774;-0.24000
11905552;-0.22500
11908330;-0.21500
11911108;-0.23000
11913886;-0.24500
11916663;-0.25500
11919441;-0.25500
11922219;-0.25000
11924997;-0.23500
11927774;-0.23500
11930552;-0.23000
11933330;-0.25000
11936108;-0.24500
11938886;-0.23000
11941663;-0.23500
11944441;-0.24500
11947219;-0.24000
11949997;-0.26000
11952774;-0.26000
11955552;-0.25500
11958330;-0.25000
11961108;-0.24500
11963886;-0.25000
11966663;-0.25500
11969441;-0.25000
11972219;-0.23000
11974997;-0.23000
11977774;-0.23500
11980552;-0.24500
11983330;-0.25500
11986108;-0.24500
11988886;-0.24000
11991663;-0.26000
11994441;-0.27000
11997219;-0.27000
11999997;-0.28500
12002774;-0.26500
12005552;-0.25500
12008330;-0.24000
12011108;-0.25000
12013886;-0.25000
12016663;-0.26000
12019441;-0.25000
12022219;-0.24000
12024997;-0.23000
12027774;-0.24500
12030552;-0.24500
12033330;-0.24000
12036108;-0.22500
12038886;-0.21500
12041663;-0.21500
12044441;-0.20500
12047219;-0.20000
12049997;-0.20000
12052774;-0.19000
12055552;-0.17500
12058330;-0.16500
12061108;-0.17000
12063886;-0.18000
12066663;-0.19000
12069441;-0.17500
12072219;-0.15500
12074997;-0.13000
12077774;-0.13500
12080552;-0.13500
12083330;-0.14500
12086108;-0.14000
12088886;-0.12500
12091663;-0.12000
12094441;-0.13500
12097219;-0.14000
12099997;-0.16500
12102774;-0.16500
12105552;-0.15500
12108330;-0.15500
12111108;-0.14500
12113885;-0.13500
12116663;-0.14500
12119441;-0.16000
12122219;-0.16500
12124997;-0.19500
12127774;-0.21000
12130552;-0.22500
12133330;-0.25000
12136108;-0.25000
12138885;-0.25000
12141663;-0.25000
12144441;-0.25000
12147219;-0.27000
12149997;-0.28000
12152774;-0.28500
12155552;-0.27000
12158330;-0.27000
12161108;-0.27500
12163885;-0.28500
12166663;-0.29000
12169441;-0.28000
12172219;-0.26500
12174997;-0.25500
12177774;-0.26000
12180552;-0.27000
12183330;-0.28000
12186108;-0.28000
12188885;-0.28000
12191663;-0.28500
12194441;-0.29000
12197219;-0.29000
12199997;-0.29500
12202774;-0.28500
12205552;-0.27500
12208330;-0.26000
12211108;-0.28000
12213885;-0.31000
12216663;-0.37000
12219441;-0.38500
12222219;-0.40000
12224997;-0.43000
12227774;-0.48000
12230552;-0.45500
12233330;-0.35000
12236108;-0.17500
12238885;-0.00500
12241663;0.20000
12244441;0.43500
12247219;0.71500
12249997;0.95000
12252774;1.07500
12255552;1.07000
12258330;0.82500
12261108;0.39500
12263885;-0.04000
12266663;-0.31000
12269441;-0.40000
12272219;-0.39500
12274997;-0.36500
12277774;-0.33000
12280552;-0.30500
12283330;-0.31500
12286108;-0.30500
12288885;-0.31000
12291663;-0.30000
12294441;-0.30000
12297219;-0.29500
12299997;-0.30500
12302774;-0.30000
12305552;-0.28500
12308330;-0.30000
12311108;-0.29500
12313885;-0.31000
12316663;-0.31500
12319441;-0.31000
12322219;-0.31000
12324997;-0.30500
12327774;-0.30000
12330552;-0.32500
12333330;-0.33000
12336108;-0.31500
12338885;-0.31500
12341663;-0.31000
12344441;-0.31000
12347219;-0.30500
12349997;-0.31500
12352774;-0.30500
12355552;-0.30000
12358330;-0.30000
12361108;-0.31000
12363885;-0.33000
12366663;-0.33500
12369441;-0.32000
12372219;-0.30500
12374997;-0.30000
12377774;-0.30500
12380552;-0.31000
12383330;-0.33500
12386108;-0.33500
12388885;-0.32000
12391663;-0.32500
12394441;-0.32500
12397219;-0.33000
12399997;-0.34000
12402774;-0.32500
12405552;-0.32500
12408330;-0.30000
12411108;-0.30500
12413885;-0.31500
12416663;-0.33500
12419441;-0.32000
12422219;-0.31000
12424997;-0.31500
12427774;-0.30500
12430552;-0.32000
12433330;-0.33000
12436108;-0.31000
12438885;-0.30500
12441663;-0.29500
12444441;-0.30000
12447219;-0.31000
12449997;-0.33500
12452774;-0.33500
12455552;-0.31500
12458330;-0.31500
12461108;-0.32000
12463885;-0.33000
12466663;-0.34000
12469441;-0.33500
12472219;-0.33000
12474997;-0.33000
12477774;-0.33500
12480552;-0.33500
12483330;-0.34500
12486108;-0.35000
12488885;-0.35000
12491663;-0.35500
12494441;-0.36500
12497219;-0.37500
12499996;-0.38500
12502774;-0.38500
12505552;-0.37500
12508330;-0.38000
12511108;-0.38500
12513885;-0.39500
12516663;-0.40500
12519441;-0.40500
12522219;-0.39000
12524996;-0.37500
12527774;-0.37000
12530552;-0.37000
12533330;-0.36500
12536108;-0.34500
12538885;-0.31000
12541663;-0.30000
12544441;-0.27500
12547219;-0.27000
12549996;-0.26500
12552774;-0.25500
12555552;-0.23500
12558330;-0.22000
12561108;-0.21500
12563885;-0.20000
12566663;-0.20500
12569441;-0.20000
12572219;-0.20000
12574996;-0.18500
12577774;-0.18500
12580552;-0.20000
12583330;-0.20000
12586108;-0.18500
12588885;-0.18500
12591663;-0.18000
12594441;-0.18500
12597219;-0.19500
12599996;-0.21000
12602774;-0.21500
12605552;-0.19500
12608330;-0.19500
12611108;-0.20000
12613885;-0.20000
12616663;-0.21500
12619441;-0.19500
12622219;-0.20000
12624996;-0.18000
12627774;-0.18500
12630552;-0.20000
12633330;-0.20500
12636108;-0.20000
12638885;-0.19000
12641663;-0.18500
12644441;-0.19500
12647219;-0.19000
12649996;-0.20000
12652774;-0.20000
12655552;-0.21000
12658330;-0.21000
12661108;-0.21000
12663885;-0.21500
12666663;-0.23000
12669441;-0.22000
12672219;-0.21500
12674996;-0.21000
12677774;-0.21500
12680552;-0.21500
12683330;-0.23000
12686108;-0.22500
12688885;-0.21500
12691663;-0.21500
12694441;-0.23500
12697219;-0.25000
12699996;-0.24500
12702774;-0.24000
12705552;-0.23500
12708330;-0.22500
12711108;-0.23000
12713885;-0.24000
12716663;-0.25000
12719441;-0.24000
12722219;-0.23500
12724996;-0.24000
12727774;-0.24000
12730552;-0.24500
12733330;-0.26000
12736108;-0.24500
12738885;-0.24500
12741663;-0.23500
12744441;-0.23000
12747219;-0.23000
12749996;-0.24500
12752774;-0.24000
12755552;-0.22500
12758330;-0.22500
12761108;-0.23000
12763885;-0.23500
12766663;-0.25000
12769441;-0.24000
12772219;-0.23000
12774996;-0.22000
12777774;-0.22000
12780552;-0.24000
12783330;-0.25500
12786108;-0.23500
12788885;-0.23500
12791663;-0.22500
12794441;-0.22500
12797219;-0.24500
12799996;-0.25000
12802774;-0.23000
12805552;-0.23000
12808330;-0.23500
12811108;-0.23000
12813885;-0.23500
12816663;-0.24000
12819441;-0.24500
12822219;-0.22500
12824996;-0.22500
12827774;-0.23000
12830552;-0.22500
12833330;-0.23000
12836108;-0.20000
12838885;-0.18500
12841663;-0.16500
12844441;-0.15500
12847219;-0.15000
12849996;-0.16500
12852774;-0.14500
12855552;-0.13500
12858330;-0.13000
12861108;-0.11500
12863885;-0.12000
12866663;-0.13000
12869441;-0.12500
12872219;-0.11500
