time_ms;ecg_value
0;0.82000
2778;0.91000
5556;0.85500
8333;0.60500
11111;0.20000
13889;-0.18000
16667;-0.43500
19444;-0.53500
22222;-0.54000
25000;-0.50000
27778;-0.45000
30556;-0.42000
33333;-0.43500
36111;-0.44000
38889;-0.45500
41667;-0.44500
44444;-0.42500
47222;-0.41500
50000;-0.42000
52778;-0.43500
55556;-0.44000
58333;-0.43500
61111;-0.43500
63889;-0.43000
66667;-0.42000
69444;-0.44000
72222;-0.44500
75000;-0.44000
77778;-0.43000
80556;-0.41500
83333;-0.41500
86111;-0.42500
88889;-0.44500
91667;-0.44500
94444;-0.45000
97222;-0.43500
100000;-0.43000
102778;-0.44000
105556;-0.44500
108333;-0.44500
111111;-0.43000
113889;-0.43000
116667;-0.43000
119444;-0.44500
122222;-0.45000
125000;-0.44500
127778;-0.44500
130556;-0.43500
133333;-0.44000
136111;-0.44000
138889;-0.45500
141667;-0.44500
144444;-0.43500
147222;-0.43000
150000;-0.43500
152778;-0.44000
155556;-0.44500
158333;-0.44000
161111;-0.44000
163889;-0.44000
166667;-0.44000
169444;-0.44500
172222;-0.46000
175000;-0.44500
177778;-0.45500
180556;-0.43500
183333;-0.44500
186111;-0.45500
188889;-0.46000
191667;-0.46500
194444;-0.44500
197222;-0.43500
200000;-0.44000
202778;-0.43500
205555;-0.45000
208333;-0.44000
211111;-0.44000
213889;-0.44000
216667;-0.44000
219444;-0.45500
222222;-0.45500
225000;-0.46500
227778;-0.45500
230555;-0.45000
233333;-0.45000
236111;-0.46500
238889;-0.47000
241667;-0.49000
244444;-0.47000
247222;-0.46000
250000;-0.46500
252778;-0.49000
255555;-0.50000
258333;-0.49000
261111;-0.49000
263889;-0.48000
266667;-0.48500
269444;-0.49500
272222;-0.50500
275000;-0.50000
277778;-0.48500
280555;-0.47500
283333;-0.48500
286111;-0.49500
288889;-0.49500
291667;-0.48500
294444;-0.48500
297222;-0.46000
300000;-0.46000
302778;-0.46000
305555;-0.46000
308333;-0.44000
311111;-0.42000
313889;-0.39500
316667;-0.39500
319444;-0.38500
322222;-0.38000
325000;-0.37500
327778;-0.35500
330555;-0.34500
333333;-0.33000
336111;-0.33500
338889;-0.33500
341667;-0.32000
344444;-0.30500
347222;-0.30500
350000;-0.30500
352778;-0.31500
355555;-0.31500
358333;-0.30500
361111;-0.29500
363889;-0.30000
366667;-0.29500
369444;-0.30000
372222;-0.32000
375000;-0.31500
377778;-0.29500
380555;-0.30000
383333;-0.29500
386111;-0.30500
388889;-0.31000
391667;-0.30000
394444;-0.28500
397222;-0.28500
400000;-0.29500
402778;-0.30500
405555;-0.31500
408333;-0.30000
411111;-0.30500
413889;-0.30000
416667;-0.30500
419444;-0.30500
422222;-0.32500
425000;-0.33000
427778;-0.32500
430555;-0.31000
433333;-0.30000
436111;-0.31000
438889;-0.32500
441667;-0.31500
444444;-0.31000
447222;-0.30000
450000;-0.31000
452778;-0.32500
455555;-0.33000
458333;-0.33000
461111;-0.33000
463889;-0.32000
466667;-0.32000
469444;-0.32500
472222;-0.33000
475000;-0.33000
477778;-0.33500
480555;-0.33000
483333;-0.33500
486111;-0.34000
488889;-0.35000
491667;-0.34500
494444;-0.33500
497222;-0.33000
500000;-0.34000
502778;-0.33000
505555;-0.35500
508333;-0.34000
511111;-0.33500
513889;-0.32500
516667;-0.34000
519444;-0.33500
522222;-0.34500
525000;-0.34500
527778;-0.33500
530555;-0.33000
533333;-0.33500
536111;-0.34000
538889;-0.35000
541667;-0.34500
544444;-0.34000
547222;-0.33000
550000;-0.33500
552778;-0.33500
555555;-0.35000
558333;-0.35000
561111;-0.34000
563889;-0.33000
566667;-0.32500
569444;-0.33000
572222;-0.33500
575000;-0.35000
577778;-0.33500
580555;-0.33000
583333;-0.33000
586111;-0.34000
588889;-0.34000
591667;-0.34000
594444;-0.33500
597222;-0.32500
600000;-0.32000
602778;-0.33000
605555;-0.33500
608333;-0.33000
611111;-0.32000
613889;-0.32000
616666;-0.32000
619444;-0.32000
622222;-0.33000
625000;-0.31000
627778;-0.30000
630555;-0.27000
633333;-0.26500
636111;-0.25500
638889;-0.27500
641666;-0.26000
644444;-0.25000
647222;-0.23500
650000;-0.22500
652778;-0.23000
655555;-0.22500
658333;-0.22500
661111;-0.22000
663889;-0.20000
666666;-0.21000
669444;-0.22000
672222;-0.23000
675000;-0.23500
677778;-0.23500
680555;-0.23000
683333;-0.22000
686111;-0.23000
688889;-0.24500
691666;-0.26500
694444;-0.23500
697222;-0.21500
700000;-0.19500
702778;-0.19500
705555;-0.23500
708333;-0.26500
711111;-0.27000
713889;-0.28000
716666;-0.29500
719444;-0.30500
722222;-0.33000
725000;-0.34000
727778;-0.34000
730555;-0.32500
733333;-0.33500
736111;-0.35000
738889;-0.36000
741666;-0.34500
744444;-0.34000
747222;-0.33500
750000;-0.33500
752778;-0.34000
755555;-0.36000
758333;-0.35500
761111;-0.34000
763889;-0.34000
766666;-0.35000
769444;-0.36000
772222;-0.36500
775000;-0.37000
777778;-0.35500
780555;-0.35000
783333;-0.35500
786111;-0.36000
788889;-0.38000
791666;-0.36500
794444;-0.36000
797222;-0.37000
800000;-0.38000
802778;-0.43500
805555;-0.49000
808333;-0.49500
811111;-0.50500
813889;-0.52500
816666;-0.54500
819444;-0.53500
822222;-0.44500
825000;-0.27000
827778;-0.07500
830555;0.13000
833333;0.39000
836111;0.67000
838889;0.91000
841666;1.06500
844444;1.11000
847222;0.95000
850000;0.57000
852778;0.08500
855555;-0.30000
858333;-0.50500
861111;-0.54000
863889;-0.50000
866666;-0.46500
869444;-0.45000
872222;-0.42000
875000;-0.40000
877778;-0.38000
880555;-0.38500
883333;-0.39000
886111;-0.40000
888889;-0.41000
891666;-0.41000
894444;-0.41000
897222;-0.40500
900000;-0.40500
902778;-0.40000
905555;-0.41000
908333;-0.40500
911111;-0.40500
913889;-0.40000
916666;-0.40500
919444;-0.41000
922222;-0.42500
925000;-0.41500
927778;-0.40000
930555;-0.40000
933333;-0.40500
936111;-0.41500
938889;-0.42000
941666;-0.42000
944444;-0.41500
947222;-0.39500
950000;-0.40000
952778;-0.41000
955555;-0.42000
958333;-0.41500
961111;-0.41500
963889;-0.39000
966666;-0.40000
969444;-0.41500
972222;-0.41500
975000;-0.41500
977778;-0.41500
980555;-0.40500
983333;-0.40500
986111;-0.42000
988889;-0.43000
991666;-0.42500
994444;-0.41500
997222;-0.40000
1000000;-0.40500
1002777;-0.42000
1005555;-0.42000
1008333;-0.42500
1011111;-0.42000
1013889;-0.41000
1016666;-0.41000
1019444;-0.41500
1022222;-0.43000
1025000;-0.41500
1027777;-0.40000
1030555;-0.39500
1033333;-0.40500
1036111;-0.41500
1038889;-0.42000
1041666;-0.42500
1044444;-0.41000
1047222;-0.41000
1050000;-0.41500
1052777;-0.42000
1055555;-0.43500
1058333;-0.43000
1061111;-0.42000
1063889;-0.41000
1066666;-0.42000
1069444;-0.44000
1072222;-0.43500
1075000;-0.43000
1077777;-0.42000
1080555;-0.41500
1083333;-0.42000
1086111;-0.43000
1088889;-0.44000
1091666;-0.44500
1094444;-0.42500
1097222;-0.42000
1100000;-0.42500
1102777;-0.41500
1105555;-0.43000
1108333;-0.41500
1111111;-0.40500
1113889;-0.40500
1116666;-0.38500
1119444;-0.40000
1122222;-0.40500
1125000;-0.38500
1127777;-0.36500
1130555;-0.35500
1133333;-0.34000
1136111;-0.34000
1138889;-0.33000
1141666;-0.33000
1144444;-0.32000
1147222;-0.31500
1150000;-0.31000
1152777;-0.31000
1155555;-0.32000
1158333;-0.31000
1161111;-0.31500
1163889;-0.28500
1166666;-0.28500
1169444;-0.29000
1172222;-0.29500
1175000;-0.29500
1177777;-0.29000
1180555;-0.28500
1183333;-0.27500
1186111;-0.28000
1188889;-0.30500
1191666;-0.29000
1194444;-0.28500
1197222;-0.27500
1200000;-0.28500
1202777;-0.29000
1205555;-0.30500
1208333;-0.29000
1211111;-0.29500
1213889;-0.27500
1216666;-0.28500
1219444;-0.29500
1222222;-0.30500
1225000;-0.30000
1227777;-0.29500
1230555;-0.30000
1233333;-0.29000
1236111;-0.30000
1238889;-0.31000
1241666;-0.32000
1244444;-0.30500
1247222;-0.30500
1250000;-0.29500
1252777;-0.32000
1255555;-0.32000
1258333;-0.32500
1261111;-0.31500
1263889;-0.31000
1266666;-0.32500
1269444;-0.33000
1272222;-0.32500
1275000;-0.33000
1277777;-0.33500
1280555;-0.33500
1283333;-0.33000
1286111;-0.34000
1288889;-0.35000
1291666;-0.34500
1294444;-0.34500
1297222;-0.33500
1300000;-0.33500
1302777;-0.35000
1305555;-0.35000
1308333;-0.35500
1311111;-0.35000
1313889;-0.34500
1316666;-0.34500
1319444;-0.35500
1322222;-0.36000
1325000;-0.36000
1327777;-0.36000
1330555;-0.34000
1333333;-0.35000
1336111;-0.36000
1338889;-0.36500
1341666;-0.36000
1344444;-0.36000
1347222;-0.35000
1350000;-0.34000
1352777;-0.36000
1355555;-0.36000
1358333;-0.36000
1361111;-0.34500
1363889;-0.35000
1366666;-0.34500
1369444;-0.35000
1372222;-0.36500
1375000;-0.37000
1377777;-0.35000
1380555;-0.34000
1383333;-0.34000
1386111;-0.34500
1388888;-0.34500
1391666;-0.34000
1394444;-0.33500
1397222;-0.33500
1400000;-0.33500
1402777;-0.33500
1405555;-0.34500
1408333;-0.33500
1411111;-0.32000
1413888;-0.31500
1416666;-0.29500
1419444;-0.29500
1422222;-0.29500
1425000;-0.28500
1427777;-0.27000
1430555;-0.27000
1433333;-0.26000
1436111;-0.26000
1438888;-0.25000
1441666;-0.25500
1444444;-0.24000
1447222;-0.23000
1450000;-0.22500
1452777;-0.23500
1455555;-0.24500
1458333;-0.25500
1461111;-0.25000
1463888;-0.25000
1466666;-0.26000
1469444;-0.25500
1472222;-0.28000
1475000;-0.27500
1477777;-0.27500
1480555;-0.24500
1483333;-0.22000
1486111;-0.22500
1488888;-0.25000
1491666;-0.28000
1494444;-0.30000
1497222;-0.30500
1500000;-0.31500
1502777;-0.33500
1505555;-0.35500
1508333;-0.37500
1511111;-0.35500
1513888;-0.36000
1516666;-0.36500
1519444;-0.36500
1522222;-0.38000
1525000;-0.38500
1527777;-0.37000
1530555;-0.36000
1533333;-0.37000
1536111;-0.37500
1538888;-0.38000
1541666;-0.38500
1544444;-0.38500
1547222;-0.37500
1550000;-0.38000
1552777;-0.38500
1555555;-0.39000
1558333;-0.39500
1561111;-0.37000
1563888;-0.37000
1566666;-0.38000
1569444;-0.38000
1572222;-0.39000
1575000;-0.39500
1577777;-0.40000
1580555;-0.41500
1583333;-0.46500
1586111;-0.50500
1588888;-0.52000
1591666;-0.52500
1594444;-0.56500
1597222;-0.57500
1600000;-0.54000
1602777;-0.42500
1605555;-0.28000
1608333;-0.10000
1611111;0.10000
1613888;0.35000
1616666;0.64000
1619444;0.84500
1622222;0.94500
1625000;0.96000
1627777;0.79000
1630555;0.43000
1633333;-0.04000
1636111;-0.38500
1638888;-0.52500
1641666;-0.49500
1644444;-0.43000
1647222;-0.39000
1650000;-0.38000
1652777;-0.42000
1655555;-0.42500
1658333;-0.42500
1661111;-0.41000
1663888;-0.40500
1666666;-0.41500
1669444;-0.42500
1672222;-0.44500
1675000;-0.43500
1677777;-0.42500
1680555;-0.42000
1683333;-0.43000
1686111;-0.42500
1688888;-0.43500
1691666;-0.42500
1694444;-0.43000
1697222;-0.42000
1700000;-0.42000
1702777;-0.42000
1705555;-0.44000
1708333;-0.43500
1711111;-0.42500
1713888;-0.42000
1716666;-0.42000
1719444;-0.42500
1722222;-0.44000
1725000;-0.44000
1727777;-0.43000
1730555;-0.42000
1733333;-0.42500
1736111;-0.43500
1738888;-0.44500
1741666;-0.44500
1744444;-0.43000
1747222;-0.41500
1750000;-0.42000
1752777;-0.42000
1755555;-0.43500
1758333;-0.44000
1761111;-0.43500
1763888;-0.42000
1766666;-0.43000
1769444;-0.42000
1772222;-0.44000
1775000;-0.43500
1777777;-0.44000
1780555;-0.42500
1783333;-0.42000
1786111;-0.45000
1788888;-0.46500
1791666;-0.44500
1794444;-0.45000
1797222;-0.42500
1799999;-0.43000
1802777;-0.45000
1805555;-0.44500
1808333;-0.44000
1811111;-0.43000
1813888;-0.42500
1816666;-0.42000
1819444;-0.42500
1822222;-0.43000
1824999;-0.43000
1827777;-0.43000
1830555;-0.42000
1833333;-0.43000
1836111;-0.43500
1838888;-0.45000
1841666;-0.44500
1844444;-0.44500
1847222;-0.44000
1849999;-0.43000
1852777;-0.44500
1855555;-0.46000
1858333;-0.45000
1861111;-0.46500
1863888;-0.44500
1866666;-0.45000
1869444;-0.44500
1872222;-0.45500
1874999;-0.45000
1877777;-0.44500
1880555;-0.43000
1883333;-0.44000
1886111;-0.44000
1888888;-0.44000
1891666;-0.44000
1894444;-0.42500
1897222;-0.42500
1899999;-0.42000
1902777;-0.41000
1905555;-0.42000
1908333;-0.40500
1911111;-0.39500
1913888;-0.38500
1916666;-0.36000
1919444;-0.37000
1922222;-0.36500
1924999;-0.36000
1927777;-0.33500
1930555;-0.32000
1933333;-0.32500
1936111;-0.33000
1938888;-0.33500
1941666;-0.32500
1944444;-0.32000
1947222;-0.32000
1949999;-0.31500
1952777;-0.32000
1955555;-0.34000
1958333;-0.33000
1961111;-0.32500
1963888;-0.32000
1966666;-0.32500
1969444;-0.32000
1972222;-0.33000
1974999;-0.32500
1977777;-0.33000
1980555;-0.32000
1983333;-0.32000
1986111;-0.33500
1988888;-0.34000
1991666;-0.35000
1994444;-0.34000
1997222;-0.33000
1999999;-0.32500
2002777;-0.34000
2005555;-0.35500
2008333;-0.35500
2011111;-0.34000
2013888;-0.34000
2016666;-0.34500
2019444;-0.35000
2022222;-0.36500
2024999;-0.37500
2027777;-0.36500
2030555;-0.35500
2033333;-0.36000
2036111;-0.37000
2038888;-0.37500
2041666;-0.36500
2044444;-0.36000
2047222;-0.34500
2049999;-0.35500
2052777;-0.36000
2055555;-0.37500
2058333;-0.36000
2061111;-0.37500
2063888;-0.36500
2066666;-0.35500
2069444;-0.36000
2072222;-0.37500
2074999;-0.37500
2077777;-0.37500
2080555;-0.37500
2083333;-0.37000
2086111;-0.38500
2088888;-0.39000
2091666;-0.39000
2094444;-0.37500
2097222;-0.37500
2099999;-0.37000
2102777;-0.36500
2105555;-0.38000
2108333;-0.39000
2111111;-0.37500
2113888;-0.37000
2116666;-0.36500
2119444;-0.38000
2122222;-0.39000
2124999;-0.38000
2127777;-0.38000
2130555;-0.36500
2133333;-0.37000
2136111;-0.37500
2138888;-0.38000
2141666;-0.37500
2144444;-0.37000
2147222;-0.36000
2149999;-0.36500
2152777;-0.38500
2155555;-0.39500
2158333;-0.39000
2161111;-0.38000
2163888;-0.37000
2166666;-0.35500
2169444;-0.36500
2172222;-0.36000
2174999;-0.37000
2177777;-0.36000
2180555;-0.34500
2183333;-0.34000
2186110;-0.32500
2188888;-0.33500
2191666;-0.32000
2194444;-0.31500
2197222;-0.29500
2199999;-0.29000
2202777;-0.30000
2205555;-0.29500
2208333;-0.28500
2211110;-0.27000
2213888;-0.26500
2216666;-0.26500
2219444;-0.27500
2222222;-0.29000
2224999;-0.28500
2227777;-0.27000
2230555;-0.27500
2233333;-0.28500
2236110;-0.28000
2238888;-0.29000
2241666;-0.28000
2244444;-0.28500
2247222;-0.29500
2249999;-0.30500
2252777;-0.32000
2255555;-0.33000
2258333;-0.31000
2261110;-0.28500
2263888;-0.26500
2266666;-0.26500
2269444;-0.29000
2272222;-0.33000
2274999;-0.35500
2277777;-0.36500
2280555;-0.36000
2283333;-0.37000
2286110;-0.38500
2288888;-0.40500
2291666;-0.41000
2294444;-0.40000
2297222;-0.39500
2299999;-0.39500
2302777;-0.41000
2305555;-0.42500
2308333;-0.41500
2311110;-0.41000
2313888;-0.39500
2316666;-0.40000
2319444;-0.40000
2322222;-0.41500
2324999;-0.41000
2327777;-0.41000
2330555;-0.41500
2333333;-0.41000
2336110;-0.41500
2338888;-0.42000
2341666;-0.42000
2344444;-0.42000
2347222;-0.41000
2349999;-0.43500
2352777;-0.45500
2355555;-0.50500
2358333;-0.53500
2361110;-0.56000
2363888;-0.56500
2366666;-0.61000
2369444;-0.62500
2372222;-0.55500
2374999;-0.41000
2377777;-0.26500
2380555;-0.08500
2383333;0.16500
2386110;0.43500
2388888;0.67500
2391666;0.82000
2394444;0.82000
2397222;0.65000
2399999;0.30000
2402777;-0.10500
2405555;-0.41000
2408333;-0.56000
2411110;-0.57500
2413888;-0.53500
2416666;-0.48000
2419444;-0.46500
2422222;-0.46500
2424999;-0.46500
2427777;-0.46000
2430555;-0.44500
2433333;-0.43500
2436110;-0.44000
2438888;-0.45500
2441666;-0.45500
2444444;-0.45000
2447222;-0.45000
2449999;-0.46000
2452777;-0.47000
2455555;-0.47000
2458333;-0.46000
2461110;-0.45500
2463888;-0.45000
2466666;-0.45000
2469444;-0.45500
2472222;-0.47000
2474999;-0.47000
2477777;-0.46000
2480555;-0.44000
2483333;-0.44500
2486110;-0.44500
2488888;-0.46500
2491666;-0.46000
2494444;-0.45000
2497222;-0.44500
2499999;-0.44500
2502777;-0.45500
2505555;-0.47500
2508333;-0.46500
2511110;-0.47000
2513888;-0.46000
2516666;-0.46000
2519444;-0.47000
2522222;-0.48000
2524999;-0.48000
2527777;-0.46000
2530555;-0.44000
2533333;-0.45500
2536110;-0.46000
2538888;-0.48000
2541666;-0.46500
2544444;-0.47000
2547222;-0.46000
2549999;-0.46500
2552777;-0.47000
2555555;-0.47500
2558333;-0.47500
2561110;-0.47000
2563888;-0.47000
2566666;-0.45500
2569444;-0.47000
2572222;-0.48500
2574999;-0.49000
2577777;-0.48500
2580555;-0.47000
2583333;-0.47500
2586110;-0.47500
2588888;-0.47500
2591666;-0.47500
2594444;-0.47500
2597221;-0.45500
2599999;-0.46500
2602777;-0.47000
2605555;-0.47500
2608333;-0.49000
2611110;-0.48000
2613888;-0.48500
2616666;-0.49000
2619444;-0.48500
2622221;-0.50500
2624999;-0.49000
2627777;-0.48500
2630555;-0.49500
2633333;-0.48500
2636110;-0.49000
2638888;-0.51500
2641666;-0.51500
2644444;-0.51500
2647221;-0.50000
2649999;-0.50500
2652777;-0.52500
2655555;-0.52500
2658333;-0.52500
2661110;-0.52000
2663888;-0.51000
2666666;-0.50500
2669444;-0.51000
2672221;-0.51500
2674999;-0.50500
2677777;-0.49500
2680555;-0.48000
2683333;-0.46500
2686110;-0.46500
2688888;-0.46500
2691666;-0.46500
2694444;-0.44500
2697221;-0.44500
2699999;-0.42500
2702777;-0.42000
2705555;-0.41500
2708333;-0.41000
2711110;-0.40000
2713888;-0.39000
2716666;-0.37500
2719444;-0.38000
2722221;-0.38000
2724999;-0.37000
2727777;-0.36500
2730555;-0.36500
2733333;-0.37000
2736110;-0.37000
2738888;-0.39500
2741666;-0.39000
2744444;-0.38500
2747221;-0.36500
2749999;-0.36000
2752777;-0.36000
2755555;-0.38000
2758333;-0.38500
2761110;-0.38000
2763888;-0.38500
2766666;-0.38500
2769444;-0.38000
2772221;-0.37500
2774999;-0.37000
2777777;-0.36500
2780555;-0.38000
2783333;-0.38000
2786110;-0.38000
2788888;-0.39000
2791666;-0.39500
2794444;-0.37500
2797221;-0.37000
2799999;-0.38000
2802777;-0.38500
2805555;-0.39500
2808333;-0.39500
2811110;-0.38500
2813888;-0.37000
2816666;-0.37000
2819444;-0.39000
2822221;-0.42000
2824999;-0.41500
2827777;-0.41500
2830555;-0.40000
2833333;-0.39500
2836110;-0.40000
2838888;-0.41500
2841666;-0.41500
2844444;-0.39500
2847221;-0.39500
2849999;-0.40500
2852777;-0.40500
2855555;-0.42000
2858333;-0.42000
2861110;-0.41500
2863888;-0.40000
2866666;-0.40500
2869444;-0.41000
2872221;-0.41500
2874999;-0.40500
2877777;-0.40500
2880555;-0.41000
2883333;-0.41000
2886110;-0.42000
2888888;-0.43000
2891666;-0.41500
2894444;-0.41500
2897221;-0.40500
2899999;-0.40000
2902777;-0.42000
2905555;-0.42500
2908333;-0.43000
2911110;-0.43000
2913888;-0.41000
2916666;-0.41000
2919444;-0.42000
2922221;-0.43000
2924999;-0.42500
2927777;-0.41500
2930555;-0.40000
2933333;-0.39000
2936110;-0.39000
2938888;-0.41000
2941666;-0.40000
2944444;-0.40500
2947221;-0.39500
2949999;-0.40000
2952777;-0.41000
2955555;-0.43000
2958333;-0.42500
2961110;-0.41000
2963888;-0.39500
2966666;-0.40500
2969444;-0.41000
2972221;-0.40000
2974999;-0.37000
2977777;-0.37000
2980555;-0.35000
2983332;-0.33500
2986110;-0.34000
2988888;-0.35000
2991666;-0.34000
2994444;-0.33000
2997221;-0.32500
2999999;-0.32000
3002777;-0.33500
3005555;-0.33500
3008332;-0.32500
3011110;-0.30500
3013888;-0.29500
3016666;-0.29500
3019444;-0.31500
3022221;-0.33500
3024999;-0.33500
3027777;-0.33000
3030555;-0.31000
3033332;-0.33000
3036110;-0.34000
3038888;-0.33500
3041666;-0.31500
3044444;-0.30000
3047221;-0.31000
3049999;-0.34500
3052777;-0.37000
3055555;-0.38500
3058332;-0.40000
3061110;-0.41000
3063888;-0.41000
3066666;-0.43000
3069444;-0.43500
3072221;-0.44000
3074999;-0.43000
3077777;-0.42500
3080555;-0.40500
3083332;-0.41000
3086110;-0.42000
3088888;-0.44000
3091666;-0.42500
3094444;-0.42500
3097221;-0.41500
3099999;-0.42000
3102777;-0.43000
3105555;-0.42500
3108332;-0.43000
3111110;-0.42500
3113888;-0.43000
3116666;-0.43500
3119444;-0.44500
3122221;-0.45000
3124999;-0.44000
3127777;-0.42500
3130555;-0.40500
3133332;-0.41500
3136110;-0.42500
3138888;-0.43500
3141666;-0.45500
3144444;-0.47500
3147221;-0.50500
3149999;-0.52000
3152777;-0.53000
3155555;-0.55000
3158332;-0.58000
3161110;-0.61500
3163888;-0.59500
3166666;-0.53500
3169444;-0.41500
3172221;-0.28000
3174999;-0.10500
3177777;0.10500
3180555;0.37000
3183332;0.61000
3186110;0.78500
3188888;0.86000
3191666;0.79500
3194444;0.55500
3197221;0.19000
3199999;-0.18500
3202777;-0.43500
3205555;-0.54000
3208332;-0.54000
3211110;-0.52000
3213888;-0.48000
3216666;-0.46500
3219444;-0.45500
3222221;-0.47000
3224999;-0.46500
3227777;-0.45000
3230555;-0.43500
3233332;-0.44500
3236110;-0.47000
3238888;-0.47000
3241666;-0.46500
3244444;-0.46000
3247221;-0.45000
3249999;-0.45000
3252777;-0.47000
3255555;-0.47000
3258332;-0.46500
3261110;-0.44500
3263888;-0.43500
3266666;-0.44500
3269444;-0.45000
3272221;-0.46000
3274999;-0.46000
3277777;-0.46000
3280555;-0.45000
3283332;-0.44500
3286110;-0.45500
3288888;-0.47000
3291666;-0.47500
3294444;-0.45500
3297221;-0.44500
3299999;-0.44500
3302777;-0.45500
3305555;-0.47000
3308332;-0.47000
3311110;-0.45500
3313888;-0.44500
3316666;-0.44500
3319444;-0.45500
3322221;-0.47000
3324999;-0.46500
3327777;-0.46000
3330555;-0.45000
3333332;-0.45500
3336110;-0.46500
3338888;-0.47500
3341666;-0.46500
3344444;-0.45500
3347221;-0.44500
3349999;-0.44500
3352777;-0.45500
3355555;-0.44500
3358332;-0.45500
3361110;-0.45500
3363888;-0.44500
3366666;-0.44000
3369444;-0.45500
3372221;-0.47000
3374999;-0.46500
3377777;-0.45000
3380555;-0.44000
3383332;-0.45000
3386110;-0.45500
3388888;-0.46500
3391666;-0.46000
3394443;-0.46000
3397221;-0.45000
3399999;-0.45000
3402777;-0.46500
3405555;-0.46500
3408332;-0.47000
3411110;-0.46000
3413888;-0.46000
3416666;-0.46500
3419443;-0.48000
3422221;-0.50000
3424999;-0.49000
3427777;-0.48000
3430555;-0.48000
3433332;-0.48500
3436110;-0.49000
3438888;-0.50500
3441666;-0.49000
3444443;-0.50000
3447221;-0.48000
3449999;-0.48500
3452777;-0.48500
3455555;-0.50500
3458332;-0.50500
3461110;-0.51000
3463888;-0.50000
3466666;-0.49500
3469443;-0.51000
3472221;-0.51000
3474999;-0.51000
3477777;-0.50500
3480555;-0.49000
3483332;-0.48000
3486110;-0.47000
3488888;-0.49000
3491666;-0.46000
3494443;-0.43500
3497221;-0.42500
3499999;-0.41000
3502777;-0.41500
3505555;-0.41500
3508332;-0.39500
3511110;-0.38500
3513888;-0.35500
3516666;-0.36000
3519443;-0.35500
3522221;-0.35500
3524999;-0.35500
3527777;-0.33500
3530555;-0.33000
3533332;-0.32500
3536110;-0.33000
3538888;-0.33500
3541666;-0.33000
3544443;-0.31500
3547221;-0.30500
3549999;-0.31500
3552777;-0.31500
3555555;-0.32500
3558332;-0.32000
3561110;-0.32500
3563888;-0.31000
3566666;-0.30500
3569443;-0.31500
3572221;-0.33000
3574999;-0.32500
3577777;-0.32000
3580555;-0.32500
3583332;-0.32500
3586110;-0.32000
3588888;-0.33500
3591666;-0.33000
3594443;-0.33000
3597221;-0.32500
3599999;-0.32500
3602777;-0.33000
3605555;-0.33500
3608332;-0.34500
3611110;-0.32500
3613888;-0.32000
3616666;-0.32000
3619443;-0.34000
3622221;-0.33500
3624999;-0.34000
3627777;-0.33000
3630555;-0.32500
3633332;-0.33000
3636110;-0.33500
3638888;-0.35500
3641666;-0.35000
3644443;-0.34000
3647221;-0.32500
3649999;-0.33500
3652777;-0.34500
3655555;-0.35000
3658332;-0.35000
3661110;-0.34500
3663888;-0.33000
3666666;-0.33500
3669443;-0.34500
3672221;-0.35000
3674999;-0.35000
3677777;-0.34000
3680555;-0.33500
3683332;-0.34000
3686110;-0.34500
3688888;-0.35000
3691666;-0.36000
3694443;-0.35000
3697221;-0.35000
3699999;-0.35500
3702777;-0.34000
3705555;-0.36500
3708332;-0.34500
3711110;-0.33000
3713888;-0.33500
3716666;-0.33500
3719443;-0.34500
3722221;-0.34000
3724999;-0.33000
3727777;-0.33500
3730555;-0.32500
3733332;-0.33000
3736110;-0.33500
3738888;-0.34500
3741666;-0.34000
3744443;-0.32500
3747221;-0.31500
3749999;-0.32000
3752777;-0.33500
3755555;-0.34000
3758332;-0.34500
3761110;-0.32500
3763888;-0.32500
3766666;-0.32000
3769443;-0.31500
3772221;-0.33500
3774999;-0.33500
3777777;-0.31000
3780554;-0.32000
3783332;-0.31000
3786110;-0.31000
3788888;-0.32000
3791666;-0.31500
3794443;-0.29500
3797221;-0.28500
3799999;-0.27500
3802777;-0.26500
3805554;-0.27500
3808332;-0.26000
3811110;-0.24500
3813888;-0.24000
3816666;-0.24000
3819443;-0.24500
3822221;-0.23500
3824999;-0.21500
3827777;-0.21500
3830554;-0.19500
3833332;-0.20000
3836110;-0.21000
3838888;-0.23000
3841666;-0.22500
3844443;-0.22500
3847221;-0.22000
3849999;-0.23000
3852777;-0.23500
3855554;-0.23500
3858332;-0.23000
3861110;-0.23500
3863888;-0.22500
3866666;-0.21000
3869443;-0.19500
3872221;-0.20000
3874999;-0.21500
3877777;-0.23000
3880554;-0.25500
3883332;-0.26000
3886110;-0.26000
3888888;-0.27500
3891666;-0.28000
3894443;-0.28500
3897221;-0.28500
3899999;-0.30500
3902777;-0.31500
3905554;-0.32000
3908332;-0.33000
3911110;-0.34000
3913888;-0.33000
3916666;-0.33500
3919443;-0.33000
3922221;-0.34000
3924999;-0.33500
3927777;-0.34000
3930554;-0.33500
3933332;-0.34000
3936110;-0.35000
3938888;-0.36000
3941666;-0.35500
3944443;-0.34500
3947221;-0.34000
3949999;-0.34000
3952777;-0.36000
3955554;-0.36500
3958332;-0.36000
3961110;-0.34500
3963888;-0.33500
3966666;-0.34000
3969443;-0.34500
3972221;-0.36000
3974999;-0.39500
3977777;-0.42500
3980554;-0.45500
3983332;-0.46500
3986110;-0.49500
3988888;-0.53500
3991666;-0.54000
3994443;-0.46500
3997221;-0.32500
3999999;-0.15000
4002777;0.01500
4005554;0.21500
4008332;0.46500
4011110;0.74000
4013888;0.95500
4016666;1.08500
4019443;1.09000
4022221;0.92000
4024999;0.55500
4027777;0.09000
4030554;-0.27500
4033332;-0.44500
4036110;-0.46000
4038888;-0.41500
4041666;-0.37000
4044443;-0.34500
4047221;-0.34000
4049999;-0.35500
4052777;-0.36000
4055554;-0.37500
4058332;-0.37500
4061110;-0.37000
4063888;-0.37500
4066666;-0.36000
4069443;-0.37000
4072221;-0.39500
4074999;-0.39500
4077777;-0.37500
4080554;-0.37500
4083332;-0.38500
4086110;-0.38500
4088888;-0.40000
4091666;-0.37500
4094443;-0.37500
4097221;-0.37500
4099999;-0.37500
4102777;-0.37500
4105554;-0.39500
4108332;-0.39500
4111110;-0.39000
4113888;-0.38000
4116666;-0.38500
4119443;-0.38500
4122221;-0.39500
4124999;-0.39000
4127777;-0.39000
4130554;-0.38000
4133332;-0.38500
4136110;-0.38000
4138888;-0.38500
4141666;-0.39000
4144443;-0.38500
4147221;-0.37500
4149999;-0.37500
4152777;-0.37500
4155554;-0.40000
4158332;-0.39500
4161110;-0.38500
4163888;-0.37500
4166666;-0.38000
4169443;-0.37500
4172221;-0.38000
4174999;-0.37500
4177777;-0.36500
4180554;-0.36000
4183332;-0.37000
4186110;-0.38500
4188888;-0.39000
4191665;-0.39000
4194443;-0.39000
4197221;-0.38000
4199999;-0.38000
4202777;-0.38500
4205554;-0.38500
4208332;-0.38500
4211110;-0.37000
4213888;-0.37500
4216665;-0.37500
4219443;-0.37500
4222221;-0.41000
4224999;-0.39000
4227777;-0.38500
4230554;-0.38000
4233332;-0.38000
4236110;-0.40000
4238888;-0.39000
4241665;-0.40500
4244443;-0.40000
4247221;-0.37500
4249999;-0.38500
4252777;-0.38500
4255554;-0.40000
4258332;-0.41000
4261110;-0.39000
4263888;-0.39500
4266665;-0.39500
4269443;-0.40000
4272221;-0.41500
4274999;-0.41500
4277777;-0.40500
4280554;-0.40000
4283332;-0.40000
4286110;-0.41000
4288888;-0.42000
4291665;-0.41500
4294443;-0.40500
4297221;-0.39500
4299999;-0.39500
4302777;-0.40000
4305554;-0.39500
4308332;-0.39500
4311110;-0.38500
4313888;-0.38500
4316665;-0.37500
4319443;-0.37000
4322221;-0.37500
4324999;-0.36500
4327777;-0.34500
4330554;-0.33500
4333332;-0.31500
4336110;-0.32000
4338888;-0.32000
4341665;-0.30500
4344443;-0.29500
4347221;-0.29000
4349999;-0.27500
4352777;-0.27500
4355554;-0.28000
4358332;-0.27500
4361110;-0.27000
4363888;-0.25000
4366665;-0.25000
4369443;-0.25000
4372221;-0.26000
4374999;-0.26000
4377777;-0.26000
4380554;-0.24000
4383332;-0.25500
4386110;-0.25500
4388888;-0.26000
4391665;-0.25500
4394443;-0.25000
4397221;-0.24500
4399999;-0.24000
4402777;-0.26000
4405554;-0.26000
4408332;-0.26000
4411110;-0.24000
4413888;-0.25000
4416665;-0.24500
4419443;-0.24500
4422221;-0.26500
4424999;-0.26500
4427777;-0.26500
4430554;-0.26500
4433332;-0.26000
4436110;-0.26500
4438888;-0.27500
4441665;-0.27500
4444443;-0.26500
4447221;-0.26000
4449999;-0.26500
4452777;-0.26500
4455554;-0.28500
4458332;-0.27500
4461110;-0.27500
4463888;-0.26500
4466665;-0.27000
4469443;-0.28000
4472221;-0.29000
4474999;-0.28500
4477777;-0.28000
4480554;-0.27500
4483332;-0.27000
4486110;-0.29000
4488888;-0.29500
4491665;-0.29500
4494443;-0.29000
4497221;-0.28000
4499999;-0.28500
4502777;-0.30000
4505554;-0.31000
4508332;-0.30500
4511110;-0.30000
4513888;-0.30000
4516665;-0.30000
4519443;-0.30500
4522221;-0.31500
4524999;-0.31000
4527777;-0.30500
4530554;-0.29500
4533332;-0.30000
4536110;-0.30500
4538888;-0.30500
4541665;-0.31500
4544443;-0.29500
4547221;-0.29500
4549999;-0.29500
4552777;-0.31000
4555554;-0.32500
4558332;-0.32000
4561110;-0.31500
4563888;-0.31000
4566665;-0.30500
4569443;-0.32000
4572221;-0.32000
4574999;-0.32500
4577776;-0.30500
4580554;-0.30000
4583332;-0.30000
4586110;-0.31000
4588888;-0.32000
4591665;-0.31500
4594443;-0.30000
4597221;-0.29000
4599999;-0.30500
4602776;-0.29500
4605554;-0.30500
4608332;-0.31000
4611110;-0.30500
4613888;-0.28500
4616665;-0.29000
4619443;-0.30500
4622221;-0.30500
4624999;-0.31500
4627776;-0.30500
4630554;-0.28500
4633332;-0.28500
4636110;-0.26500
4638888;-0.25000
4641665;-0.24500
4644443;-0.23000
4647221;-0.22500
4649999;-0.21500
4652776;-0.22500
4655554;-0.23000
4658332;-0.23500
4661110;-0.22000
4663888;-0.20500
4666665;-0.20000
4669443;-0.20000
4672221;-0.20000
4674999;-0.20000
4677776;-0.19000
4680554;-0.18000
4683332;-0.19500
4686110;-0.19500
4688888;-0.21500
4691665;-0.22500
4694443;-0.22000
4697221;-0.21500
4699999;-0.20000
4702776;-0.23000
4705554;-0.22500
4708332;-0.23500
4711110;-0.22000
4713888;-0.19000
4716665;-0.17500
4719443;-0.18000
4722221;-0.22000
4724999;-0.25000
4727776;-0.24500
4730554;-0.25500
4733332;-0.27500
4736110;-0.30500
4738888;-0.31000
4741665;-0.31500
4744443;-0.31500
4747221;-0.31000
4749999;-0.30500
4752776;-0.31000
4755554;-0.32000
4758332;-0.32000
4761110;-0.31000
4763888;-0.30500
4766665;-0.32500
4769443;-0.32500
4772221;-0.33500
4774999;-0.33500
4777776;-0.32000
4780554;-0.31000
4783332;-0.32500
4786110;-0.33000
4788888;-0.35000
4791665;-0.34000
4794443;-0.33500
4797221;-0.32500
4799999;-0.33000
4802776;-0.33500
4805554;-0.34000
4808332;-0.33500
4811110;-0.35000
4813888;-0.33000
4816665;-0.33500
4819443;-0.38000
4822221;-0.43500
4824999;-0.45500
4827776;-0.47000
4830554;-0.48500
4833332;-0.51500
4836110;-0.53000
4838888;-0.49500
4841665;-0.40000
4844443;-0.24500
4847221;-0.07500
4849999;0.11000
4852776;0.33500
4855554;0.59500
4858332;0.83000
4861110;1.00500
4863888;1.07500
4866665;0.99500
4869443;0.70500
4872221;0.29500
4874999;-0.12000
4877776;-0.37500
4880554;-0.45000
4883332;-0.42000
4886110;-0.38500
4888888;-0.37000
4891665;-0.37000
4894443;-0.35500
4897221;-0.36000
4899999;-0.36500
4902776;-0.36000
4905554;-0.37000
4908332;-0.38000
4911110;-0.38000
4913888;-0.36500
4916665;-0.37500
4919443;-0.38500
4922221;-0.39000
4924999;-0.38000
4927776;-0.38000
4930554;-0.36500
4933332;-0.37500
4936110;-0.37000
4938888;-0.38000
4941665;-0.38500
4944443;-0.38000
4947221;-0.37000
4949999;-0.37000
4952776;-0.38000
4955554;-0.38500
4958332;-0.39000
4961110;-0.38000
4963887;-0.37500
4966665;-0.38500
4969443;-0.39500
4972221;-0.39500
4974999;-0.39000
4977776;-0.39000
4980554;-0.37500
4983332;-0.37500
4986110;-0.39000
4988887;-0.40000
4991665;-0.39500
4994443;-0.39500
4997221;-0.38500
4999999;-0.37500
5002776;-0.38000
5005554;-0.40500
5008332;-0.39000
5011110;-0.38500
5013887;-0.37500
5016665;-0.38000
5019443;-0.38500
5022221;-0.39000
5024999;-0.39500
5027776;-0.38500
5030554;-0.39000
5033332;-0.38000
5036110;-0.39500
5038887;-0.40000
5041665;-0.39500
5044443;-0.39000
5047221;-0.38000
5049999;-0.38500
5052776;-0.38500
5055554;-0.40000
5058332;-0.39500
5061110;-0.39000
5063887;-0.38000
5066665;-0.39500
5069443;-0.39500
5072221;-0.39500
5074999;-0.39500
5077776;-0.38000
5080554;-0.36500
5083332;-0.37500
5086110;-0.38000
5088887;-0.39500
5091665;-0.40000
5094443;-0.40500
5097221;-0.37000
5099999;-0.38000
5102776;-0.38500
5105554;-0.40500
5108332;-0.41000
5111110;-0.40000
5113887;-0.39000
5116665;-0.39000
5119443;-0.40000
5122221;-0.41500
5124999;-0.40500
5127776;-0.39000
5130554;-0.39000
5133332;-0.40000
5136110;-0.41500
5138887;-0.40500
5141665;-0.41000
5144443;-0.40000
5147221;-0.38000
5149999;-0.38000
5152776;-0.41000
5155554;-0.39500
5158332;-0.39500
5161110;-0.38500
5163887;-0.36500
5166665;-0.36500
5169443;-0.36500
5172221;-0.36000
5174999;-0.35000
5177776;-0.33000
5180554;-0.31500
5183332;-0.31000
5186110;-0.31000
5188887;-0.31000
5191665;-0.30500
5194443;-0.28500
5197221;-0.25500
5199999;-0.26500
5202776;-0.27500
5205554;-0.28500
5208332;-0.28000
5211110;-0.26500
5213887;-0.25000
5216665;-0.25000
5219443;-0.26000
5222221;-0.27000
5224999;-0.27000
5227776;-0.27000
5230554;-0.25500
5233332;-0.25000
5236110;-0.25500
5238887;-0.26500
5241665;-0.27000
5244443;-0.25000
5247221;-0.25000
5249999;-0.25000
5252776;-0.26000
5255554;-0.26000
5258332;-0.27000
5261110;-0.26000
5263887;-0.25000
5266665;-0.24000
5269443;-0.25500
5272221;-0.26000
5274999;-0.27000
5277776;-0.25500
5280554;-0.25500
5283332;-0.25500
5286110;-0.26000
5288887;-0.27500
5291665;-0.28000
5294443;-0.27500
5297221;-0.26500
5299999;-0.28000
5302776;-0.28500
5305554;-0.28000
5308332;-0.27500
5311110;-0.28000
5313887;-0.26500
5316665;-0.28000
5319443;-0.29500
5322221;-0.29000
5324999;-0.30000
5327776;-0.29000
5330554;-0.28000
5333332;-0.29500
5336110;-0.29500
5338887;-0.30000
5341665;-0.30500
5344443;-0.30500
5347221;-0.29500
5349999;-0.30000
5352776;-0.30500
5355554;-0.31000
5358332;-0.31000
5361110;-0.30500
5363887;-0.29000
5366665;-0.29000
5369443;-0.29500
5372221;-0.31000
5374998;-0.31000
5377776;-0.31000
5380554;-0.30000
5383332;-0.31000
5386110;-0.31500
5388887;-0.31500
5391665;-0.31000
5394443;-0.29500
5397221;-0.28500
5399998;-0.28500
5402776;-0.31000
5405554;-0.32000
5408332;-0.32500
5411110;-0.31000
5413887;-0.29000
5416665;-0.29500
5419443;-0.31000
5422221;-0.31000
5424998;-0.30000
5427776;-0.30500
5430554;-0.29000
5433332;-0.29000
5436110;-0.29500
5438887;-0.28500
5441665;-0.30500
5444443;-0.29500
5447221;-0.29000
5449998;-0.28000
5452776;-0.28500
5455554;-0.30500
5458332;-0.29500
5461110;-0.29000
5463887;-0.27500
5466665;-0.27500
5469443;-0.28000
5472221;-0.30000
5474998;-0.30000
5477776;-0.30000
5480554;-0.26500
5483332;-0.27000
5486110;-0.26500
5488887;-0.25500
5491665;-0.25000
5494443;-0.22500
5497221;-0.21000
5499998;-0.21000
5502776;-0.21000
5505554;-0.22000
5508332;-0.21500
5511110;-0.19500
5513887;-0.18000
5516665;-0.18000
5519443;-0.18500
5522221;-0.20000
5524998;-0.19500
5527776;-0.18500
5530554;-0.17000
5533332;-0.18000
5536110;-0.20000
5538887;-0.20000
5541665;-0.20500
5544443;-0.20000
5547221;-0.20500
5549998;-0.22000
5552776;-0.22500
5555554;-0.20000
5558332;-0.17500
5561110;-0.15500
5563887;-0.16500
5566665;-0.19500
5569443;-0.22500
5572221;-0.23500
5574998;-0.23000
5577776;-0.23500
5580554;-0.23500
5583332;-0.26500
5586110;-0.28500
5588887;-0.30500
5591665;-0.30000
5594443;-0.31000
5597221;-0.30500
5599998;-0.30500
5602776;-0.31500
5605554;-0.31500
5608332;-0.31500
5611110;-0.31000
5613887;-0.31000
5616665;-0.31500
5619443;-0.32500
5622221;-0.33000
5624998;-0.33000
5627776;-0.32500
5630554;-0.32500
5633332;-0.32000
5636110;-0.31500
5638887;-0.32500
5641665;-0.33000
5644443;-0.31500
5647221;-0.31500
5649998;-0.32500
5652776;-0.34000
5655554;-0.34000
5658332;-0.36500
5661110;-0.40000
5663887;-0.42500
5666665;-0.44500
5669443;-0.47500
5672221;-0.51500
5674998;-0.53000
5677776;-0.46500
5680554;-0.35500
5683332;-0.22000
5686110;-0.07500
5688887;0.10500
5691665;0.39500
5694443;0.67000
5697221;0.87500
5699998;0.95000
5702776;0.84000
5705554;0.54500
5708332;0.13000
5711110;-0.22500
5713887;-0.41000
5716665;-0.46500
5719443;-0.46000
5722221;-0.39500
5724998;-0.38000
5727776;-0.35500
5730554;-0.35500
5733332;-0.36000
5736110;-0.36000
5738887;-0.36000
5741665;-0.36000
5744443;-0.35000
5747221;-0.33500
5749998;-0.35000
5752776;-0.36000
5755554;-0.37000
5758332;-0.37500
5761109;-0.36500
5763887;-0.35500
5766665;-0.34500
5769443;-0.36500
5772221;-0.36000
5774998;-0.35000
5777776;-0.34500
5780554;-0.33500
5783332;-0.35000
5786109;-0.37000
5788887;-0.38500
5791665;-0.38500
5794443;-0.36000
5797221;-0.34500
5799998;-0.35000
5802776;-0.36500
5805554;-0.37500
5808332;-0.38500
5811109;-0.38000
5813887;-0.36500
5816665;-0.37500
5819443;-0.38000
5822221;-0.37000
5824998;-0.37500
5827776;-0.38000
5830554;-0.37500
5833332;-0.37500
5836109;-0.37500
5838887;-0.37000
5841665;-0.36500
5844443;-0.34000
5847221;-0.33500
5849998;-0.34000
5852776;-0.34000
5855554;-0.35000
5858332;-0.35500
5861109;-0.35000
5863887;-0.35500
5866665;-0.35500
5869443;-0.37500
5872221;-0.38500
5874998;-0.39000
5877776;-0.38000
5880554;-0.38000
5883332;-0.37000
5886109;-0.37000
5888887;-0.37500
5891665;-0.39500
5894443;-0.36500
5897221;-0.36500
5899998;-0.37000
5902776;-0.38000
5905554;-0.37500
5908332;-0.39500
5911109;-0.38000
5913887;-0.37000
5916665;-0.37500
5919443;-0.37500
5922221;-0.38000
5924998;-0.37500
5927776;-0.36000
5930554;-0.37500
5933332;-0.39000
5936109;-0.40000
5938887;-0.40500
5941665;-0.39500
5944443;-0.40000
5947221;-0.38500
5949998;-0.38500
5952776;-0.40000
5955554;-0.41500
5958332;-0.42000
5961109;-0.41000
5963887;-0.39000
5966665;-0.38500
5969443;-0.40000
5972221;-0.42000
5974998;-0.41500
5977776;-0.42000
5980554;-0.40000
5983332;-0.39500
5986109;-0.40000
5988887;-0.40500
5991665;-0.40000
5994443;-0.39000
5997221;-0.38000
5999998;-0.35500
6002776;-0.36500
6005554;-0.36500
6008332;-0.36500
6011109;-0.35000
6013887;-0.33000
6016665;-0.32500
6019443;-0.32500
6022221;-0.32500
6024998;-0.31500
6027776;-0.30000
6030554;-0.29000
6033332;-0.30500
6036109;-0.30500
6038887;-0.30000
6041665;-0.30000
6044443;-0.29000
6047221;-0.26000
6049998;-0.26000
6052776;-0.25500
6055554;-0.27500
6058332;-0.29500
6061109;-0.28500
6063887;-0.27000
6066665;-0.27500
6069443;-0.27000
6072221;-0.26000
6074998;-0.26500
6077776;-0.26500
6080554;-0.26000
6083332;-0.26000
6086109;-0.26500
6088887;-0.28500
6091665;-0.29500
6094443;-0.29500
6097221;-0.29000
6099998;-0.28500
6102776;-0.29000
6105554;-0.29500
6108332;-0.30000
6111109;-0.30000
6113887;-0.27000
6116665;-0.26500
6119443;-0.29000
6122221;-0.29000
6124998;-0.30000
6127776;-0.30000
6130554;-0.29000
6133332;-0.28500
6136109;-0.30500
6138887;-0.31000
6141665;-0.30000
6144443;-0.30000
6147221;-0.29500
6149998;-0.30000
6152776;-0.29500
6155554;-0.31500
6158332;-0.31000
6161109;-0.32000
6163887;-0.32000
6166665;-0.32000
6169443;-0.34000
6172220;-0.32500
6174998;-0.33000
6177776;-0.32500
6180554;-0.30500
6183332;-0.30000
6186109;-0.31500
6188887;-0.33500
6191665;-0.33000
6194443;-0.33000
6197220;-0.32000
6199998;-0.33000
6202776;-0.32000
6205554;-0.34000
6208332;-0.33000
6211109;-0.33500
6213887;-0.33000
6216665;-0.34000
6219443;-0.33500
6222220;-0.33500
6224998;-0.34000
6227776;-0.32500
6230554;-0.32000
6233332;-0.32000
6236109;-0.32000
6238887;-0.33500
6241665;-0.34000
6244443;-0.33500
6247220;-0.32000
6249998;-0.33000
6252776;-0.33500
6255554;-0.34000
6258332;-0.34000
6261109;-0.33000
6263887;-0.32000
6266665;-0.34000
6269443;-0.36000
6272220;-0.36000
6274998;-0.36000
6277776;-0.32000
6280554;-0.29000
6283332;-0.28000
6286109;-0.27000
6288887;-0.27500
6291665;-0.29000
6294443;-0.28000
6297220;-0.25000
6299998;-0.26000
6302776;-0.24000
6305554;-0.25000
6308332;-0.24000
6311109;-0.24000
6313887;-0.22000
6316665;-0.22500
6319443;-0.23000
6322220;-0.24000
6324998;-0.23000
6327776;-0.23000
6330554;-0.21500
6333332;-0.22500
6336109;-0.23500
6338887;-0.25000
6341665;-0.25500
6344443;-0.24000
6347220;-0.22500
6349998;-0.23000
6352776;-0.25500
6355554;-0.27000
6358332;-0.27500
6361109;-0.23500
6363887;-0.21500
6366665;-0.23000
6369443;-0.26000
6372220;-0.29000
6374998;-0.31000
6377776;-0.31500
6380554;-0.32000
6383332;-0.33500
6386109;-0.35000
6388887;-0.37500
6391665;-0.38000
6394443;-0.35500
6397220;-0.33500
6399998;-0.35000
6402776;-0.34000
6405554;-0.35500
6408332;-0.36500
6411109;-0.35000
6413887;-0.34000
6416665;-0.34000
6419443;-0.35500
6422220;-0.37500
6424998;-0.38000
6427776;-0.37000
6430554;-0.35000
6433332;-0.34500
6436109;-0.34000
6438887;-0.34500
6441665;-0.34500
6444443;-0.36000
6447220;-0.37500
6449998;-0.41000
6452776;-0.45000
6455554;-0.46500
6458332;-0.48000
6461109;-0.50500
6463887;-0.52500
6466665;-0.49500
6469443;-0.39000
6472220;-0.25000
6474998;-0.06000
6477776;0.17000
6480554;0.42000
6483332;0.68500
6486109;0.85000
6488887;0.93500
6491665;0.85500
6494443;0.57500
6497220;0.15500
6499998;-0.22500
6502776;-0.43500
6505554;-0.48500
6508332;-0.47000
6511109;-0.41500
6513887;-0.37500
6516665;-0.36000
6519443;-0.38500
6522220;-0.39000
6524998;-0.39000
6527776;-0.37000
6530554;-0.35000
6533332;-0.35500
6536109;-0.35500
6538887;-0.36000
6541665;-0.36500
6544443;-0.36500
6547220;-0.35500
6549998;-0.37000
6552776;-0.38000
6555554;-0.39000
6558331;-0.40000
6561109;-0.39500
6563887;-0.38000
6566665;-0.37000
6569443;-0.38000
6572220;-0.38000
6574998;-0.39000
6577776;-0.39000
6580554;-0.38500
6583331;-0.38500
6586109;-0.39000
6588887;-0.40500
6591665;-0.39500
6594443;-0.38500
6597220;-0.37500
6599998;-0.38500
6602776;-0.38500
6605554;-0.39500
6608331;-0.39500
6611109;-0.38500
6613887;-0.37000
6616665;-0.37500
6619443;-0.38000
6622220;-0.39500
6624998;-0.38500
6627776;-0.38500
6630554;-0.37000
6633331;-0.37500
6636109;-0.38500
6638887;-0.38500
6641665;-0.39500
6644443;-0.39500
6647220;-0.38000
6649998;-0.38500
6652776;-0.38000
6655554;-0.38500
6658331;-0.41000
6661109;-0.39000
6663887;-0.38500
6666665;-0.38500
6669443;-0.38500
6672220;-0.38000
6674998;-0.38000
6677776;-0.38000
6680554;-0.37000
6683331;-0.37000
6686109;-0.39000
6688887;-0.38000
6691665;-0.39000
6694443;-0.38000
6697220;-0.37500
6699998;-0.38500
6702776;-0.39500
6705554;-0.39500
6708331;-0.40000
6711109;-0.41500
6713887;-0.41000
6716665;-0.41000
6719443;-0.41500
6722220;-0.41500
6724998;-0.42000
6727776;-0.41000
6730554;-0.41500
6733331;-0.42000
6736109;-0.43000
6738887;-0.44000
6741665;-0.45000
6744443;-0.44000
6747220;-0.43500
6749998;-0.44000
6752776;-0.44500
6755554;-0.45500
6758331;-0.44500
6761109;-0.43500
6763887;-0.41000
6766665;-0.40500
6769443;-0.40000
6772220;-0.40000
6774998;-0.38500
6777776;-0.37000
6780554;-0.34000
6783331;-0.33000
6786109;-0.32500
6788887;-0.32500
6791665;-0.31000
6794443;-0.29000
6797220;-0.28000
6799998;-0.27500
6802776;-0.27000
6805554;-0.28000
6808331;-0.27500
6811109;-0.25500
6813887;-0.25000
6816665;-0.25500
6819443;-0.26500
6822220;-0.26500
6824998;-0.26000
6827776;-0.25500
6830554;-0.24500
6833331;-0.24500
6836109;-0.26000
6838887;-0.26000
6841665;-0.26000
6844443;-0.25000
6847220;-0.25000
6849998;-0.24500
6852776;-0.25000
6855554;-0.25000
6858331;-0.26500
6861109;-0.25000
6863887;-0.23500
6866665;-0.24500
6869443;-0.25000
6872220;-0.26000
6874998;-0.27000
6877776;-0.27000
6880554;-0.25500
6883331;-0.26000
6886109;-0.26500
6888887;-0.28000
6891665;-0.28500
6894443;-0.28500
6897220;-0.25500
6899998;-0.26500
6902776;-0.26500
6905554;-0.28500
6908331;-0.28500
6911109;-0.28000
6913887;-0.27500
6916665;-0.27000
6919443;-0.27500
6922220;-0.29000
6924998;-0.29500
6927776;-0.28000
6930554;-0.27000
6933331;-0.28500
6936109;-0.30000
6938887;-0.29000
6941665;-0.31000
6944442;-0.28500
6947220;-0.28000
6949998;-0.28000
6952776;-0.28500
6955554;-0.29500
6958331;-0.29500
6961109;-0.28000
6963887;-0.27000
6966665;-0.27500
6969442;-0.28500
6972220;-0.28500
6974998;-0.29500
6977776;-0.28500
6980554;-0.28000
6983331;-0.27000
6986109;-0.28000
6988887;-0.29500
6991665;-0.29500
6994442;-0.29000
6997220;-0.28000
6999998;-0.27500
7002776;-0.28500
7005554;-0.29000
7008331;-0.29500
7011109;-0.30000
7013887;-0.26500
7016665;-0.27000
7019442;-0.28000
7022220;-0.29000
7024998;-0.29500
7027776;-0.27500
7030554;-0.27000
7033331;-0.28000
7036109;-0.28000
7038887;-0.29000
7041665;-0.28000
7044442;-0.27500
7047220;-0.27000
7049998;-0.26500
7052776;-0.27500
7055554;-0.28000
7058331;-0.28500
7061109;-0.27000
7063887;-0.25500
7066665;-0.23500
7069442;-0.24500
7072220;-0.23500
7074998;-0.22500
7077776;-0.21500
7080554;-0.19500
7083331;-0.20000
7086109;-0.21000
7088887;-0.22500
7091665;-0.21500
7094442;-0.19000
7097220;-0.17500
7099998;-0.17000
7102776;-0.18500
7105554;-0.17500
7108331;-0.18000
7111109;-0.17000
7113887;-0.15000
7116665;-0.15500
7119442;-0.17000
7122220;-0.18000
7124998;-0.19000
7127776;-0.19000
7130554;-0.18500
7133331;-0.18500
7136109;-0.19000
7138887;-0.20000
7141665;-0.20000
7144442;-0.20500
7147220;-0.17500
7149998;-0.17000
7152776;-0.15500
7155554;-0.17500
7158331;-0.20000
7161109;-0.21500
7163887;-0.21000
7166665;-0.24000
7169442;-0.25500
7172220;-0.27000
7174998;-0.28500
7177776;-0.28500
7180554;-0.27500
7183331;-0.27500
7186109;-0.28500
7188887;-0.29000
7191665;-0.29500
7194442;-0.29500
7197220;-0.28500
7199998;-0.29000
7202776;-0.29500
7205554;-0.30000
7208331;-0.29500
7211109;-0.28500
7213887;-0.28500
7216665;-0.29000
7219442;-0.30000
7222220;-0.30500
7224998;-0.29500
7227776;-0.29000
7230554;-0.29000
7233331;-0.29000
7236109;-0.31000
7238887;-0.33000
7241665;-0.37500
7244442;-0.40500
7247220;-0.41500
7249998;-0.43500
7252776;-0.47500
7255554;-0.49500
7258331;-0.45000
7261109;-0.32000
7263887;-0.15500
7266665;0.01500
7269442;0.20500
7272220;0.45500
7274998;0.72000
7277776;0.98000
7280554;1.12500
7283331;1.14500
7286109;1.01000
7288887;0.64500
7291665;0.16500
7294442;-0.22500
7297220;-0.39500
7299998;-0.40000
7302776;-0.36500
7305554;-0.33500
7308331;-0.31000
7311109;-0.29000
7313887;-0.28500
7316665;-0.31000
7319442;-0.31000
7322220;-0.31500
7324998;-0.32000
7327776;-0.32000
7330554;-0.31500
7333331;-0.31500
7336109;-0.32000
7338887;-0.33500
7341665;-0.34500
7344442;-0.34500
7347220;-0.34000
7349998;-0.33000
7352776;-0.35000
7355553;-0.34500
7358331;-0.34000
7361109;-0.34000
7363887;-0.33000
7366665;-0.33000
7369442;-0.35000
7372220;-0.34500
7374998;-0.35000
7377776;-0.34500
7380553;-0.33000
7383331;-0.34500
7386109;-0.34000
7388887;-0.35000
7391665;-0.35500
7394442;-0.34000
7397220;-0.33000
7399998;-0.33000
7402776;-0.35000
7405553;-0.35000
7408331;-0.34500
7411109;-0.34000
7413887;-0.33000
7416665;-0.34000
7419442;-0.34500
7422220;-0.34500
7424998;-0.35000
7427776;-0.33500
7430553;-0.34500
7433331;-0.34000
7436109;-0.34500
7438887;-0.35000
7441665;-0.35000
7444442;-0.34000
7447220;-0.33000
7449998;-0.33500
7452776;-0.34500
7455553;-0.35500
7458331;-0.35000
7461109;-0.35500
7463887;-0.34000
7466665;-0.33500
7469442;-0.34000
7472220;-0.35000
7474998;-0.36500
7477776;-0.35000
7480553;-0.35000
7483331;-0.36000
7486109;-0.34000
7488887;-0.35500
7491665;-0.36000
7494442;-0.35000
7497220;-0.34000
7499998;-0.34000
7502776;-0.34500
7505553;-0.35000
7508331;-0.35500
7511109;-0.35000
7513887;-0.33500
7516665;-0.34000
7519442;-0.35500
7522220;-0.35500
7524998;-0.36500
7527776;-0.35000
7530553;-0.33000
7533331;-0.34000
7536109;-0.35500
7538887;-0.35000
7541665;-0.36500
7544442;-0.35500
7547220;-0.35500
7549998;-0.36000
7552776;-0.36000
7555553;-0.36000
7558331;-0.35500
7561109;-0.35000
7563887;-0.34000
7566665;-0.34000
7569442;-0.35000
7572220;-0.33500
7574998;-0.34000
7577776;-0.32000
7580553;-0.29500
7583331;-0.28500
7586109;-0.28500
7588887;-0.27000
7591665;-0.26500
7594442;-0.25500
7597220;-0.24000
7599998;-0.23000
7602776;-0.23000
7605553;-0.24000
7608331;-0.23000
7611109;-0.23000
7613887;-0.21500
7616665;-0.20500
7619442;-0.21000
7622220;-0.20500
7624998;-0.21000
7627776;-0.21000
7630553;-0.20500
7633331;-0.20000
7636109;-0.20500
7638887;-0.22000
7641665;-0.22000
7644442;-0.22000
7647220;-0.21500
7649998;-0.20000
7652776;-0.21000
7655553;-0.20500
7658331;-0.22000
7661109;-0.21000
7663887;-0.19000
7666665;-0.19500
7669442;-0.20000
7672220;-0.21500
7674998;-0.21000
7677776;-0.21000
7680553;-0.20000
7683331;-0.20500
7686109;-0.22000
7688887;-0.22500
7691665;-0.21500
7694442;-0.21500
7697220;-0.20000
7699998;-0.20500
7702776;-0.22000
7705553;-0.23500
7708331;-0.23500
7711109;-0.22000
7713887;-0.22000
7716665;-0.22500
7719442;-0.23000
7722220;-0.24000
7724998;-0.24500
7727776;-0.23500
7730553;-0.23000
7733331;-0.23000
7736109;-0.24000
7738887;-0.24500
7741664;-0.25500
7744442;-0.24500
7747220;-0.24000
7749998;-0.23500
7752776;-0.24500
7755553;-0.24000
7758331;-0.26500
7761109;-0.25000
7763887;-0.24000
7766664;-0.24500
7769442;-0.25000
7772220;-0.25000
7774998;-0.26000
7777776;-0.25000
7780553;-0.23500
7783331;-0.24000
7786109;-0.24500
7788887;-0.25000
7791664;-0.25500
7794442;-0.24000
7797220;-0.25000
7799998;-0.23500
7802776;-0.24500
7805553;-0.24500
7808331;-0.25000
7811109;-0.24500
7813887;-0.23500
7816664;-0.25000
7819442;-0.25000
7822220;-0.25000
7824998;-0.25500
7827776;-0.25000
7830553;-0.24500
7833331;-0.22500
7836109;-0.24000
7838887;-0.24500
7841664;-0.24500
7844442;-0.23000
7847220;-0.23000
7849998;-0.22500
7852776;-0.23500
7855553;-0.24500
7858331;-0.24500
7861109;-0.23500
7863887;-0.22500
7866664;-0.22500
7869442;-0.23000
7872220;-0.23500
7874998;-0.24000
7877776;-0.21500
7880553;-0.20500
7883331;-0.18500
7886109;-0.17500
7888887;-0.17500
7891664;-0.17000
7894442;-0.16500
7897220;-0.15500
7899998;-0.15000
7902776;-0.15500
7905553;-0.14500
7908331;-0.14500
7911109;-0.13500
7913887;-0.13000
7916664;-0.12000
7919442;-0.12500
7922220;-0.13500
7924998;-0.14500
7927776;-0.14000
7930553;-0.13500
7933331;-0.16000
7936109;-0.15000
7938887;-0.16000
7941664;-0.17500
7944442;-0.16500
7947220;-0.14500
7949998;-0.14500
7952776;-0.12000
7955553;-0.12500
7958331;-0.12000
7961109;-0.13000
7963887;-0.15000
7966664;-0.17000
7969442;-0.18000
7972220;-0.19500
7974998;-0.21000
7977776;-0.21500
7980553;-0.21500
7983331;-0.22000
7986109;-0.24000
7988887;-0.24500
7991664;-0.25500
7994442;-0.24500
7997220;-0.24000
7999998;-0.23500
8002776;-0.25500
8005553;-0.26500
8008331;-0.27000
8011109;-0.25500
8013887;-0.24500
8016664;-0.25000
8019442;-0.25500
8022220;-0.26500
8024998;-0.26500
8027776;-0.26000
8030553;-0.26000
8033331;-0.25500
8036109;-0.25000
8038887;-0.26500
8041664;-0.26500
8044442;-0.28000
8047220;-0.25000
8049998;-0.25500
8052776;-0.27000
8055553;-0.30500
8058331;-0.36000
8061109;-0.39000
8063887;-0.40500
8066664;-0.41000
8069442;-0.46500
8072220;-0.46500
8074998;-0.41500
8077776;-0.27000
8080553;-0.11500
8083331;0.05500
8086109;0.24000
8088887;0.49500
8091664;0.77500
8094442;0.99000
8097220;1.10000
8099998;1.06500
8102776;0.81000
8105553;0.36500
8108331;-0.09000
8111109;-0.35500
8113887;-0.40000
8116664;-0.35000
8119442;-0.29500
8122220;-0.29500
8124998;-0.29000
8127776;-0.29000
8130553;-0.28500
8133331;-0.29500
8136109;-0.29000
8138887;-0.31500
8141664;-0.31000
8144442;-0.31000
8147220;-0.30000
8149998;-0.31000
8152775;-0.31000
8155553;-0.32000
8158331;-0.31500
8161109;-0.31000
8163887;-0.30500
8166664;-0.30500
8169442;-0.31500
8172220;-0.31000
8174998;-0.31500
8177775;-0.31000
8180553;-0.30000
8183331;-0.30500
8186109;-0.30500
8188887;-0.32000
8191664;-0.31500
8194442;-0.31500
8197220;-0.30500
8199998;-0.30000
8202775;-0.29000
8205553;-0.30000
8208331;-0.30500
8211109;-0.30000
8213887;-0.30000
8216664;-0.30000
8219442;-0.31000
8222220;-0.32500
8224998;-0.32000
8227775;-0.31000
8230553;-0.30000
8233331;-0.29500
8236109;-0.31500
8238887;-0.30500
8241664;-0.31000
8244442;-0.31500
8247220;-0.31500
8249998;-0.31500
8252775;-0.31500
8255553;-0.33000
8258331;-0.33000
8261109;-0.31500
8263887;-0.32500
8266664;-0.31000
8269442;-0.32000
8272220;-0.32500
8274998;-0.32500
8277775;-0.32000
8280553;-0.31000
8283331;-0.32000
8286109;-0.32500
8288887;-0.32000
8291664;-0.33500
8294442;-0.31000
8297220;-0.31500
8299998;-0.32000
8302775;-0.33000
8305553;-0.33000
8308331;-0.34500
8311109;-0.34000
8313887;-0.32500
8316664;-0.31500
8319442;-0.32500
8322220;-0.33500
8324998;-0.34500
8327775;-0.33500
8330553;-0.32000
8333331;-0.32500
8336109;-0.34000
8338887;-0.35000
8341664;-0.34500
8344442;-0.33000
8347220;-0.32500
8349998;-0.33000
8352775;-0.33500
8355553;-0.33000
8358331;-0.34000
8361109;-0.32500
8363887;-0.32000
8366664;-0.31000
8369442;-0.30500
8372220;-0.30500
8374998;-0.29500
8377775;-0.28000
8380553;-0.26500
8383331;-0.25000
8386109;-0.25500
8388887;-0.25000
8391664;-0.25000
8394442;-0.23000
8397220;-0.22000
8399998;-0.21500
8402775;-0.22500
8405553;-0.22500
8408331;-0.21500
8411109;-0.20500
8413887;-0.20500
8416664;-0.19000
8419442;-0.20000
8422220;-0.20500
8424998;-0.21500
8427775;-0.19500
8430553;-0.19500
8433331;-0.19000
8436109;-0.19500
8438887;-0.19500
8441664;-0.21000
8444442;-0.19500
8447220;-0.18500
8449998;-0.18500
8452775;-0.19500
8455553;-0.20500
8458331;-0.21000
8461109;-0.20500
8463887;-0.19500
8466664;-0.18500
8469442;-0.20000
8472220;-0.20000
8474998;-0.22500
8477775;-0.22000
8480553;-0.20500
8483331;-0.20000
8486109;-0.21000
8488887;-0.22000
8491664;-0.22500
8494442;-0.21500
8497220;-0.21000
8499998;-0.22500
8502775;-0.22000
8505553;-0.21500
8508331;-0.22500
8511109;-0.22500
8513887;-0.20500
8516664;-0.21000
8519442;-0.21500
8522220;-0.22500
8524998;-0.24500
8527775;-0.22000
8530553;-0.23000
8533331;-0.23000
8536109;-0.23000
8538886;-0.24000
8541664;-0.25000
8544442;-0.24500
8547220;-0.23000
8549998;-0.23500
8552775;-0.23500
8555553;-0.25000
8558331;-0.26500
8561109;-0.25500
8563886;-0.24500
8566664;-0.24500
8569442;-0.24500
8572220;-0.25500
8574998;-0.26500
8577775;-0.25000
8580553;-0.24500
8583331;-0.23500
8586109;-0.24500
8588886;-0.25000
8591664;-0.26000
8594442;-0.25000
8597220;-0.24500
8599998;-0.23500
8602775;-0.24000
8605553;-0.24500
8608331;-0.25500
8611109;-0.25000
8613886;-0.23500
8616664;-0.24000
8619442;-0.24000
8622220;-0.24500
8624998;-0.25000
8627775;-0.24000
8630553;-0.22500
8633331;-0.23500
8636109;-0.23000
8638886;-0.25000
8641664;-0.25500
8644442;-0.24500
8647220;-0.22500
8649998;-0.22500
8652775;-0.24000
8655553;-0.24000
8658331;-0.24000
8661109;-0.23000
8663886;-0.23000
8666664;-0.21500
8669442;-0.21500
8672220;-0.21500
8674998;-0.20500
8677775;-0.18500
8680553;-0.17500
8683331;-0.16500
8686109;-0.17000
8688886;-0.16500
8691664;-0.16500
8694442;-0.15000
8697220;-0.13000
8699998;-0.13000
8702775;-0.12500
8705553;-0.13000
8708331;-0.13000
8711109;-0.13000
8713886;-0.12000
8716664;-0.11500
8719442;-0.13500
8722220;-0.14000
8724998;-0.14500
8727775;-0.13500
8730553;-0.12000
8733331;-0.14500
8736109;-0.15000
8738886;-0.15000
8741664;-0.13500
8744442;-0.10500
8747220;-0.09000
8749998;-0.11500
8752775;-0.15500
8755553;-0.18000
8758331;-0.19000
8761109;-0.19500
8763886;-0.19500
8766664;-0.20500
8769442;-0.22000
8772220;-0.22500
8774998;-0.23000
8777775;-0.22000
8780553;-0.23000
8783331;-0.22000
8786109;-0.24000
8788886;-0.26000
8791664;-0.24500
8794442;-0.23000
8797220;-0.22000
8799998;-0.24500
8802775;-0.25500
8805553;-0.26000
8808331;-0.25500
8811109;-0.24500
8813886;-0.23500
8816664;-0.24500
8819442;-0.26500
8822220;-0.25500
8824998;-0.28500
8827775;-0.27000
8830553;-0.25000
8833331;-0.23500
8836109;-0.26500
8838886;-0.28000
8841664;-0.32000
8844442;-0.36000
8847220;-0.37500
8849998;-0.39500
8852775;-0.44000
8855553;-0.47000
8858331;-0.44000
8861109;-0.32000
8863886;-0.21000
8866664;-0.07000
8869442;0.08500
8872220;0.28000
8874998;0.54000
8877775;0.77500
8880553;0.94000
8883331;1.02500
8886109;1.08000
8888886;1.11000
8891664;1.04000
8894442;0.84000
8897220;0.51500
8899998;0.13000
8902775;-0.19000
8905553;-0.35000
8908331;-0.40500
8911109;-0.37000
8913886;-0.32000
8916664;-0.30000
8919442;-0.28500
8922220;-0.29000
8924998;-0.30000
8927775;-0.29000
8930553;-0.29000
8933331;-0.30500
8936109;-0.30000
8938886;-0.30000
8941664;-0.30000
8944442;-0.29000
8947220;-0.28500
8949997;-0.29000
8952775;-0.30000
8955553;-0.30000
8958331;-0.30500
8961109;-0.30000
8963886;-0.29500
8966664;-0.29500
8969442;-0.29500
8972220;-0.30000
8974997;-0.30000
8977775;-0.30500
8980553;-0.29000
8983331;-0.29500
8986109;-0.31000
8988886;-0.32000
8991664;-0.32500
8994442;-0.32000
8997220;-0.29000
8999997;-0.30500
9002775;-0.30500
9005553;-0.32000
9008331;-0.33000
9011109;-0.33500
9013886;-0.31000
9016664;-0.30500
9019442;-0.30000
9022220;-0.31000
9024997;-0.31500
9027775;-0.32000
9030553;-0.30000
9033331;-0.29500
9036109;-0.29500
9038886;-0.30500
9041664;-0.32000
9044442;-0.31000
9047220;-0.30000
9049997;-0.29000
9052775;-0.29500
9055553;-0.30500
9058331;-0.31000
9061109;-0.29500
9063886;-0.28500
9066664;-0.29000
9069442;-0.29500
9072220;-0.31000
9074997;-0.32000
9077775;-0.30500
9080553;-0.29500
9083331;-0.30000
9086109;-0.30000
9088886;-0.31000
9091664;-0.31500
9094442;-0.31500
9097220;-0.30000
9099997;-0.29500
9102775;-0.30000
9105553;-0.30000
9108331;-0.31500
9111109;-0.32000
9113886;-0.30500
9116664;-0.32000
9119442;-0.31500
9122220;-0.31500
9124997;-0.33000
9127775;-0.32000
9130553;-0.32000
9133331;-0.32500
9136109;-0.33500
9138886;-0.35500
9141664;-0.35000
9144442;-0.33000
9147220;-0.32000
9149997;-0.32000
9152775;-0.33500
9155553;-0.34000
9158331;-0.34500
9161109;-0.33500
9163886;-0.31500
9166664;-0.31500
9169442;-0.32000
9172220;-0.33000
9174997;-0.32000
9177775;-0.28500
9180553;-0.27000
9183331;-0.26500
9186109;-0.24500
9188886;-0.24000
9191664;-0.25000
9194442;-0.23500
9197220;-0.23000
9199997;-0.24500
9202775;-0.24500
9205553;-0.24000
9208331;-0.24000
9211109;-0.22500
9213886;-0.20500
9216664;-0.19500
9219442;-0.20500
9222220;-0.22500
9224997;-0.23500
9227775;-0.22500
9230553;-0.22500
9233331;-0.22500
9236109;-0.22500
9238886;-0.22500
9241664;-0.23500
9244442;-0.21500
9247220;-0.20000
9249997;-0.21000
9252775;-0.21500
9255553;-0.21500
9258331;-0.23000
9261109;-0.22500
9263886;-0.21000
9266664;-0.21000
9269442;-0.21500
9272220;-0.22500
9274997;-0.23500
9277775;-0.23500
9280553;-0.22000
9283331;-0.23000
9286109;-0.24000
9288886;-0.24000
9291664;-0.26000
9294442;-0.24500
9297220;-0.23500
9299997;-0.23000
9302775;-0.24000
9305553;-0.25500
9308331;-0.25000
9311109;-0.24500
9313886;-0.25000
9316664;-0.25500
9319442;-0.26000
9322220;-0.26500
9324997;-0.27000
9327775;-0.27000
9330553;-0.25500
9333331;-0.26000
9336108;-0.26500
9338886;-0.28000
9341664;-0.29000
9344442;-0.29000
9347220;-0.27000
9349997;-0.27000
9352775;-0.26500
9355553;-0.26500
9358331;-0.27500
9361108;-0.27000
9363886;-0.27000
9366664;-0.26500
9369442;-0.27500
9372220;-0.27500
9374997;-0.29000
9377775;-0.29000
9380553;-0.27500
9383331;-0.27000
9386108;-0.28000
9388886;-0.29000
9391664;-0.28500
9394442;-0.28500
9397220;-0.28000
9399997;-0.28000
9402775;-0.28000
9405553;-0.27500
9408331;-0.26500
9411108;-0.26500
9413886;-0.25500
9416664;-0.27000
9419442;-0.27500
9422220;-0.28000
9424997;-0.28500
9427775;-0.30000
9430553;-0.28500
9433331;-0.27500
9436108;-0.26500
9438886;-0.27500
9441664;-0.28500
9444442;-0.27500
9447220;-0.27000
9449997;-0.26500
9452775;-0.25500
9455553;-0.25000
9458331;-0.24500
9461108;-0.21500
9463886;-0.20000
9466664;-0.19500
9469442;-0.20500
9472220;-0.20500
9474997;-0.21000
9477775;-0.19500
9480553;-0.17500
9483331;-0.16500
9486108;-0.17000
9488886;-0.17500
9491664;-0.18000
9494442;-0.17500
9497220;-0.17500
9499997;-0.16500
9502775;-0.18000
9505553;-0.19500
9508331;-0.19500
9511108;-0.19500
9513886;-0.18500
9516664;-0.19000
9519442;-0.20500
9522220;-0.21000
9524997;-0.23500
9527775;-0.23500
9530553;-0.21000
9533331;-0.21500
9536108;-0.19000
9538886;-0.18000
9541664;-0.20000
9544442;-0.21000
9547220;-0.22500
9549997;-0.24000
9552775;-0.26500
9555553;-0.29500
9558331;-0.30500
9561108;-0.29500
9563886;-0.29500
9566664;-0.30000
9569442;-0.30500
9572220;-0.31000
9574997;-0.31000
9577775;-0.31000
9580553;-0.30500
9583331;-0.30500
9586108;-0.30500
9588886;-0.31500
9591664;-0.31000
9594442;-0.30500
9597220;-0.29500
9599997;-0.30500
9602775;-0.31000
9605553;-0.31500
9608331;-0.32000
9611108;-0.30500
9613886;-0.29500
9616664;-0.30000
9619442;-0.31500
9622220;-0.32500
9624997;-0.33500
9627775;-0.33000
9630553;-0.35000
9633331;-0.37500
9636108;-0.40500
9638886;-0.44500
9641664;-0.49500
9644442;-0.51500
9647220;-0.48000
9649997;-0.37500
9652775;-0.23500
9655553;-0.09000
9658331;0.07500
9661108;0.31500
9663886;0.56000
9666664;0.77500
9669442;0.91500
9672220;0.95500
9674997;0.82000
9677775;0.55000
9680553;0.17000
9683331;-0.17000
9686108;-0.38000
9688886;-0.44500
9691664;-0.44500
9694442;-0.39000
9697220;-0.37000
9699997;-0.36000
9702775;-0.36000
9705553;-0.36500
9708331;-0.35500
9711108;-0.34000
9713886;-0.34000
9716664;-0.35500
9719442;-0.36000
9722220;-0.35500
9724997;-0.35000
9727775;-0.35000
9730553;-0.34000
9733331;-0.34500
9736108;-0.35500
9738886;-0.36500
9741664;-0.37000
9744442;-0.36500
9747219;-0.34000
9749997;-0.35000
9752775;-0.35000
9755553;-0.34000
9758331;-0.34500
9761108;-0.33500
9763886;-0.32500
9766664;-0.33500
9769442;-0.35000
9772219;-0.36500
9774997;-0.37500
9777775;-0.36000
9780553;-0.34500
9783331;-0.35000
9786108;-0.35000
9788886;-0.36000
9791664;-0.38500
9794442;-0.37000
9797219;-0.35500
9799997;-0.36000
9802775;-0.36500
9805553;-0.35500
9808331;-0.37500
9811108;-0.37500
9813886;-0.36000
9816664;-0.36000
9819442;-0.37000
9822219;-0.37500
9824997;-0.37000
9827775;-0.37000
9830553;-0.36000
9833331;-0.36500
9836108;-0.37000
9838886;-0.37000
9841664;-0.37000
9844442;-0.35500
9847219;-0.35000
9849997;-0.36500
9852775;-0.36000
9855553;-0.36500
9858331;-0.38000
9861108;-0.35500
9863886;-0.35500
9866664;-0.36000
9869442;-0.37000
9872219;-0.36000
9874997;-0.37500
9877775;-0.37500
9880553;-0.38000
9883331;-0.36500
9886108;-0.37000
9888886;-0.37500
9891664;-0.39000
9894442;-0.37500
9897219;-0.37500
9899997;-0.36000
9902775;-0.37500
9905553;-0.38500
9908331;-0.38500
9911108;-0.38000
9913886;-0.37500
9916664;-0.38000
9919442;-0.39000
9922219;-0.40500
9924997;-0.42000
9927775;-0.42000
9930553;-0.41000
9933331;-0.41500
9936108;-0.41500
9938886;-0.43000
9941664;-0.44000
9944442;-0.44000
9947219;-0.43500
9949997;-0.42000
9952775;-0.43000
9955553;-0.42500
9958331;-0.44000
9961108;-0.42500
9963886;-0.42500
9966664;-0.40000
9969442;-0.41000
9972219;-0.41000
9974997;-0.39000
9977775;-0.38500
9980553;-0.36000
9983331;-0.35000
9986108;-0.34000
9988886;-0.34000
9991664;-0.35500
9994442;-0.32500
9997219;-0.31000
9999997;-0.29500
10002775;-0.29000
10005553;-0.30500
10008331;-0.29000
10011108;-0.28500
10013886;-0.26500
10016664;-0.26000
10019442;-0.26500
10022219;-0.26500
10024997;-0.27500
10027775;-0.26000
10030553;-0.23500
10033331;-0.24000
10036108;-0.24000
10038886;-0.25500
10041664;-0.25500
10044442;-0.26000
10047219;-0.24500
10049997;-0.24000
10052775;-0.25000
10055553;-0.25500
10058331;-0.25000
10061108;-0.26000
10063886;-0.25000
10066664;-0.25000
10069442;-0.25500
10072219;-0.26000
10074997;-0.27000
10077775;-0.26000
10080553;-0.25500
10083331;-0.24500
10086108;-0.26000
10088886;-0.26000
10091664;-0.26500
10094442;-0.25500
10097219;-0.25500
10099997;-0.25000
10102775;-0.27000
10105553;-0.27000
10108331;-0.27500
10111108;-0.26500
10113886;-0.26000
10116664;-0.26000
10119442;-0.26500
10122219;-0.28000
10124997;-0.29000
10127775;-0.28500
10130553;-0.27000
10133330;-0.27500
10136108;-0.28000
10138886;-0.28500
10141664;-0.29000
10144442;-0.27000
10147219;-0.27500
10149997;-0.28000
10152775;-0.28000
10155553;-0.29500
10158330;-0.30500
10161108;-0.29000
10163886;-0.28000
10166664;-0.28000
10169442;-0.28500
10172219;-0.29500
10174997;-0.29000
10177775;-0.29500
10180553;-0.28500
10183330;-0.28000
10186108;-0.29000
10188886;-0.30000
10191664;-0.30000
10194442;-0.29500
10197219;-0.28000
10199997;-0.28000
10202775;-0.28500
10205553;-0.29500
10208330;-0.29000
10211108;-0.29000
10213886;-0.29000
10216664;-0.28000
10219442;-0.28500
10222219;-0.29000
10224997;-0.29000
10227775;-0.28000
10230553;-0.28000
10233330;-0.29000
10236108;-0.28500
10238886;-0.29500
10241664;-0.30000
10244442;-0.29000
10247219;-0.28000
10249997;-0.28500
10252775;-0.29500
10255553;-0.29500
10258330;-0.29500
10261108;-0.30000
10263886;-0.28000
10266664;-0.28500
10269442;-0.29000
10272219;-0.29000
10274997;-0.29000
10277775;-0.28000
10280553;-0.27000
10283330;-0.27000
10286108;-0.27500
10288886;-0.28000
10291664;-0.29000
10294442;-0.27000
10297219;-0.26500
10299997;-0.24500
10302775;-0.23500
10305553;-0.22500
10308330;-0.22500
10311108;-0.22000
10313886;-0.21500
10316664;-0.20000
10319442;-0.20000
10322219;-0.20500
10324997;-0.21500
10327775;-0.19500
10330553;-0.18000
10333330;-0.17000
10336108;-0.17500
10338886;-0.18000
10341664;-0.20000
10344442;-0.19000
10347219;-0.19000
10349997;-0.19000
10352775;-0.19500
10355553;-0.21000
10358330;-0.20500
10361108;-0.20500
10363886;-0.21000
10366664;-0.20000
10369442;-0.19000
10372219;-0.17500
10374997;-0.17500
10377775;-0.18500
10380553;-0.21000
10383330;-0.22000
10386108;-0.23500
10388886;-0.25500
10391664;-0.28000
10394442;-0.27500
10397219;-0.28500
10399997;-0.29000
10402775;-0.29500
10405553;-0.30500
10408330;-0.30500
10411108;-0.30500
10413886;-0.28500
10416664;-0.28000
10419442;-0.29500
10422219;-0.29500
10424997;-0.30500
10427775;-0.30500
10430553;-0.30000
10433330;-0.31500
10436108;-0.30500
10438886;-0.31500
10441664;-0.33000
10444442;-0.30500
10447219;-0.29500
10449997;-0.29500
10452775;-0.30500
10455553;-0.30500
10458330;-0.29500
10461108;-0.28500
10463886;-0.28500
10466664;-0.29000
10469442;-0.29500
10472219;-0.30000
10474997;-0.31500
10477775;-0.29500
10480553;-0.32000
10483330;-0.33000
10486108;-0.38500
10488886;-0.42500
10491664;-0.45000
10494442;-0.45500
10497219;-0.47500
10499997;-0.50000
10502775;-0.48500
10505553;-0.40000
10508330;-0.25500
10511108;-0.10000
10513886;0.07000
10516664;0.28000
10519441;0.52500
10522219;0.76500
10524997;0.94500
10527775;1.05500
10530553;1.05500
10533330;0.85000
10536108;0.46000
10538886;0.02000
10541664;-0.31000
10544441;-0.43500
10547219;-0.42500
10549997;-0.38000
10552775;-0.33500
10555553;-0.33000
10558330;-0.33500
10561108;-0.34500
10563886;-0.34000
10566664;-0.33500
10569441;-0.35000
10572219;-0.34500
10574997;-0.36000
10577775;-0.35500
10580553;-0.35500
10583330;-0.33500
10586108;-0.34500
10588886;-0.35500
10591664;-0.37000
10594441;-0.35000
10597219;-0.35500
10599997;-0.34500
10602775;-0.35500
10605553;-0.36000
10608330;-0.35500
10611108;-0.36000
10613886;-0.35500
10616664;-0.35500
10619441;-0.35000
10622219;-0.35000
10624997;-0.36000
10627775;-0.35000
10630553;-0.34000
10633330;-0.34000
10636108;-0.34500
10638886;-0.36500
10641664;-0.36500
10644441;-0.35500
10647219;-0.34000
10649997;-0.35500
10652775;-0.36000
10655553;-0.35500
10658330;-0.36500
10661108;-0.36000
10663886;-0.34500
10666664;-0.35000
10669441;-0.35000
10672219;-0.35500
10674997;-0.36000
10677775;-0.35500
10680553;-0.35000
10683330;-0.34000
10686108;-0.34000
10688886;-0.35500
10691664;-0.35000
10694441;-0.35000
10697219;-0.34000
10699997;-0.34000
10702775;-0.35000
10705553;-0.34000
10708330;-0.34500
10711108;-0.34500
10713886;-0.33500
10716664;-0.35000
10719441;-0.35000
10722219;-0.35500
10724997;-0.35000
10727775;-0.35500
10730553;-0.34500
10733330;-0.34500
10736108;-0.33500
10738886;-0.35000
10741664;-0.36000
10744441;-0.36500
10747219;-0.35500
10749997;-0.35500
10752775;-0.35500
10755553;-0.36000
10758330;-0.37500
10761108;-0.36500
10763886;-0.36500
10766664;-0.36000
10769441;-0.36500
10772219;-0.37500
10774997;-0.38500
10777775;-0.37500
10780553;-0.38000
10783330;-0.37500
10786108;-0.37500
10788886;-0.38500
10791664;-0.39500
10794441;-0.38000
10797219;-0.37500
10799997;-0.37500
10802775;-0.38000
10805553;-0.38000
10808330;-0.39500
10811108;-0.37000
10813886;-0.36000
10816664;-0.35500
10819441;-0.35500
10822219;-0.35500
10824997;-0.35000
10827775;-0.34000
10830553;-0.32000
10833330;-0.30000
10836108;-0.30000
10838886;-0.28500
10841664;-0.29000
10844441;-0.27500
10847219;-0.26500
10849997;-0.25500
10852775;-0.25000
10855553;-0.23500
10858330;-0.24500
10861108;-0.23000
10863886;-0.22000
10866664;-0.22000
10869441;-0.22000
10872219;-0.23500
10874997;-0.25000
10877775;-0.22500
10880553;-0.22000
10883330;-0.22500
10886108;-0.23000
10888886;-0.23500
10891664;-0.23000
10894441;-0.22500
10897219;-0.21000
10899997;-0.21000
10902775;-0.20500
10905553;-0.21000
10908330;-0.22000
10911108;-0.22000
10913886;-0.21000
10916664;-0.21000
10919441;-0.22500
10922219;-0.22500
10924997;-0.23000
10927775;-0.22500
10930552;-0.21000
10933330;-0.21500
10936108;-0.21500
10938886;-0.23000
10941664;-0.24500
10944441;-0.23000
10947219;-0.23000
10949997;-0.23500
10952775;-0.23500
10955552;-0.25000
10958330;-0.25000
10961108;-0.24500
10963886;-0.24000
10966664;-0.25000
10969441;-0.25500
10972219;-0.26000
10974997;-0.26500
10977775;-0.25500
10980552;-0.25500
10983330;-0.26500
10986108;-0.28500
10988886;-0.27500
10991664;-0.27000
10994441;-0.27000
10997219;-0.26500
10999997;-0.26500
11002775;-0.27000
11005552;-0.28500
11008330;-0.28000
11011108;-0.28000
11013886;-0.27500
11016664;-0.27000
11019441;-0.27500
11022219;-0.29000
11024997;-0.28500
11027775;-0.28500
11030552;-0.28000
11033330;-0.28000
11036108;-0.28000
11038886;-0.28500
11041664;-0.29000
11044441;-0.28500
11047219;-0.27500
11049997;-0.26500
11052775;-0.27500
11055552;-0.27500
11058330;-0.29500
11061108;-0.28500
11063886;-0.28500
11066664;-0.28000
11069441;-0.28000
11072219;-0.29500
11074997;-0.30000
11077775;-0.29000
11080552;-0.28500
11083330;-0.28500
11086108;-0.28500
11088886;-0.27500
11091664;-0.29000
11094441;-0.27500
11097219;-0.27500
11099997;-0.27500
11102775;-0.28000
11105552;-0.29000
11108330;-0.28500
11111108;-0.27000
11113886;-0.27000
11116664;-0.27000
11119441;-0.27500
11122219;-0.27000
11124997;-0.27000
11127775;-0.26500
11130552;-0.25000
11133330;-0.23000
11136108;-0.22000
11138886;-0.22000
11141664;-0.22500
11144441;-0.20500
11147219;-0.20500
11149997;-0.19000
11152775;-0.20000
11155552;-0.19500
11158330;-0.20000
11161108;-0.18000
11163886;-0.15500
11166664;-0.15500
11169441;-0.16000
11172219;-0.16500
11174997;-0.17500
11177775;-0.17500
11180552;-0.17000
11183330;-0.17000
11186108;-0.17500
11188886;-0.19000
11191664;-0.20500
11194441;-0.19500
11197219;-0.17500
11199997;-0.17500
11202775;-0.19000
11205552;-0.21000
11208330;-0.21000
11211108;-0.18000
11213886;-0.15500
11216664;-0.16000
11219441;-0.18500
11222219;-0.22000
11224997;-0.23500
11227775;-0.24000
11230552;-0.24500
11233330;-0.25500
11236108;-0.27000
11238886;-0.29500
11241664;-0.30500
11244441;-0.29000
11247219;-0.29000
11249997;-0.28500
11252775;-0.29500
11255552;-0.29500
11258330;-0.30500
11261108;-0.31000
11263886;-0.29500
11266664;-0.29500
11269441;-0.31000
11272219;-0.32000
11274997;-0.33000
11277775;-0.32000
11280552;-0.31000
11283330;-0.31000
11286108;-0.31500
11288886;-0.32000
11291664;-0.31500
11294441;-0.31500
11297219;-0.30000
11299997;-0.30000
11302775;-0.30500
11305552;-0.31500
11308330;-0.33000
11311108;-0.33500
11313886;-0.35500
11316663;-0.39000
11319441;-0.43000
11322219;-0.45500
11324997;-0.48500
11327775;-0.50000
11330552;-0.51500
11333330;-0.46000
11336108;-0.35500
11338886;-0.20500
11341663;-0.06000
11344441;0.12500
11347219;0.35000
11349997;0.63500
11352775;0.85500
11355552;1.00000
11358330;1.03500
11361108;0.96000
11363886;0.68000
11366663;0.27500
11369441;-0.11000
11372219;-0.35000
11374997;-0.43000
11377775;-0.40500
11380552;-0.35000
11383330;-0.32000
11386108;-0.30500
11388886;-0.32500
11391663;-0.35000
11394441;-0.34500
11397219;-0.32500
11399997;-0.33500
11402775;-0.34000
11405552;-0.34500
11408330;-0.36500
11411108;-0.34000
11413886;-0.34500
11416663;-0.33500
11419441;-0.34500
11422219;-0.35500
11424997;-0.35500
11427775;-0.34500
11430552;-0.33500
11433330;-0.33500
11436108;-0.33500
11438886;-0.36000
11441663;-0.34500
11444441;-0.33500
11447219;-0.33500
11449997;-0.33000
11452775;-0.34500
11455552;-0.34500
11458330;-0.35000
11461108;-0.35000
11463886;-0.34500
11466663;-0.33500
11469441;-0.35000
11472219;-0.35500
11474997;-0.36000
11477775;-0.35000
11480552;-0.34500
11483330;-0.34000
11486108;-0.35000
11488886;-0.35500
11491663;-0.36000
11494441;-0.35500
11497219;-0.34500
11499997;-0.33500
11502775;-0.34500
11505552;-0.35000
11508330;-0.36000
11511108;-0.35000
11513886;-0.34500
11516663;-0.33500
11519441;-0.34000
11522219;-0.34500
11524997;-0.36000
11527775;-0.34500
11530552;-0.34000
11533330;-0.34500
11536108;-0.34500
11538886;-0.35500
11541663;-0.36000
11544441;-0.36000
11547219;-0.34500
11549997;-0.34500
11552775;-0.35000
11555552;-0.35500
11558330;-0.36000
11561108;-0.35000
11563886;-0.34000
11566663;-0.33500
11569441;-0.35000
11572219;-0.35000
11574997;-0.35500
11577775;-0.36000
11580552;-0.34500
11583330;-0.35000
11586108;-0.35000
11588886;-0.35000
11591663;-0.36500
11594441;-0.36500
11597219;-0.35000
11599997;-0.35500
11602775;-0.36000
11605552;-0.36500
11608330;-0.37000
11611108;-0.37000
11613886;-0.36500
11616663;-0.36000
11619441;-0.36000
11622219;-0.36500
11624997;-0.37000
11627775;-0.36500
11630552;-0.34000
11633330;-0.35000
11636108;-0.35000
11638886;-0.35500
11641663;-0.37000
11644441;-0.34500
11647219;-0.34000
11649997;-0.33500
11652775;-0.32500
11655552;-0.34000
11658330;-0.32500
11661108;-0.31000
11663886;-0.30000
11666663;-0.29000
11669441;-0.28500
11672219;-0.28500
11674997;-0.29500
11677775;-0.29000
11680552;-0.27000
11683330;-0.26500
11686108;-0.26000
11688886;-0.26500
11691663;-0.25000
11694441;-0.24500
11697219;-0.23000
11699997;-0.22500
11702775;-0.22000
11705552;-0.22000
11708330;-0.24000
11711108;-0.22000
11713886;-0.21500
11716663;-0.21000
11719441;-0.21000
11722219;-0.22500
11724997;-0.23000
11727774;-0.22500
11730552;-0.21000
11733330;-0.21500
11736108;-0.21500
11738886;-0.23000
11741663;-0.23500
11744441;-0.23000
11747219;-0.21000
11749997;-0.21500
11752774;-0.22500
11755552;-0.23500
11758330;-0.23500
11761108;-0.23000
11763886;-0.22000
11766663;-0.21500
11769441;-0.22500
11772219;-0.23500
11774997;-0.24000
11777774;-0.23500
11780552;-0.23500
11783330;-0.22500
11786108;-0.23000
11788886;-0.24000
11791663;-0.25500
11794441;-0.24500
11797219;-0.23500
11799997;-0.23500
11802774;-0.24500
11805552;-0.25000
11808330;-0.27000
11811108;-0.26000
11813886;-0.25500
11816663;-0.25500
11819441;-0.27000
11822219;-0.27000
11824997;-0.28000
11827774;-0.27500
11830552;-0.25000
11833330;-0.25500
11836108;-0.26000
11838886;-0.27000
11841663;-0.28000
11844441;-0.26500
11847219;-0.26000
11849997;-0.26500
11852774;-0.26500
11855552;-0.28500
11858330;-0.28500
11861108;-0.28000
11863886;-0.26500
11866663;-0.26500
11869441;-0.27000
11872219;-0.28500
11874997;-0.29500
11877774;-0.27000
11880552;-0.26000
11883330;-0.26500
11886108;-0.27000
11888886;-0.27500
11891663;-0.28000
11894441;-0.27000
11897219;-0.27000
11899997;-0.26000
11902774;-0.27000
11905552;-0.27000
11908330;-0.28000
11911108;-0.26500
11913886;-0.26000
11916663;-0.26000
11919441;-0.27000
11922219;-0.27000
11924997;-0.29500
11927774;-0.27500
11930552;-0.27000
11933330;-0.26000
11936108;-0.27000
11938886;-0.26000
11941663;-0.28000
11944441;-0.26500
11947219;-0.26500
11949997;-0.26500
11952774;-0.26500
11955552;-0.27000
11958330;-0.27000
11961108;-0.26500
11963886;-0.24500
11966663;-0.26000
11969441;-0.26500
11972219;-0.25000
11974997;-0.25000
11977774;-0.23500
11980552;-0.21000
11983330;-0.19500
11986108;-0.19500
11988886;-0.19500
11991663;-0.20000
11994441;-0.19500
11997219;-0.17000
11999997;-0.17000
12002774;-0.17000
12005552;-0.18000
12008330;-0.17000
12011108;-0.15500
12013886;-0.14000
12016663;-0.14000
12019441;-0.15500
12022219;-0.16000
12024997;-0.16500
12027774;-0.15000
12030552;-0.15500
12033330;-0.15500
12036108;-0.16000
12038886;-0.18000
12041663;-0.19500
12044441;-0.17500
12047219;-0.16500
12049997;-0.15500
12052774;-0.17000
12055552;-0.18500
12058330;-0.17000
12061108;-0.14500
12063886;-0.12500
12066663;-0.14000
12069441;-0.18000
12072219;-0.20500
12074997;-0.25000
12077774;-0.24000
12080552;-0.25500
12083330;-0.24500
12086108;-0.26000
12088886;-0.26500
12091663;-0.28000
12094441;-0.27000
12097219;-0.25500
12099997;-0.25500
12102774;-0.26500
12105552;-0.27500
12108330;-0.28000
12111108;-0.27500
12113885;-0.27000
12116663;-0.26500
12119441;-0.27000
12122219;-0.28000
12124997;-0.28500
12127774;-0.29000
12130552;-0.27000
12133330;-0.28000
12136108;-0.28500
12138885;-0.28500
12141663;-0.30000
12144441;-0.29000
12147219;-0.27500
12149997;-0.27500
12152774;-0.28500
12155552;-0.33000
12158330;-0.37500
12161108;-0.40000
12163885;-0.40000
12166663;-0.39500
12169441;-0.42000
12172219;-0.46500
12174997;-0.52000
12177774;-0.51000
12180552;-0.46000
12183330;-0.35000
12186108;-0.22500
12188885;-0.07000
12191663;0.10000
12194441;0.38000
12197219;0.66000
12199997;0.88500
12202774;0.99500
12205552;0.97500
12208330;0.75500
12211108;0.36500
12213885;-0.03000
12216663;-0.31500
12219441;-0.40500
12222219;-0.40500
12224997;-0.36000
12227774;-0.31500
12230552;-0.30000
12233330;-0.31000
12236108;-0.31000
12238885;-0.31000
12241663;-0.31000
12244441;-0.31500
12247219;-0.31000
12249997;-0.30500
12252774;-0.32500
12255552;-0.33000
12258330;-0.32000
12261108;-0.31000
12263885;-0.32000
12266663;-0.29500
12269441;-0.31000
12272219;-0.31000
12274997;-0.33500
12277774;-0.32000
12280552;-0.30000
12283330;-0.30500
12286108;-0.31500
12288885;-0.32000
12291663;-0.32500
12294441;-0.32000
12297219;-0.31500
12299997;-0.31500
12302774;-0.32500
12305552;-0.32000
12308330;-0.32500
12311108;-0.32500
12313885;-0.32000
12316663;-0.30000
12319441;-0.31000
12322219;-0.32000
12324997;-0.32500
12327774;-0.33000
12330552;-0.32500
12333330;-0.30500
12336108;-0.31000
12338885;-0.31000
12341663;-0.31500
12344441;-0.31000
12347219;-0.31000
12349997;-0.31000
12352774;-0.31500
12355552;-0.33000
12358330;-0.34000
12361108;-0.32500
12363885;-0.32000
12366663;-0.31000
12369441;-0.30500
12372219;-0.31000
12374997;-0.33000
12377774;-0.31500
12380552;-0.31500
12383330;-0.31000
12386108;-0.31500
12388885;-0.32500
12391663;-0.33000
12394441;-0.32000
12397219;-0.31500
12399997;-0.32500
12402774;-0.31500
12405552;-0.31500
12408330;-0.32000
12411108;-0.30500
12413885;-0.29500
12416663;-0.30500
12419441;-0.32000
12422219;-0.32500
12424997;-0.32000
12427774;-0.32500
12430552;-0.31500
12433330;-0.32000
12436108;-0.32000
12438885;-0.33000
12441663;-0.33500
12444441;-0.33500
12447219;-0.34000
12449997;-0.32000
12452774;-0.32500
12455552;-0.33500
12458330;-0.34000
12461108;-0.33500
12463885;-0.33000
12466663;-0.33000
12469441;-0.33000
12472219;-0.33500
12474997;-0.34500
12477774;-0.34500
12480552;-0.32000
12483330;-0.32500
12486108;-0.33000
12488885;-0.34500
12491663;-0.35000
12494441;-0.32000
12497219;-0.29500
12499996;-0.30500
12502774;-0.30000
12505552;-0.30500
12508330;-0.29000
12511108;-0.27500
12513885;-0.27000
12516663;-0.24500
12519441;-0.25000
12522219;-0.25500
12524996;-0.24500
12527774;-0.23500
12530552;-0.22500
12533330;-0.21500
12536108;-0.22500
12538885;-0.22000
12541663;-0.24000
12544441;-0.22500
12547219;-0.21000
12549996;-0.21500
12552774;-0.20500
12555552;-0.22000
12558330;-0.22000
12561108;-0.23000
12563885;-0.22000
12566663;-0.22000
12569441;-0.22000
12572219;-0.22000
12574996;-0.24000
12577774;-0.24000
12580552;-0.22000
12583330;-0.21500
12586108;-0.21000
12588885;-0.22000
12591663;-0.22500
12594441;-0.23000
12597219;-0.21500
12599996;-0.20500
12602774;-0.22000
12605552;-0.23500
12608330;-0.25500
12611108;-0.24000
12613885;-0.23000
12616663;-0.24000
12619441;-0.24500
12622219;-0.25500
12624996;-0.26500
12627774;-0.25000
12630552;-0.24500
12633330;-0.25500
12636108;-0.25000
12638885;-0.26000
12641663;-0.28000
12644441;-0.27000
12647219;-0.25500
12649996;-0.25000
12652774;-0.25000
12655552;-0.26500
12658330;-0.28000
12661108;-0.28000
12663885;-0.26000
12666663;-0.25500
12669441;-0.26500
12672219;-0.26500
12674996;-0.28000
12677774;-0.28500
12680552;-0.26500
12683330;-0.27000
12686108;-0.28500
12688885;-0.29500
12691663;-0.29500
12694441;-0.29500
12697219;-0.27500
12699996;-0.28000
12702774;-0.26500
12705552;-0.26000
12708330;-0.28000
12711108;-0.27000
12713885;-0.27000
12716663;-0.28500
12719441;-0.28000
12722219;-0.29000
12724996;-0.30000
12727774;-0.30000
12730552;-0.27500
12733330;-0.28000
12736108;-0.27000
12738885;-0.29000
12741663;-0.29500
12744441;-0.28500
12747219;-0.28500
12749996;-0.28500
12752774;-0.29500
12755552;-0.29500
12758330;-0.29500
12761108;-0.28500
12763885;-0.27500
12766663;-0.25500
12769441;-0.28000
12772219;-0.28000
12774996;-0.28500
12777774;-0.27000
12780552;-0.26000
12783330;-0.25500
12786108;-0.24000
12788885;-0.24000
12791663;-0.24000
12794441;-0.23500
12797219;-0.22000
12799996;-0.22000
12802774;-0.21000
12805552;-0.21000
12808330;-0.21000
12811108;-0.19000
12813885;-0.19500
12816663;-0.19000
12819441;-0.19500
12822219;-0.20000
12824996;-0.20000
12827774;-0.19000
12830552;-0.20500
12833330;-0.19000
12836108;-0.19500
12838885;-0.19500
12841663;-0.21500
12844441;-0.21000
12847219;-0.19500
12849996;-0.21500
12852774;-0.22500
12855552;-0.21500
12858330;-0.21500
12861108;-0.20500
12863885;-0.20000
12866663;-0.21500
12869441;-0.24500
12872219;-0.27000
12874996;-0.30000
12877774;-0.29500
12880552;-0.30000
12883330;-0.30000
12886108;-0.32500
12888885;-0.32500
12891663;-0.32500
12894441;-0.31000
12897219;-0.30500
12899996;-0.31500
12902774;-0.31500
12905552;-0.32500
12908330;-0.33000
12911107;-0.32000
12913885;-0.32000
12916663;-0.32500
12919441;-0.34000
12922219;-0.34000
12924996;-0.34500
12927774;-0.34000
12930552;-0.32500
12933330;-0.30000
12936107;-0.29500
12938885;-0.31500
12941663;-0.31500
12944441;-0.31500
12947219;-0.30500
12949996;-0.33000
12952774;-0.36500
12955552;-0.40000
12958330;-0.43500
12961107;-0.44000
12963885;-0.46000
12966663;-0.51500
12969441;-0.49000
12972219;-0.42500
12974996;-0.29000
12977774;-0.14000
12980552;0.05000
12983330;0.29000
12986107;0.55000
12988885;0.76500
12991663;0.90000
12994441;0.90500
12997219;0.72500
12999996;0.39000
13002774;-0.02000
13005552;-0.30500
13008330;-0.44000
13011107;-0.46000
13013885;-0.43000
13016663;-0.38000
13019441;-0.35000
13022219;-0.36000
13024996;-0.37500
13027774;-0.36500
13030552;-0.35500
13033330;-0.35000
13036107;-0.35500
13038885;-0.35500
13041663;-0.36500
13044441;-0.35000
13047219;-0.35500
13049996;-0.35000
13052774;-0.35500
13055552;-0.36000
13058330;-0.37000
13061107;-0.36500
13063885;-0.36000
13066663;-0.36500
13069441;-0.38000
13072219;-0.38000
13074996;-0.38500
13077774;-0.38000
13080552;-0.36500
13083330;-0.36500
13086107;-0.37500
13088885;-0.37000
13091663;-0.38000
13094441;-0.36500
13097219;-0.37000
13099996;-0.36500
13102774;-0.37500
13105552;-0.37000
13108330;-0.38000
13111107;-0.36500
13113885;-0.35000
13116663;-0.36500
13119441;-0.37500
13122219;-0.37500
13124996;-0.39000
13127774;-0.38000
13130552;-0.38000
13133330;-0.36500
13136107;-0.38000
13138885;-0.36500
13141663;-0.38000
13144441;-0.36500
13147219;-0.36500
13149996;-0.37500
13152774;-0.37000
13155552;-0.39500
13158330;-0.39500
13161107;-0.37000
13163885;-0.35500
13166663;-0.35500
13169441;-0.37500
13172219;-0.37500
13174996;-0.37500
13177774;-0.36000
13180552;-0.35500
13183330;-0.35000
13186107;-0.36000
13188885;-0.36500
13191663;-0.37000
13194441;-0.38000
13197219;-0.37500
13199996;-0.37500
13202774;-0.38500
13205552;-0.40000
13208330;-0.40500
13211107;-0.39500
13213885;-0.38500
13216663;-0.38500
13219441;-0.38500
13222219;-0.40500
13224996;-0.41500
13227774;-0.42500
13230552;-0.42500
13233330;-0.41500
13236107;-0.43500
13238885;-0.44000
13241663;-0.45000
13244441;-0.43500
13247219;-0.43500
13249996;-0.43000
13252774;-0.43500
13255552;-0.44000
13258330;-0.44000
13261107;-0.43500
13263885;-0.40500
13266663;-0.40000
13269441;-0.39500
13272219;-0.39500
13274996;-0.38500
13277774;-0.36000
13280552;-0.35000
13283330;-0.33000
13286107;-0.33000
13288885;-0.32500
13291663;-0.33500
13294441;-0.30500
13297218;-0.29000
13299996;-0.27500
13302774;-0.27000
13305552;-0.27500
13308330;-0.28000
13311107;-0.26500
13313885;-0.25500
13316663;-0.25500
13319441;-0.26000
13322218;-0.26000
13324996;-0.26500
13327774;-0.25000
13330552;-0.24500
13333330;-0.25000
13336107;-0.24500
13338885;-0.24500
13341663;-0.26500
13344441;-0.25000
13347218;-0.24000
13349996;-0.24000
13352774;-0.24500
13355552;-0.26500
13358330;-0.26500
13361107;-0.26000
13363885;-0.24500
13366663;-0.24500
13369441;-0.24000
13372218;-0.26000
13374996;-0.27000
13377774;-0.25000
13380552;-0.27000
13383330;-0.26000
13386107;-0.26000
13388885;-0.27000
13391663;-0.27000
13394441;-0.26500
13397218;-0.27000
13399996;-0.26000
13402774;-0.26500
13405552;-0.28000
13408330;-0.29000
13411107;-0.28000
13413885;-0.27500
13416663;-0.27500
13419441;-0.26500
13422218;-0.28000
13424996;-0.28500
13427774;-0.27500
13430552;-0.28000
13433330;-0.28500
13436107;-0.30000
13438885;-0.29000
13441663;-0.30000
13444441;-0.28500
13447218;-0.27500
13449996;-0.28500
13452774;-0.28000
13455552;-0.29500
13458330;-0.29500
13461107;-0.28500
13463885;-0.28000
13466663;-0.27500
13469441;-0.27500
13472218;-0.28500
13474996;-0.28000
13477774;-0.27500
13480552;-0.27500
13483330;-0.27500
13486107;-0.28000
13488885;-0.28500
13491663;-0.29500
13494441;-0.29000
13497218;-0.28000
13499996;-0.29000
13502774;-0.28500
13505552;-0.30000
13508330;-0.31000
13511107;-0.29000
13513885;-0.30000
13516663;-0.28500
13519441;-0.29500
13522218;-0.30000
13524996;-0.29500
13527774;-0.29500
13530552;-0.29000
13533330;-0.28000
13536107;-0.28500
13538885;-0.29500
13541663;-0.29500
13544441;-0.30000
13547218;-0.29000
13549996;-0.29000
13552774;-0.28000
13555552;-0.27500
13558330;-0.28500
13561107;-0.28500
13563885;-0.27000
13566663;-0.25000
13569441;-0.23500
13572218;-0.24500
13574996;-0.24000
13577774;-0.22500
13580552;-0.22000
13583330;-0.21500
13586107;-0.21000
13588885;-0.20000
13591663;-0.20500
13594441;-0.20000
13597218;-0.18500
13599996;-0.17000
13602774;-0.17500
13605552;-0.19500
13608330;-0.20000
13611107;-0.20000
13613885;-0.20000
13616663;-0.19500
13619441;-0.19000
13622218;-0.20500
13624996;-0.22500
13627774;-0.21500
13630552;-0.20500
13633330;-0.18500
13636107;-0.17000
13638885;-0.18500
13641663;-0.22000
13644441;-0.24000
13647218;-0.24500
13649996;-0.25000
13652774;-0.28000
13655552;-0.29000
13658330;-0.31000
13661107;-0.30500
13663885;-0.29500
13666663;-0.30500
13669441;-0.32000
13672218;-0.32000
13674996;-0.31000
13677774;-0.31000
13680552;-0.31500
13683330;-0.32000
13686107;-0.31000
13688885;-0.32000
13691663;-0.33000
13694441;-0.32000
13697218;-0.31000
13699996;-0.31000
13702774;-0.31000
13705552;-0.31000
13708329;-0.32500
13711107;-0.31500
13713885;-0.30500
13716663;-0.31000
13719441;-0.31500
13722218;-0.32500
13724996;-0.35500
13727774;-0.38000
13730552;-0.42000
13733329;-0.45000
13736107;-0.47000
13738885;-0.51000
13741663;-0.52000
13744441;-0.44500
13747218;-0.29500
13749996;-0.13500
13752774;0.03000
13755552;0.20000
13758329;0.40000
13761107;0.65000
13763885;0.87500
13766663;1.02500
13769441;1.10000
13772218;1.17000
13774996;1.17000
13777774;1.04500
13780552;0.73500
13783329;0.26500
13786107;-0.16500
13788885;-0.39500
13791663;-0.45000
13794441;-0.39000
13797218;-0.34500
13799996;-0.31500
13802774;-0.32000
13805552;-0.33500
13808329;-0.34500
13811107;-0.34500
13813885;-0.33500
13816663;-0.33000
13819441;-0.34500
13822218;-0.34500
13824996;-0.36000
13827774;-0.35500
13830552;-0.34000
13833329;-0.34000
13836107;-0.35000
13838885;-0.34500
13841663;-0.35000
13844441;-0.35000
13847218;-0.34500
13849996;-0.35000
13852774;-0.34500
13855552;-0.35000
13858329;-0.36000
13861107;-0.36000
13863885;-0.35000
13866663;-0.35000
13869441;-0.34500
13872218;-0.35000
13874996;-0.37000
13877774;-0.36000
13880552;-0.34500
13883329;-0.34500
13886107;-0.35500
13888885;-0.36500
13891663;-0.36500
13894441;-0.35500
13897218;-0.35000
13899996;-0.34500
13902774;-0.33500
13905552;-0.35000
13908329;-0.35500
13911107;-0.36000
13913885;-0.35000
13916663;-0.35000
13919441;-0.36000
13922218;-0.35500
13924996;-0.37000
13927774;-0.35500
13930552;-0.36500
13933329;-0.36500
13936107;-0.34500
13938885;-0.35500
13941663;-0.37000
13944441;-0.37500
13947218;-0.35500
13949996;-0.35000
13952774;-0.35500
13955552;-0.36000
13958329;-0.36500
13961107;-0.37000
13963885;-0.37000
13966663;-0.35500
13969441;-0.35000
13972218;-0.36000
13974996;-0.36500
13977774;-0.36000
13980552;-0.37000
13983329;-0.37000
13986107;-0.38000
13988885;-0.38000
13991663;-0.39500
13994441;-0.38500
13997218;-0.38500
13999996;-0.38500
14002774;-0.38500
14005552;-0.39000
14008329;-0.40500
14011107;-0.38500
14013885;-0.39000
14016663;-0.39000
14019441;-0.39000
14022218;-0.39500
14024996;-0.40000
14027774;-0.38500
14030552;-0.38000
14033329;-0.36500
14036107;-0.36500
14038885;-0.38500
14041663;-0.37500
14044441;-0.37000
14047218;-0.35000
14049996;-0.34000
14052774;-0.33000
14055552;-0.32500
14058329;-0.33000
14061107;-0.30500
14063885;-0.29500
14066663;-0.28500
14069441;-0.27500
14072218;-0.27000
14074996;-0.27000
14077774;-0.26000
14080552;-0.25500
14083329;-0.22500
14086107;-0.22500
14088885;-0.24500
14091663;-0.25000
14094440;-0.23500
14097218;-0.22500
14099996;-0.23500
14102774;-0.22500
14105552;-0.22500
14108329;-0.24500
14111107;-0.24000
14113885;-0.22500
14116663;-0.23500
14119440;-0.23000
14122218;-0.24000
14124996;-0.24500
14127774;-0.24000
14130552;-0.23000
14133329;-0.23000
14136107;-0.24000
14138885;-0.24500
14141663;-0.25000
14144440;-0.25000
14147218;-0.24000
14149996;-0.24500
14152774;-0.26000
14155552;-0.25500
14158329;-0.27000
14161107;-0.26000
14163885;-0.25000
14166663;-0.24000
14169440;-0.24500
14172218;-0.25500
14174996;-0.26000
14177774;-0.25500
14180552;-0.25500
14183329;-0.24500
14186107;-0.26000
14188885;-0.26500
14191663;-0.28000
14194440;-0.27000
14197218;-0.26500
14199996;-0.26000
14202774;-0.27500
14205552;-0.28000
14208329;-0.28000
14211107;-0.29000
14213885;-0.27000
14216663;-0.26500
14219440;-0.27500
14222218;-0.28000
14224996;-0.29000
14227774;-0.29000
14230552;-0.28000
14233329;-0.28000
14236107;-0.27000
14238885;-0.28000
14241663;-0.30000
14244440;-0.29000
14247218;-0.28500
14249996;-0.27500
14252774;-0.29000
14255552;-0.29500
14258329;-0.28500
14261107;-0.29500
14263885;-0.29000
14266663;-0.27500
14269440;-0.29000
14272218;-0.29000
14274996;-0.29500
14277774;-0.30000
14280552;-0.28000
14283329;-0.27500
14286107;-0.29500
14288885;-0.29000
14291663;-0.28500
14294440;-0.29500
14297218;-0.27500
14299996;-0.28500
14302774;-0.27500
14305552;-0.29000
14308329;-0.29500
14311107;-0.28500
14313885;-0.27000
14316663;-0.27500
14319440;-0.27000
14322218;-0.27500
14324996;-0.29000
14327774;-0.29000
14330552;-0.27000
14333329;-0.27500
14336107;-0.27000
14338885;-0.27000
14341663;-0.28500
14344440;-0.27500
14347218;-0.25000
14349996;-0.24000
14352774;-0.22500
14355552;-0.22000
14358329;-0.22500
14361107;-0.21500
14363885;-0.21000
14366663;-0.20000
14369440;-0.19000
14372218;-0.18500
14374996;-0.19000
14377774;-0.18000
14380552;-0.17000
14383329;-0.16000
14386107;-0.18000
14388885;-0.18500
14391663;-0.19000
14394440;-0.19500
14397218;-0.19000
14399996;-0.18000
14402774;-0.18000
14405552;-0.18500
14408329;-0.20500
14411107;-0.20000
14413885;-0.18000
14416663;-0.15000
14419440;-0.14500
14422218;-0.15500
14424996;-0.19000
14427774;-0.22000
14430552;-0.22000
14433329;-0.22500
14436107;-0.24500
14438885;-0.25500
14441663;-0.28000
14444440;-0.28000
14447218;-0.28000
14449996;-0.27500
14452774;-0.29000
14455552;-0.29000
14458329;-0.29500
14461107;-0.30000
14463885;-0.29500
14466663;-0.28000
14469440;-0.29000
14472218;-0.29500
14474996;-0.30500
14477774;-0.30500
14480552;-0.29500
14483329;-0.31500
14486107;-0.31500
14488885;-0.31000
14491663;-0.32000
14494440;-0.31000
14497218;-0.31000
14499996;-0.30500
14502774;-0.30500
14505551;-0.32000
14508329;-0.34500
14511107;-0.36500
14513885;-0.39500
14516663;-0.43000
14519440;-0.45000
14522218;-0.48500
14524996;-0.52500
14527774;-0.51000
14530551;-0.40000
14533329;-0.24500
14536107;-0.06500
14538885;0.10500
14541663;0.32000
14544440;0.62500
14547218;0.88000
14549996;1.04500
14552774;1.10500
14555551;1.00000
14558329;0.68500
14561107;0.22500
14563885;-0.17500
14566663;-0.40000
14569440;-0.46500
14572218;-0.45500
14574996;-0.44000
14577774;-0.40500
14580551;-0.37000
14583329;-0.34000
14586107;-0.32000
14588885;-0.33500
14591663;-0.34500
14594440;-0.35000
14597218;-0.34500
14599996;-0.34000
14602774;-0.34500
14605551;-0.35000
14608329;-0.37000
14611107;-0.37000
14613885;-0.35000
14616663;-0.34500
14619440;-0.35000
14622218;-0.35500
14624996;-0.36500
14627774;-0.36000
14630551;-0.35000
14633329;-0.35000
14636107;-0.33500
14638885;-0.35500
14641663;-0.37000
14644440;-0.36500
14647218;-0.35000
14649996;-0.34500
14652774;-0.35500
14655551;-0.36000
14658329;-0.35500
14661107;-0.35500
14663885;-0.35500
14666663;-0.34000
14669440;-0.34500
14672218;-0.35000
14674996;-0.35500
14677774;-0.35000
14680551;-0.34000
14683329;-0.33500
14686107;-0.33500
14688885;-0.35000
14691663;-0.36500
14694440;-0.35000
14697218;-0.35000
14699996;-0.35000
14702774;-0.34500
14705551;-0.35000
14708329;-0.36500
14711107;-0.35500
14713885;-0.34000
14716663;-0.34000
14719440;-0.34500
14722218;-0.35500
14724996;-0.36500
14727774;-0.36000
14730551;-0.33500
14733329;-0.34000
14736107;-0.34500
14738885;-0.36000
14741663;-0.36500
14744440;-0.35500
14747218;-0.34500
14749996;-0.34000
14752774;-0.34500
14755551;-0.35000
14758329;-0.36000
14761107;-0.35000
14763885;-0.34500
14766663;-0.33500
14769440;-0.33500
14772218;-0.35500
14774996;-0.36500
14777774;-0.35500
14780551;-0.34500
14783329;-0.34000
14786107;-0.34500
14788885;-0.35000
14791663;-0.36500
14794440;-0.35500
14797218;-0.36000
14799996;-0.35000
14802774;-0.35000
14805551;-0.36500
14808329;-0.37000
14811107;-0.36000
14813885;-0.36000
14816663;-0.35500
14819440;-0.35500
14822218;-0.37000
14824996;-0.37000
14827774;-0.37500
14830551;-0.36500
14833329;-0.35000
14836107;-0.35500
14838885;-0.35500
14841663;-0.36000
14844440;-0.34500
14847218;-0.33000
14849996;-0.32000
14852774;-0.31000
14855551;-0.31500
14858329;-0.32000
14861107;-0.30000
14863885;-0.28000
14866663;-0.26500
14869440;-0.26500
14872218;-0.26000
14874996;-0.26500
14877774;-0.24500
14880551;-0.24000
14883329;-0.22000
14886107;-0.23000
14888885;-0.23000
14891662;-0.25000
14894440;-0.23500
14897218;-0.23000
14899996;-0.21500
14902774;-0.23000
14905551;-0.24000
14908329;-0.25000
14911107;-0.24000
14913885;-0.21500
14916662;-0.21500
14919440;-0.22000
14922218;-0.22000
14924996;-0.23500
14927774;-0.23500
14930551;-0.23000
14933329;-0.21500
14936107;-0.22500
14938885;-0.23500
14941662;-0.23000
14944440;-0.23000
14947218;-0.23000
14949996;-0.22000
14952774;-0.23000
14955551;-0.23000
14958329;-0.25000
14961107;-0.24000
14963885;-0.24500
14966662;-0.24500
14969440;-0.24500
14972218;-0.25000
14974996;-0.27000
14977774;-0.25000
14980551;-0.24500
14983329;-0.25500
14986107;-0.25000
14988885;-0.26000
14991662;-0.27500
14994440;-0.27000
14997218;-0.26500
14999996;-0.24500
15002774;-0.26000
15005551;-0.27000
15008329;-0.28000
15011107;-0.27500
15013885;-0.27000
15016662;-0.26000
15019440;-0.27000
15022218;-0.26500
15024996;-0.28500
15027774;-0.28000
15030551;-0.28000
15033329;-0.27500
15036107;-0.28500
15038885;-0.28000
15041662;-0.29000
15044440;-0.28000
15047218;-0.28000
15049996;-0.27500
15052774;-0.28000
15055551;-0.28500
15058329;-0.29500
15061107;-0.30500
15063885;-0.29000
15066662;-0.28000
15069440;-0.29000
15072218;-0.30500
15074996;-0.31000
15077774;-0.29500
15080551;-0.29000
15083329;-0.28500
15086107;-0.28000
15088885;-0.29500
15091662;-0.30500
15094440;-0.29500
15097218;-0.28500
15099996;-0.27500
15102774;-0.28500
15105551;-0.29500
15108329;-0.30500
15111107;-0.29500
15113885;-0.29500
15116662;-0.28500
15119440;-0.28500
15122218;-0.28000
15124996;-0.29000
15127774;-0.29500
15130551;-0.28000
15133329;-0.26000
15136107;-0.28000
15138885;-0.28000
15141662;-0.29000
15144440;-0.29000
15147218;-0.27500
15149996;-0.28000
15152774;-0.27000
15155551;-0.26000
15158329;-0.26500
15161107;-0.25000
15163885;-0.23000
15166662;-0.21000
15169440;-0.19500
15172218;-0.21500
15174996;-0.22500
15177774;-0.21000
15180551;-0.19500
15183329;-0.17000
15186107;-0.17000
15188885;-0.17500
15191662;-0.17500
15194440;-0.16500
15197218;-0.15000
15199996;-0.15000
15202774;-0.15500
15205551;-0.16500
15208329;-0.18000
15211107;-0.16500
15213885;-0.16500
15216662;-0.17000
15219440;-0.16000
15222218;-0.16500
15224996;-0.18000
15227774;-0.19000
15230551;-0.18500
15233329;-0.18500
15236107;-0.18000
15238885;-0.18500
15241662;-0.17500
15244440;-0.14500
15247218;-0.12000
15249996;-0.12000
15252774;-0.13500
15255551;-0.18000
15258329;-0.20500
15261107;-0.22500
15263885;-0.22500
15266662;-0.23000
15269440;-0.26000
15272218;-0.27000
15274996;-0.28000
15277774;-0.28500
15280551;-0.28500
15283329;-0.27500
15286107;-0.26500
15288885;-0.27000
15291662;-0.30000
15294440;-0.29500
15297218;-0.28000
15299996;-0.28500
15302773;-0.29500
15305551;-0.29500
15308329;-0.30000
15311107;-0.28000
15313885;-0.28000
15316662;-0.27000
15319440;-0.28000
15322218;-0.29500
15324996;-0.29500
15327773;-0.28000
15330551;-0.27000
15333329;-0.27500
15336107;-0.28000
15338885;-0.31500
15341662;-0.34500
15344440;-0.36000
15347218;-0.39000
15349996;-0.41000
15352773;-0.43500
15355551;-0.48000
15358329;-0.52000
15361107;-0.47000
15363885;-0.36000
15366662;-0.21000
15369440;-0.05500
15372218;0.12500
15374996;0.35000
15377773;0.63500
15380551;0.86000
15383329;0.99000
15386107;0.99000
15388885;0.81500
15391662;0.47000
15394440;0.07000
15397218;-0.25500
15399996;-0.39000
15402773;-0.40500
15405551;-0.38000
15408329;-0.34500
15411107;-0.31500
15413885;-0.30500
15416662;-0.31500
15419440;-0.32000
15422218;-0.33500
15424996;-0.33000
15427773;-0.32500
15430551;-0.30500
15433329;-0.31500
15436107;-0.32500
15438885;-0.33500
15441662;-0.33500
15444440;-0.34000
15447218;-0.33500
15449996;-0.32500
15452773;-0.31500
15455551;-0.33000
15458329;-0.34000
15461107;-0.32000
15463885;-0.31500
15466662;-0.31500
15469440;-0.32500
15472218;-0.33000
15474996;-0.33000
15477773;-0.31500
15480551;-0.31000
15483329;-0.31500
15486107;-0.32000
15488885;-0.33500
15491662;-0.35000
15494440;-0.34000
15497218;-0.33500
15499996;-0.32000
15502773;-0.32500
15505551;-0.33500
15508329;-0.33000
15511107;-0.33000
15513885;-0.33000
15516662;-0.32000
15519440;-0.33000
15522218;-0.34000
15524996;-0.34000
15527773;-0.33000
15530551;-0.32000
15533329;-0.31500
15536107;-0.31500
15538885;-0.31500
15541662;-0.32500
15544440;-0.33500
15547218;-0.32500
15549996;-0.32500
15552773;-0.32000
15555551;-0.32000
15558329;-0.34000
15561107;-0.33000
15563885;-0.30500
15566662;-0.31500
15569440;-0.30500
15572218;-0.32000
15574996;-0.33000
15577773;-0.33500
15580551;-0.34500
15583329;-0.33000
15586107;-0.33000
15588885;-0.33500
15591662;-0.32500
15594440;-0.31500
15597218;-0.31500
15599996;-0.31000
15602773;-0.31500
15605551;-0.33500
15608329;-0.35000
15611107;-0.34000
15613885;-0.33500
15616662;-0.32500
15619440;-0.32500
15622218;-0.34000
15624996;-0.34000
15627773;-0.33500
15630551;-0.32000
15633329;-0.32500
15636107;-0.33000
15638885;-0.33500
15641662;-0.34500
15644440;-0.34500
15647218;-0.34000
15649996;-0.33000
15652773;-0.34000
15655551;-0.35500
15658329;-0.36000
15661107;-0.35000
15663885;-0.34000
15666662;-0.32500
15669440;-0.32500
15672218;-0.32500
15674996;-0.33000
15677773;-0.30500
15680551;-0.29500
15683329;-0.26500
15686107;-0.26500
15688884;-0.25500
15691662;-0.27000
15694440;-0.26500
15697218;-0.24500
15699996;-0.23500
15702773;-0.22500
15705551;-0.22500
15708329;-0.23000
15711107;-0.24000
15713884;-0.21000
15716662;-0.21000
15719440;-0.21000
15722218;-0.22000
15724996;-0.23000
15727773;-0.23000
15730551;-0.21000
15733329;-0.21500
15736107;-0.21500
15738884;-0.21500
15741662;-0.23000
15744440;-0.23000
15747218;-0.22000
15749996;-0.20500
15752773;-0.21000
15755551;-0.22500
15758329;-0.23000
15761107;-0.22500
15763884;-0.21500
15766662;-0.23000
15769440;-0.22000
15772218;-0.23000
15774996;-0.23000
15777773;-0.23000
15780551;-0.22000
15783329;-0.22000
15786107;-0.22500
15788884;-0.23500
15791662;-0.23000
15794440;-0.23500
15797218;-0.24500
15799996;-0.24000
15802773;-0.24000
15805551;-0.26000
15808329;-0.26000
15811107;-0.25000
15813884;-0.23000
15816662;-0.23500
15819440;-0.24000
15822218;-0.26500
15824996;-0.27500
15827773;-0.26500
15830551;-0.25500
15833329;-0.24000
15836107;-0.25500
15838884;-0.25000
15841662;-0.25500
15844440;-0.25500
15847218;-0.24500
15849996;-0.24000
15852773;-0.25000
15855551;-0.25000
15858329;-0.27000
15861107;-0.27000
15863884;-0.26500
15866662;-0.26500
15869440;-0.25500
15872218;-0.26500
15874996;-0.26500
15877773;-0.27500
15880551;-0.27500
15883329;-0.28500
15886107;-0.26500
15888884;-0.28000
15891662;-0.28000
15894440;-0.27000
15897218;-0.27000
15899996;-0.25500
15902773;-0.25500
15905551;-0.27000
15908329;-0.28500
15911107;-0.28000
15913884;-0.27000
15916662;-0.25000
15919440;-0.25500
15922218;-0.27000
15924996;-0.27500
15927773;-0.27000
15930551;-0.26000
15933329;-0.26000
15936107;-0.26000
15938884;-0.26500
15941662;-0.27000
15944440;-0.26000
15947218;-0.25000
15949996;-0.26000
15952773;-0.27000
15955551;-0.27000
15958329;-0.27000
15961107;-0.25500
15963884;-0.25000
15966662;-0.24500
15969440;-0.25000
15972218;-0.24000
15974996;-0.23500
15977773;-0.23000
15980551;-0.22000
15983329;-0.21000
15986107;-0.21500
15988884;-0.22500
15991662;-0.22500
15994440;-0.20500
15997218;-0.18500
15999996;-0.18000
16002773;-0.16500
16005551;-0.17500
16008329;-0.18500
16011107;-0.17500
16013884;-0.14500
16016662;-0.14500
16019440;-0.15500
16022218;-0.17000
16024996;-0.18000
16027773;-0.17000
16030551;-0.16500
16033329;-0.16500
16036107;-0.16500
16038884;-0.17000
16041662;-0.18500
16044440;-0.19500
16047218;-0.18500
16049996;-0.17500
16052773;-0.17000
16055551;-0.15500
16058329;-0.16000
16061107;-0.17500
16063884;-0.20000
16066662;-0.22000
16069440;-0.24500
16072218;-0.26500
16074995;-0.28500
16077773;-0.26500
16080551;-0.27000
16083329;-0.25500
16086107;-0.25500
16088884;-0.28000
16091662;-0.28500
16094440;-0.28000
16097218;-0.27000
16099995;-0.26500
16102773;-0.27500
16105551;-0.29000
16108329;-0.30500
16111107;-0.29500
16113884;-0.29500
16116662;-0.28500
16119440;-0.29000
16122218;-0.30000
16124995;-0.30000
16127773;-0.30000
16130551;-0.29000
16133329;-0.27500
16136107;-0.27000
16138884;-0.28500
16141662;-0.29500
16144440;-0.28500
16147218;-0.28000
16149995;-0.28000
16152773;-0.28500
16155551;-0.29000
16158329;-0.31000
16161107;-0.32000
16163884;-0.35000
16166662;-0.37500
16169440;-0.39500
16172218;-0.42500
16174995;-0.47500
16177773;-0.49500
16180551;-0.45500
16183329;-0.35000
16186107;-0.22000
16188884;-0.07500
16191662;0.10500
16194440;0.33500
16197218;0.60000
16199995;0.84000
16202773;0.96500
16205551;1.00000
16208329;0.81500
16211107;0.47500
16213884;0.06000
16216662;-0.23000
16219440;-0.37500
16222218;-0.42000
16224995;-0.41000
16227773;-0.37000
16230551;-0.34500
16233329;-0.34000
16236107;-0.34000
16238884;-0.35500
16241662;-0.35500
16244440;-0.34500
16247218;-0.34500
16249995;-0.32500
16252773;-0.34000
16255551;-0.34500
16258329;-0.34500
16261107;-0.35000
16263884;-0.33500
16266662;-0.33000
16269440;-0.32500
16272218;-0.32000
16274995;-0.33500
16277773;-0.33000
16280551;-0.33500
16283329;-0.32500
16286107;-0.33500
16288884;-0.34500
16291662;-0.36000
16294440;-0.36500
16297218;-0.35000
16299995;-0.34500
16302773;-0.34500
16305551;-0.35500
16308329;-0.36500
16311107;-0.34500
16313884;-0.34000
16316662;-0.33000
16319440;-0.33000
16322218;-0.34000
16324995;-0.35500
16327773;-0.35500
16330551;-0.34500
16333329;-0.33500
16336107;-0.35000
16338884;-0.35500
16341662;-0.36500
16344440;-0.36500
16347218;-0.35500
16349995;-0.34000
16352773;-0.35000
16355551;-0.34500
16358329;-0.36500
16361107;-0.36000
16363884;-0.34500
16366662;-0.32500
16369440;-0.34000
16372218;-0.34000
16374995;-0.35500
16377773;-0.36000
16380551;-0.33500
16383329;-0.34500
16386107;-0.34000
16388884;-0.34500
16391662;-0.35500
16394440;-0.34500
16397218;-0.35000
16399995;-0.34000
16402773;-0.34000
16405551;-0.34000
16408329;-0.35000
16411107;-0.33500
16413884;-0.34500
16416662;-0.34000
16419440;-0.34000
16422218;-0.35500
16424995;-0.36500
16427773;-0.36500
16430551;-0.35500
16433329;-0.35000
16436107;-0.35000
16438884;-0.37500
16441662;-0.38500
16444440;-0.39000
16447218;-0.38500
16449995;-0.38000
16452773;-0.38000
16455551;-0.39000
16458329;-0.40000
16461107;-0.40500
16463884;-0.39500
16466662;-0.40500
16469440;-0.40000
16472218;-0.40500
16474995;-0.40500
16477773;-0.40500
16480551;-0.38500
16483329;-0.39000
16486106;-0.39000
16488884;-0.39000
16491662;-0.39500
16494440;-0.38000
16497218;-0.35500
16499995;-0.32500
16502773;-0.31000
16505551;-0.31500
16508329;-0.30500
16511106;-0.29500
16513884;-0.27500
16516662;-0.25500
16519440;-0.25000
16522218;-0.25000
16524995;-0.26000
16527773;-0.24500
16530551;-0.23500
16533329;-0.23000
16536106;-0.22000
16538884;-0.22500
16541662;-0.23000
16544440;-0.22500
16547218;-0.21000
16549995;-0.21500
16552773;-0.20500
16555551;-0.21500
16558329;-0.22500
16561106;-0.22500
16563884;-0.20500
16566662;-0.20000
16569440;-0.19500
16572218;-0.22500
16574995;-0.23000
16577773;-0.22000
16580551;-0.20500
16583329;-0.19500
16586106;-0.20500
16588884;-0.21500
16591662;-0.22500
16594440;-0.22000
16597218;-0.21500
16599995;-0.22000
16602773;-0.22000
16605551;-0.23000
16608329;-0.23000
16611106;-0.22000
16613884;-0.22500
16616662;-0.22000
16619440;-0.22500
16622218;-0.23500
16624995;-0.23500
16627773;-0.24000
16630551;-0.22500
16633329;-0.22500
16636106;-0.22000
16638884;-0.23500
16641662;-0.25500
16644440;-0.24500
16647218;-0.23500
16649995;-0.23000
16652773;-0.23000
16655551;-0.24000
16658329;-0.26000
16661106;-0.25500
16663884;-0.25000
16666662;-0.24500
16669440;-0.24000
16672218;-0.25000
16674995;-0.25500
16677773;-0.25000
16680551;-0.24000
16683329;-0.24500
16686106;-0.23500
16688884;-0.24500
16691662;-0.26000
16694440;-0.25500
16697218;-0.24000
16699995;-0.24000
16702773;-0.24500
16705551;-0.25000
16708329;-0.27500
16711106;-0.25500
16713884;-0.26000
16716662;-0.24500
16719440;-0.24500
16722218;-0.27000
16724995;-0.26000
16727773;-0.26500
16730551;-0.25000
16733329;-0.24000
16736106;-0.24500
16738884;-0.25000
16741662;-0.26500
16744440;-0.25500
16747218;-0.25000
16749995;-0.24500
16752773;-0.23500
16755551;-0.25000
16758329;-0.27000
16761106;-0.26000
16763884;-0.25000
16766662;-0.24500
16769440;-0.24500
16772218;-0.26000
16774995;-0.26500
16777773;-0.25000
16780551;-0.24000
16783329;-0.23500
16786106;-0.24000
16788884;-0.24500
16791662;-0.25500
16794440;-0.24500
16797218;-0.23500
16799995;-0.22500
16802773;-0.22500
16805551;-0.23000
16808329;-0.25000
16811106;-0.24000
16813884;-0.23500
16816662;-0.21000
16819440;-0.20500
16822218;-0.20500
16824995;-0.21500
16827773;-0.20000
16830551;-0.18500
16833329;-0.17500
16836106;-0.17500
16838884;-0.18000
16841662;-0.18500
16844440;-0.15500
16847218;-0.13500
16849995;-0.12500
16852773;-0.12500
16855551;-0.12000
16858329;-0.14000
16861106;-0.14000
16863884;-0.14000
16866662;-0.13500
16869440;-0.14500
16872217;-0.16000
16874995;-0.16000
16877773;-0.16000
16880551;-0.15500
16883329;-0.17000
16886106;-0.16000
