time_ms;ecg_value
0;0.86500
2778;1.01000
5556;1.05500
8333;0.90000
11111;0.54000
13889;0.09000
16667;-0.30000
19444;-0.46000
22222;-0.45000
25000;-0.40000
27778;-0.36000
30556;-0.35500
33333;-0.36000
36111;-0.36000
38889;-0.34500
41667;-0.35000
44444;-0.35000
47222;-0.37000
50000;-0.37000
52778;-0.37000
55556;-0.36000
58333;-0.37000
61111;-0.37000
63889;-0.38500
66667;-0.39000
69444;-0.38000
72222;-0.37500
75000;-0.38000
77778;-0.38000
80556;-0.39500
83333;-0.39000
86111;-0.38500
88889;-0.38000
91667;-0.38500
94444;-0.38500
97222;-0.40000
100000;-0.40000
102778;-0.38000
105556;-0.38000
108333;-0.37500
111111;-0.37500
113889;-0.38000
116667;-0.39500
119444;-0.38000
122222;-0.36500
125000;-0.37500
127778;-0.37500
130556;-0.38000
133333;-0.39000
136111;-0.37500
138889;-0.38000
141667;-0.37500
144444;-0.38000
147222;-0.38000
150000;-0.38000
152778;-0.38000
155556;-0.37000
158333;-0.37500
161111;-0.39000
163889;-0.40000
166667;-0.40000
169444;-0.38500
172222;-0.38000
175000;-0.37500
177778;-0.39000
180556;-0.39000
183333;-0.39500
186111;-0.39000
188889;-0.37500
191667;-0.37000
194444;-0.37000
197222;-0.38500
200000;-0.38500
202778;-0.37500
205555;-0.37500
208333;-0.37000
211111;-0.37500
213889;-0.38500
216667;-0.38500
219444;-0.38000
222222;-0.38000
225000;-0.37500
227778;-0.38500
230555;-0.39500
233333;-0.40000
236111;-0.38500
238889;-0.39000
241667;-0.38500
244444;-0.38000
247222;-0.39500
250000;-0.38500
252778;-0.37500
255555;-0.37500
258333;-0.37000
261111;-0.38000
263889;-0.39000
266667;-0.40000
269444;-0.39000
272222;-0.38000
275000;-0.37500
277778;-0.38000
280555;-0.39000
283333;-0.38500
286111;-0.38500
288889;-0.37500
291667;-0.38000
294444;-0.37500
297222;-0.38000
300000;-0.40000
302778;-0.37500
305555;-0.35000
308333;-0.35000
311111;-0.34000
313889;-0.34000
316667;-0.33000
319444;-0.31000
322222;-0.30500
325000;-0.29000
327778;-0.29500
330555;-0.29500
333333;-0.29000
336111;-0.27000
338889;-0.26500
341667;-0.25000
344444;-0.25000
347222;-0.26500
350000;-0.27000
352778;-0.24500
355555;-0.24000
358333;-0.24500
361111;-0.24500
363889;-0.25500
366667;-0.26500
369444;-0.24500
372222;-0.24500
375000;-0.25000
377778;-0.25000
380555;-0.25500
383333;-0.26000
386111;-0.26000
388889;-0.25500
391667;-0.24500
394444;-0.26500
397222;-0.27500
400000;-0.27000
402778;-0.26500
405555;-0.24500
408333;-0.25000
411111;-0.26500
413889;-0.26500
416667;-0.26000
419444;-0.26500
422222;-0.25500
425000;-0.25500
427778;-0.25500
430555;-0.27000
433333;-0.28500
436111;-0.26000
438889;-0.26500
441667;-0.28000
444444;-0.28000
447222;-0.28000
450000;-0.28000
452778;-0.26500
455555;-0.27000
458333;-0.27500
461111;-0.28500
463889;-0.28500
466667;-0.29500
469444;-0.28500
472222;-0.28500
475000;-0.28000
477778;-0.29500
480555;-0.29500
483333;-0.29500
486111;-0.29000
488889;-0.28500
491667;-0.27500
494444;-0.29000
497222;-0.30000
500000;-0.29000
502778;-0.29500
505555;-0.27000
508333;-0.28500
511111;-0.29500
513889;-0.32000
516667;-0.31000
519444;-0.30000
522222;-0.28500
525000;-0.30500
527778;-0.29500
530555;-0.30500
533333;-0.32000
536111;-0.30500
538889;-0.30500
541667;-0.30500
544444;-0.32000
547222;-0.32000
550000;-0.32500
552778;-0.32000
555555;-0.30500
558333;-0.31500
561111;-0.32000
563889;-0.32000
566667;-0.32500
569444;-0.32000
572222;-0.29500
575000;-0.29500
577778;-0.30000
580555;-0.31500
583333;-0.31000
586111;-0.30000
588889;-0.29000
591667;-0.29000
594444;-0.29500
597222;-0.30000
600000;-0.30500
602778;-0.30500
605555;-0.29000
608333;-0.28500
611111;-0.28500
613889;-0.31000
616666;-0.30500
619444;-0.30000
622222;-0.30000
625000;-0.29000
627778;-0.29500
630555;-0.31500
633333;-0.32000
636111;-0.31000
638889;-0.29000
641666;-0.27500
644444;-0.29000
647222;-0.29000
650000;-0.27000
652778;-0.25500
655555;-0.24000
658333;-0.22500
661111;-0.23000
663889;-0.23500
666666;-0.23500
669444;-0.22500
672222;-0.20500
675000;-0.20500
677778;-0.19500
680555;-0.20000
683333;-0.19500
686111;-0.19000
688889;-0.19000
691666;-0.19500
694444;-0.20000
697222;-0.21500
700000;-0.23500
702778;-0.22500
705555;-0.22000
708333;-0.20500
711111;-0.22500
713889;-0.23500
716666;-0.23000
719444;-0.20500
722222;-0.18000
725000;-0.17500
727778;-0.20000
730555;-0.23500
733333;-0.26000
736111;-0.26000
738889;-0.26500
741666;-0.28000
744444;-0.30000
747222;-0.31500
750000;-0.33000
752778;-0.33000
755555;-0.32000
758333;-0.33000
761111;-0.33000
763889;-0.33000
766666;-0.34000
769444;-0.33000
772222;-0.32000
775000;-0.32500
777778;-0.32500
780555;-0.33000
783333;-0.32500
786111;-0.32500
788889;-0.32000
791666;-0.32000
794444;-0.34000
797222;-0.34000
800000;-0.33500
802778;-0.33000
805555;-0.32500
808333;-0.31000
811111;-0.34000
813889;-0.34000
816666;-0.35000
819444;-0.36000
822222;-0.37500
825000;-0.42000
827778;-0.45500
830555;-0.48000
833333;-0.53500
836111;-0.55500
838889;-0.53000
841666;-0.42000
844444;-0.26500
847222;-0.12500
850000;0.06000
852778;0.30500
855555;0.58500
858333;0.81000
861111;0.94500
863889;0.96000
866666;0.79000
869444;0.43000
872222;-0.00500
875000;-0.32000
877778;-0.47000
880555;-0.48500
883333;-0.42500
886111;-0.36500
888889;-0.35000
891666;-0.36500
894444;-0.38000
897222;-0.39500
900000;-0.39500
902778;-0.39500
905555;-0.37500
908333;-0.38500
911111;-0.39000
913889;-0.40000
916666;-0.39000
919444;-0.38500
922222;-0.36500
925000;-0.36500
927778;-0.37000
930555;-0.38500
933333;-0.38500
936111;-0.37500
938889;-0.37000
941666;-0.37500
944444;-0.37000
947222;-0.38500
950000;-0.39000
952778;-0.38500
955555;-0.37500
958333;-0.37000
961111;-0.38000
963889;-0.40000
966666;-0.40500
969444;-0.38500
972222;-0.38000
975000;-0.37500
977778;-0.38500
980555;-0.39500
983333;-0.39500
986111;-0.39000
988889;-0.37500
991666;-0.37500
994444;-0.39000
997222;-0.40000
1000000;-0.40000
1002777;-0.39000
1005555;-0.39500
1008333;-0.38000
1011111;-0.38000
1013889;-0.39000
1016666;-0.39500
1019444;-0.39500
1022222;-0.38500
1025000;-0.38000
1027777;-0.38000
1030555;-0.38500
1033333;-0.38500
1036111;-0.37500
1038889;-0.37500
1041666;-0.37000
1044444;-0.37500
1047222;-0.39500
1050000;-0.39500
1052777;-0.40500
1055555;-0.39000
1058333;-0.37500
1061111;-0.38500
1063889;-0.39500
1066666;-0.40500
1069444;-0.39500
1072222;-0.38500
1075000;-0.38500
1077777;-0.39500
1080555;-0.39500
1083333;-0.40000
1086111;-0.38500
1088889;-0.38000
1091666;-0.38500
1094444;-0.39500
1097222;-0.39000
1100000;-0.39000
1102777;-0.38000
1105555;-0.37000
1108333;-0.37500
1111111;-0.38000
1113889;-0.39000
1116666;-0.40000
1119444;-0.38000
1122222;-0.37500
1125000;-0.38000
1127777;-0.38500
1130555;-0.40000
1133333;-0.40000
1136111;-0.39000
1138889;-0.38500
1141666;-0.37500
1144444;-0.38000
1147222;-0.38500
1150000;-0.39000
1152777;-0.39500
1155555;-0.38000
1158333;-0.37500
1161111;-0.37500
1163889;-0.38000
1166666;-0.37000
1169444;-0.35500
1172222;-0.34000
1175000;-0.32500
1177777;-0.31500
1180555;-0.31500
1183333;-0.30500
1186111;-0.30500
1188889;-0.29500
1191666;-0.30000
1194444;-0.29500
1197222;-0.30000
1200000;-0.29500
1202777;-0.29000
1205555;-0.27500
1208333;-0.27000
1211111;-0.28000
1213889;-0.28000
1216666;-0.28000
1219444;-0.27000
1222222;-0.26500
1225000;-0.26500
1227777;-0.26000
1230555;-0.27500
1233333;-0.27500
1236111;-0.26500
1238889;-0.26500
1241666;-0.26500
1244444;-0.28000
1247222;-0.27000
1250000;-0.28000
1252777;-0.27500
1255555;-0.27000
1258333;-0.27500
1261111;-0.28500
1263889;-0.27000
1266666;-0.27500
1269444;-0.28000
1272222;-0.27000
1275000;-0.27500
1277777;-0.28500
1280555;-0.31500
1283333;-0.30000
1286111;-0.29500
1288889;-0.30000
1291666;-0.29500
1294444;-0.29500
1297222;-0.30000
1300000;-0.29500
1302777;-0.29500
1305555;-0.30000
1308333;-0.28500
1311111;-0.29000
1313889;-0.30000
1316666;-0.30500
1319444;-0.31500
1322222;-0.30500
1325000;-0.30000
1327777;-0.29500
1330555;-0.30500
1333333;-0.32500
1336111;-0.31500
1338889;-0.31000
1341666;-0.31500
1344444;-0.32000
1347222;-0.34000
1350000;-0.35000
1352777;-0.33000
1355555;-0.31000
1358333;-0.31500
1361111;-0.32000
1363889;-0.32500
1366666;-0.34000
1369444;-0.32500
1372222;-0.31500
1375000;-0.30000
1377777;-0.31500
1380555;-0.33000
1383333;-0.34000
1386111;-0.32500
1388888;-0.32500
1391666;-0.32500
1394444;-0.33500
1397222;-0.33000
1400000;-0.34000
1402777;-0.33000
1405555;-0.32000
1408333;-0.31000
1411111;-0.32500
1413888;-0.33000
1416666;-0.32500
1419444;-0.33000
1422222;-0.33000
1425000;-0.33000
1427777;-0.32000
1430555;-0.32000
1433333;-0.33500
1436111;-0.32000
1438888;-0.31500
1441666;-0.31000
1444444;-0.32000
1447222;-0.33000
1450000;-0.33000
1452777;-0.31500
1455555;-0.30500
1458333;-0.30000
1461111;-0.30500
1463888;-0.31000
1466666;-0.32000
1469444;-0.31500
1472222;-0.31000
1475000;-0.31000
1477777;-0.30500
1480555;-0.30500
1483333;-0.30000
1486111;-0.28500
1488888;-0.27000
1491666;-0.26500
1494444;-0.26500
1497222;-0.27500
1500000;-0.27500
1502777;-0.26500
1505555;-0.25000
1508333;-0.24500
1511111;-0.24000
1513888;-0.23500
1516666;-0.23000
1519444;-0.23000
1522222;-0.21000
1525000;-0.22000
1527777;-0.22000
1530555;-0.23000
1533333;-0.24000
1536111;-0.26000
1538888;-0.25000
1541666;-0.24000
1544444;-0.24500
1547222;-0.26000
1550000;-0.27000
1552777;-0.26500
1555555;-0.23500
1558333;-0.22500
1561111;-0.24500
1563888;-0.27000
1566666;-0.29500
1569444;-0.31000
1572222;-0.31000
1575000;-0.31500
1577777;-0.32500
1580555;-0.33000
1583333;-0.35000
1586111;-0.35000
1588888;-0.34000
1591666;-0.34000
1594444;-0.34500
1597222;-0.35000
1600000;-0.35500
1602777;-0.34500
1605555;-0.35500
1608333;-0.36000
1611111;-0.34500
1613888;-0.36000
1616666;-0.36000
1619444;-0.35500
1622222;-0.35000
1625000;-0.34500
1627777;-0.34500
1630555;-0.36000
1633333;-0.37500
1636111;-0.37000
1638888;-0.36000
1641666;-0.35000
1644444;-0.36000
1647222;-0.36500
1650000;-0.38000
1652777;-0.37500
1655555;-0.37500
1658333;-0.38500
1661111;-0.41500
1663888;-0.46000
1666666;-0.49500
1669444;-0.49500
1672222;-0.51500
1675000;-0.56500
1677777;-0.56500
1680555;-0.48500
1683333;-0.35500
1686111;-0.18500
1688888;0.00000
1691666;0.22500
1694444;0.49500
1697222;0.70500
1700000;0.84000
1702777;0.85500
1705555;0.68000
1708333;0.30000
1711111;-0.11500
1713888;-0.39000
1716666;-0.52000
1719444;-0.52500
1722222;-0.48000
1725000;-0.44000
1727777;-0.42000
1730555;-0.42500
1733333;-0.44000
1736111;-0.43000
1738888;-0.41500
1741666;-0.42000
1744444;-0.43000
1747222;-0.43500
1750000;-0.44500
1752777;-0.44000
1755555;-0.42500
1758333;-0.41000
1761111;-0.39500
1763888;-0.40000
1766666;-0.41500
1769444;-0.43500
1772222;-0.42000
1775000;-0.41000
1777777;-0.41500
1780555;-0.40500
1783333;-0.41000
1786111;-0.40500
1788888;-0.39500
1791666;-0.40500
1794444;-0.42000
1797222;-0.42000
1799999;-0.43000
1802777;-0.43500
1805555;-0.43000
1808333;-0.43500
1811111;-0.43500
1813888;-0.45000
1816666;-0.45000
1819444;-0.44000
1822222;-0.43500
1824999;-0.43000
1827777;-0.43500
1830555;-0.44500
1833333;-0.46000
1836111;-0.44000
1838888;-0.44500
1841666;-0.43500
1844444;-0.43000
1847222;-0.42000
1849999;-0.41500
1852777;-0.43000
1855555;-0.41500
1858333;-0.44000
1861111;-0.43500
1863888;-0.43500
1866666;-0.44000
1869444;-0.43500
1872222;-0.42000
1874999;-0.43000
1877777;-0.44000
1880555;-0.46000
1883333;-0.47500
1886111;-0.45500
1888888;-0.44000
1891666;-0.44000
1894444;-0.43500
1897222;-0.44500
1899999;-0.44500
1902777;-0.45000
1905555;-0.45000
1908333;-0.45000
1911111;-0.45000
1913888;-0.46500
1916666;-0.47000
1919444;-0.46500
1922222;-0.46500
1924999;-0.47000
1927777;-0.49000
1930555;-0.48500
1933333;-0.49000
1936111;-0.47000
1938888;-0.45500
1941666;-0.44500
1944444;-0.45500
1947222;-0.48500
1949999;-0.49500
1952777;-0.49500
1955555;-0.49000
1958333;-0.49000
1961111;-0.49500
1963888;-0.50000
1966666;-0.52500
1969444;-0.51000
1972222;-0.49500
1974999;-0.47000
1977777;-0.47500
1980555;-0.48000
1983333;-0.47000
1986111;-0.46500
1988888;-0.41500
1991666;-0.41500
1994444;-0.40000
1997222;-0.40500
1999999;-0.40000
2002777;-0.39500
2005555;-0.37500
2008333;-0.37000
2011111;-0.38000
2013888;-0.38000
2016666;-0.35000
2019444;-0.34000
2022222;-0.32500
2024999;-0.33000
2027777;-0.33500
2030555;-0.34500
2033333;-0.33500
2036111;-0.33500
2038888;-0.32500
2041666;-0.32000
2044444;-0.31500
2047222;-0.33000
2049999;-0.34500
2052777;-0.33000
2055555;-0.31500
2058333;-0.32000
2061111;-0.33000
2063888;-0.35000
2066666;-0.34500
2069444;-0.34500
2072222;-0.35000
2074999;-0.34000
2077777;-0.34000
2080555;-0.33500
2083333;-0.32500
2086111;-0.32500
2088888;-0.33000
2091666;-0.34000
2094444;-0.36500
2097222;-0.37500
2099999;-0.37000
2102777;-0.35500
2105555;-0.33500
2108333;-0.33500
2111111;-0.34500
2113888;-0.36000
2116666;-0.36500
2119444;-0.36000
2122222;-0.35500
2124999;-0.34500
2127777;-0.36500
2130555;-0.37500
2133333;-0.39500
2136111;-0.38500
2138888;-0.39500
2141666;-0.38000
2144444;-0.38500
2147222;-0.38500
2149999;-0.39500
2152777;-0.38000
2155555;-0.38000
2158333;-0.37000
2161111;-0.36500
2163888;-0.38500
2166666;-0.38500
2169444;-0.37500
2172222;-0.37000
2174999;-0.36000
2177777;-0.38500
2180555;-0.38000
2183333;-0.38500
2186110;-0.37500
2188888;-0.36500
2191666;-0.38000
2194444;-0.38000
2197222;-0.39000
2199999;-0.40500
2202777;-0.39500
2205555;-0.38500
2208333;-0.38000
2211110;-0.38000
2213888;-0.37500
2216666;-0.38500
2219444;-0.36500
2222222;-0.36500
2224999;-0.37500
2227777;-0.36000
2230555;-0.36000
2233333;-0.37000
2236110;-0.36000
2238888;-0.35500
2241666;-0.35000
2244444;-0.36500
2247222;-0.37000
2249999;-0.38000
2252777;-0.37500
2255555;-0.36500
2258333;-0.36500
2261110;-0.37000
2263888;-0.36500
2266666;-0.38500
2269444;-0.36500
2272222;-0.35500
2274999;-0.33500
2277777;-0.34000
2280555;-0.33000
2283333;-0.33000
2286110;-0.31000
2288888;-0.29500
2291666;-0.29500
2294444;-0.29000
2297222;-0.29500
2299999;-0.29500
2302777;-0.27500
2305555;-0.26000
2308333;-0.26000
2311110;-0.25500
2313888;-0.25500
2316666;-0.26500
2319444;-0.26000
2322222;-0.27000
2324999;-0.27000
2327777;-0.27000
2330555;-0.26500
2333333;-0.28000
2336110;-0.30000
2338888;-0.29000
2341666;-0.28000
2344444;-0.26000
2347222;-0.25000
2349999;-0.25500
2352777;-0.26500
2355555;-0.29000
2358333;-0.31000
2361110;-0.31500
2363888;-0.34000
2366666;-0.35000
2369444;-0.35500
2372222;-0.35500
2374999;-0.35000
2377777;-0.37000
2380555;-0.37500
2383333;-0.38000
2386110;-0.37000
2388888;-0.36000
2391666;-0.37000
2394444;-0.36500
2397222;-0.37000
2399999;-0.37500
2402777;-0.36500
2405555;-0.36000
2408333;-0.36000
2411110;-0.38000
2413888;-0.38500
2416666;-0.39000
2419444;-0.38000
2422222;-0.37500
2424999;-0.36000
2427777;-0.36500
2430555;-0.36500
2433333;-0.37000
2436110;-0.37000
2438888;-0.40000
2441666;-0.42500
2444444;-0.46000
2447222;-0.49000
2449999;-0.52000
2452777;-0.54500
2455555;-0.51000
2458333;-0.41000
2461110;-0.25000
2463888;-0.08500
2466666;0.11000
2469444;0.39500
2472222;0.66500
2474999;0.87500
2477777;0.99500
2480555;0.97000
2483333;0.74500
2486110;0.35000
2488888;-0.08500
2491666;-0.39000
2494444;-0.51000
2497222;-0.50000
2499999;-0.47000
2502777;-0.42500
2505555;-0.38500
2508333;-0.37500
2511110;-0.38000
2513888;-0.39500
2516666;-0.40000
2519444;-0.38500
2522222;-0.37000
2524999;-0.37500
2527777;-0.37500
2530555;-0.39000
2533333;-0.39500
2536110;-0.38500
2538888;-0.37500
2541666;-0.38000
2544444;-0.39000
2547222;-0.38500
2549999;-0.40000
2552777;-0.40000
2555555;-0.39500
2558333;-0.39000
2561110;-0.39500
2563888;-0.40000
2566666;-0.40500
2569444;-0.39500
2572222;-0.38500
2574999;-0.38500
2577777;-0.38000
2580555;-0.40500
2583333;-0.39500
2586110;-0.39000
2588888;-0.38500
2591666;-0.37500
2594444;-0.39000
2597221;-0.38500
2599999;-0.39000
2602777;-0.39500
2605555;-0.37500
2608333;-0.37500
2611110;-0.38000
2613888;-0.39500
2616666;-0.39500
2619444;-0.37500
2622221;-0.37500
2624999;-0.36000
2627777;-0.37000
2630555;-0.38500
2633333;-0.38500
2636110;-0.38000
2638888;-0.37500
2641666;-0.37000
2644444;-0.37000
2647221;-0.39000
2649999;-0.39500
2652777;-0.38500
2655555;-0.38500
2658333;-0.37500
2661110;-0.38500
2663888;-0.39000
2666666;-0.38500
2669444;-0.38500
2672221;-0.37500
2674999;-0.37500
2677777;-0.38000
2680555;-0.39000
2683333;-0.40000
2686110;-0.38500
2688888;-0.38500
2691666;-0.39500
2694444;-0.39000
2697221;-0.41500
2699999;-0.41500
2702777;-0.42000
2705555;-0.40500
2708333;-0.41000
2711110;-0.41500
2713888;-0.42500
2716666;-0.42500
2719444;-0.43500
2722221;-0.41500
2724999;-0.41000
2727777;-0.43000
2730555;-0.43500
2733333;-0.43500
2736110;-0.43500
2738888;-0.42500
2741666;-0.40500
2744444;-0.41500
2747221;-0.42000
2749999;-0.41500
2752777;-0.39500
2755555;-0.37500
2758333;-0.35500
2761110;-0.37000
2763888;-0.35500
2766666;-0.35000
2769444;-0.33000
2772221;-0.30000
2774999;-0.29500
2777777;-0.30000
2780555;-0.29000
2783333;-0.27500
2786110;-0.25500
2788888;-0.25500
2791666;-0.24000
2794444;-0.25000
2797221;-0.25500
2799999;-0.26000
2802777;-0.24500
2805555;-0.24000
2808333;-0.23500
2811110;-0.24000
2813888;-0.25000
2816666;-0.24500
2819444;-0.25000
2822221;-0.23500
2824999;-0.23000
2827777;-0.23500
2830555;-0.24000
2833333;-0.24500
2836110;-0.23500
2838888;-0.22500
2841666;-0.21500
2844444;-0.21500
2847221;-0.23500
2849999;-0.22500
2852777;-0.22500
2855555;-0.21500
2858333;-0.22000
2861110;-0.22500
2863888;-0.22500
2866666;-0.25000
2869444;-0.23500
2872221;-0.22000
2874999;-0.23500
2877777;-0.23000
2880555;-0.24000
2883333;-0.24000
2886110;-0.24000
2888888;-0.23500
2891666;-0.24000
2894444;-0.23500
2897221;-0.25000
2899999;-0.26500
2902777;-0.26500
2905555;-0.26000
2908333;-0.26500
2911110;-0.26000
2913888;-0.25500
2916666;-0.27000
2919444;-0.26500
2922221;-0.25500
2924999;-0.25500
2927777;-0.25000
2930555;-0.27000
2933333;-0.27000
2936110;-0.26500
2938888;-0.25500
2941666;-0.25000
2944444;-0.25500
2947221;-0.25500
2949999;-0.27000
2952777;-0.27000
2955555;-0.25000
2958333;-0.24500
2961110;-0.25500
2963888;-0.27000
2966666;-0.27000
2969444;-0.27000
2972221;-0.25000
2974999;-0.26000
2977777;-0.25500
2980555;-0.26000
2983332;-0.27000
2986110;-0.26000
2988888;-0.25500
2991666;-0.25000
2994444;-0.26000
2997221;-0.28000
2999999;-0.27500
3002777;-0.25000
3005555;-0.24500
3008332;-0.24000
3011110;-0.24500
3013888;-0.24500
3016666;-0.25000
3019444;-0.25500
3022221;-0.24500
3024999;-0.25000
3027777;-0.24000
3030555;-0.24500
3033332;-0.25000
3036110;-0.25000
3038888;-0.24000
3041666;-0.23500
3044444;-0.24500
3047221;-0.24000
3049999;-0.24500
3052777;-0.24500
3055555;-0.24500
3058332;-0.24500
3061110;-0.24500
3063888;-0.24500
3066666;-0.25500
3069444;-0.24500
3072221;-0.24000
3074999;-0.21500
3077777;-0.23000
3080555;-0.22500
3083332;-0.21000
3086110;-0.19500
3088888;-0.18000
3091666;-0.16000
3094444;-0.16000
3097221;-0.17500
3099999;-0.17000
3102777;-0.16500
3105555;-0.14500
3108332;-0.14500
3111110;-0.14000
3113888;-0.13500
3116666;-0.15000
3119444;-0.13000
3122221;-0.13000
3124999;-0.14000
3127777;-0.15000
3130555;-0.16500
3133332;-0.17500
3136110;-0.17500
3138888;-0.16000
3141666;-0.17000
3144444;-0.17000
3147221;-0.18000
3149999;-0.15500
3152777;-0.13500
3155555;-0.12500
3158332;-0.15000
3161110;-0.18500
3163888;-0.20500
3166666;-0.21000
3169444;-0.22000
3172221;-0.22000
3174999;-0.24500
3177777;-0.26000
3180555;-0.25500
3183332;-0.27000
3186110;-0.26000
3188888;-0.24500
3191666;-0.25000
3194444;-0.25000
3197221;-0.26000
3199999;-0.27500
3202777;-0.27500
3205555;-0.26500
3208332;-0.27500
3211110;-0.27500
3213888;-0.28500
3216666;-0.28500
3219444;-0.27500
3222221;-0.27500
3224999;-0.26500
3227777;-0.26500
3230555;-0.27500
3233332;-0.27500
3236110;-0.27000
3238888;-0.28000
3241666;-0.31500
3244444;-0.36000
3247221;-0.39500
3249999;-0.42500
3252777;-0.45000
3255555;-0.46000
3258332;-0.39000
3261110;-0.25000
3263888;-0.08000
3266666;0.11000
3269444;0.36000
3272221;0.65500
3274999;0.94000
3277777;1.13500
3280555;1.21500
3283332;1.19500
3286110;0.98500
3288888;0.60500
3291666;0.13000
3294444;-0.24000
3297221;-0.40500
3299999;-0.41500
3302777;-0.35000
3305555;-0.29500
3308332;-0.27000
3311110;-0.27500
3313888;-0.28500
3316666;-0.31000
3319444;-0.30000
3322221;-0.29500
3324999;-0.30500
3327777;-0.32000
3330555;-0.34000
3333332;-0.34000
3336110;-0.32500
3338888;-0.32000
3341666;-0.32000
3344444;-0.33000
3347221;-0.32000
3349999;-0.31500
3352777;-0.31500
3355555;-0.31500
3358332;-0.31000
3361110;-0.32000
3363888;-0.34500
3366666;-0.34500
3369444;-0.33000
3372221;-0.31000
3374999;-0.32000
3377777;-0.32500
3380555;-0.33000
3383332;-0.35500
3386110;-0.35000
3388888;-0.34000
3391666;-0.33000
3394443;-0.33500
3397221;-0.34500
3399999;-0.34500
3402777;-0.33500
3405555;-0.33000
3408332;-0.31500
3411110;-0.33500
3413888;-0.33000
3416666;-0.34000
3419443;-0.33500
3422221;-0.32500
3424999;-0.32500
3427777;-0.33000
3430555;-0.33000
3433332;-0.34000
3436110;-0.34000
3438888;-0.32500
3441666;-0.33500
3444443;-0.33500
3447221;-0.34500
3449999;-0.35500
3452777;-0.34000
3455555;-0.33000
3458332;-0.34000
3461110;-0.35500
3463888;-0.35000
3466666;-0.35000
3469443;-0.35000
3472221;-0.35000
3474999;-0.34000
3477777;-0.34000
3480555;-0.34500
3483332;-0.36000
3486110;-0.35000
3488888;-0.33000
3491666;-0.33500
3494443;-0.35000
3497221;-0.35500
3499999;-0.36000
3502777;-0.35000
3505555;-0.34500
3508332;-0.34500
3511110;-0.34500
3513888;-0.35500
3516666;-0.37000
3519443;-0.36000
3522221;-0.36000
3524999;-0.36000
3527777;-0.36500
3530555;-0.37000
3533332;-0.37500
3536110;-0.37000
3538888;-0.36000
3541666;-0.35000
3544443;-0.35500
3547221;-0.36000
3549999;-0.35000
3552777;-0.34000
3555555;-0.32000
3558332;-0.31500
3561110;-0.30000
3563888;-0.31000
3566666;-0.30000
3569443;-0.28500
3572221;-0.27000
3574999;-0.25000
3577777;-0.25000
3580555;-0.25000
3583332;-0.25000
3586110;-0.23500
3588888;-0.22500
3591666;-0.22500
3594443;-0.23000
3597221;-0.23500
3599999;-0.24000
3602777;-0.23000
3605555;-0.22500
3608332;-0.22500
3611110;-0.23500
3613888;-0.23500
3616666;-0.23000
3619443;-0.23000
3622221;-0.22000
3624999;-0.21500
3627777;-0.21500
3630555;-0.23000
3633332;-0.23000
3636110;-0.22500
3638888;-0.21000
3641666;-0.20500
3644443;-0.21500
3647221;-0.22000
3649999;-0.23500
3652777;-0.21000
3655555;-0.21500
3658332;-0.20500
3661110;-0.22000
3663888;-0.23000
3666666;-0.24000
3669443;-0.22500
3672221;-0.22500
3674999;-0.22500
3677777;-0.23000
3680555;-0.24500
3683332;-0.25500
3686110;-0.25000
3688888;-0.24500
3691666;-0.23500
3694443;-0.24500
3697221;-0.26000
3699999;-0.26000
3702777;-0.25500
3705555;-0.24500
3708332;-0.24500
3711110;-0.25500
3713888;-0.26000
3716666;-0.27000
3719443;-0.26000
3722221;-0.25000
3724999;-0.25500
3727777;-0.26500
3730555;-0.26500
3733332;-0.28000
3736110;-0.27500
3738888;-0.27000
3741666;-0.27500
3744443;-0.28000
3747221;-0.29000
3749999;-0.29000
3752777;-0.28500
3755555;-0.27000
3758332;-0.27500
3761110;-0.27000
3763888;-0.28000
3766666;-0.29000
3769443;-0.28000
3772221;-0.27000
3774999;-0.27000
3777777;-0.27500
3780554;-0.28000
3783332;-0.27500
3786110;-0.27500
3788888;-0.27000
3791666;-0.26000
3794443;-0.27500
3797221;-0.28500
3799999;-0.28000
3802777;-0.28000
3805554;-0.27000
3808332;-0.26000
3811110;-0.27000
3813888;-0.29000
3816666;-0.29000
3819443;-0.27500
3822221;-0.26000
3824999;-0.27500
3827777;-0.27000
3830554;-0.28000
3833332;-0.28500
3836110;-0.27000
3838888;-0.26500
3841666;-0.28000
3844443;-0.28000
3847221;-0.27000
3849999;-0.28500
3852777;-0.27500
3855554;-0.26500
3858332;-0.26500
3861110;-0.26000
3863888;-0.26500
3866666;-0.26000
3869443;-0.23500
3872221;-0.22000
3874999;-0.19500
3877777;-0.18500
3880554;-0.19000
3883332;-0.20000
3886110;-0.18000
3888888;-0.17000
3891666;-0.16500
3894443;-0.15500
3897221;-0.15000
3899999;-0.16000
3902777;-0.14000
3905554;-0.14500
3908332;-0.16000
3911110;-0.17500
3913888;-0.18500
3916666;-0.20000
3919443;-0.20500
3922221;-0.19500
3924999;-0.18500
3927777;-0.20500
3930554;-0.20500
3933332;-0.20500
3936110;-0.17500
3938888;-0.15500
3941666;-0.14500
3944443;-0.16500
3947221;-0.20000
3949999;-0.23500
3952777;-0.23500
3955554;-0.24500
3958332;-0.25000
3961110;-0.27500
3963888;-0.28500
3966666;-0.29500
3969443;-0.30000
3972221;-0.29500
3974999;-0.28500
3977777;-0.29500
3980554;-0.30500
3983332;-0.31500
3986110;-0.30500
3988888;-0.30000
3991666;-0.30000
3994443;-0.31000
3997221;-0.30500
3999999;-0.31000
4002777;-0.31500
4005554;-0.30500
4008332;-0.30000
4011110;-0.30000
4013888;-0.31000
4016666;-0.31000
4019443;-0.30500
4022221;-0.29500
4024999;-0.29500
4027777;-0.29500
4030554;-0.31500
4033332;-0.31500
4036110;-0.32000
4038888;-0.31500
4041666;-0.34500
4044443;-0.38000
4047221;-0.41500
4049999;-0.45000
4052777;-0.47000
4055554;-0.51500
4058332;-0.49500
4061110;-0.40500
4063888;-0.27000
4066666;-0.10000
4069443;0.08500
4072221;0.34000
4074999;0.62500
4077777;0.86500
4080554;1.00500
4083332;1.00000
4086110;0.81000
4088888;0.42500
4091666;-0.03500
4094443;-0.35000
4097221;-0.47000
4099999;-0.43500
4102777;-0.34500
4105554;-0.31000
4108332;-0.30500
4111110;-0.33000
4113888;-0.35000
4116666;-0.35000
4119443;-0.34000
4122221;-0.34500
4124999;-0.33500
4127777;-0.35500
4130554;-0.34500
4133332;-0.36500
4136110;-0.34500
4138888;-0.34500
4141666;-0.33000
4144443;-0.36000
4147221;-0.35000
4149999;-0.35000
4152777;-0.34500
4155554;-0.34000
4158332;-0.33500
4161110;-0.34000
4163888;-0.35000
4166666;-0.35000
4169443;-0.34500
4172221;-0.34000
4174999;-0.33500
4177777;-0.35500
4180554;-0.35500
4183332;-0.36500
4186110;-0.36500
4188888;-0.35000
4191665;-0.35500
4194443;-0.34500
4197221;-0.36500
4199999;-0.37000
4202777;-0.36000
4205554;-0.35000
4208332;-0.34500
4211110;-0.34500
4213888;-0.35000
4216665;-0.35500
4219443;-0.34500
4222221;-0.34000
4224999;-0.33500
4227777;-0.34500
4230554;-0.35500
4233332;-0.36000
4236110;-0.34500
4238888;-0.33500
4241665;-0.34500
4244443;-0.34500
4247221;-0.36000
4249999;-0.37000
4252777;-0.35000
4255554;-0.35000
4258332;-0.33500
4261110;-0.35000
4263888;-0.36500
4266665;-0.38000
4269443;-0.36500
4272221;-0.36000
4274999;-0.36000
4277777;-0.37000
4280554;-0.37000
4283332;-0.37000
4286110;-0.37000
4288888;-0.35500
4291665;-0.35000
4294443;-0.35500
4297221;-0.35500
4299999;-0.37500
4302777;-0.36000
4305554;-0.35000
4308332;-0.35000
4311110;-0.36500
4313888;-0.35500
4316665;-0.38000
4319443;-0.36500
4322221;-0.35500
4324999;-0.37000
4327777;-0.37000
4330554;-0.37000
4333332;-0.38000
4336110;-0.37500
4338888;-0.37500
4341665;-0.36500
4344443;-0.36000
4347221;-0.36000
4349999;-0.38500
4352777;-0.37000
4355554;-0.35500
4358332;-0.34000
4361110;-0.34500
4363888;-0.34500
4366665;-0.34000
4369443;-0.32000
4372221;-0.29500
4374999;-0.28000
4377777;-0.28000
4380554;-0.29500
4383332;-0.29000
4386110;-0.27500
4388888;-0.26000
4391665;-0.25000
4394443;-0.24000
4397221;-0.24000
4399999;-0.25000
4402777;-0.25500
4405554;-0.24000
4408332;-0.23500
4411110;-0.24000
4413888;-0.25000
4416665;-0.26000
4419443;-0.24500
4422221;-0.24000
4424999;-0.24000
4427777;-0.25000
4430554;-0.26000
4433332;-0.24500
4436110;-0.24000
4438888;-0.22500
4441665;-0.22500
4444443;-0.23500
4447221;-0.23500
4449999;-0.24000
4452777;-0.24500
4455554;-0.23000
4458332;-0.22500
4461110;-0.23000
4463888;-0.23500
4466665;-0.25500
4469443;-0.24500
4472221;-0.24000
4474999;-0.23000
4477777;-0.24000
4480554;-0.25000
4483332;-0.26500
4486110;-0.26000
4488888;-0.25000
4491665;-0.26000
4494443;-0.26500
4497221;-0.26500
4499999;-0.26500
4502777;-0.27000
4505554;-0.26500
4508332;-0.25000
4511110;-0.25500
4513888;-0.27500
4516665;-0.28000
4519443;-0.27000
4522221;-0.26500
4524999;-0.26500
4527777;-0.26500
4530554;-0.28000
4533332;-0.29000
4536110;-0.28500
4538888;-0.27000
4541665;-0.26500
4544443;-0.26500
4547221;-0.28000
4549999;-0.30000
4552777;-0.29500
4555554;-0.29000
4558332;-0.29500
4561110;-0.30000
4563888;-0.29000
4566665;-0.29000
4569443;-0.29500
4572221;-0.29500
4574999;-0.29500
4577776;-0.29000
4580554;-0.30500
4583332;-0.30000
4586110;-0.30000
4588888;-0.29000
4591665;-0.29000
4594443;-0.29000
4597221;-0.29000
4599999;-0.30500
4602776;-0.29000
4605554;-0.30500
4608332;-0.29500
4611110;-0.28000
4613888;-0.30000
4616665;-0.29500
4619443;-0.30000
4622221;-0.28500
4624999;-0.27500
4627776;-0.29500
4630554;-0.30500
4633332;-0.31000
4636110;-0.30500
4638888;-0.28500
4641665;-0.27500
4644443;-0.28500
4647221;-0.30000
4649999;-0.31000
4652776;-0.30000
4655554;-0.30500
4658332;-0.28500
4661110;-0.30000
4663888;-0.29000
4666665;-0.30000
4669443;-0.29000
4672221;-0.27000
4674999;-0.25500
4677776;-0.24500
4680554;-0.25000
4683332;-0.24500
4686110;-0.24000
4688888;-0.22000
4691665;-0.20000
4694443;-0.19500
4697221;-0.19500
4699999;-0.20000
4702776;-0.19500
4705554;-0.18000
4708332;-0.18500
4711110;-0.18500
4713888;-0.20000
4716665;-0.21500
4719443;-0.21000
4722221;-0.20500
4724999;-0.19500
4727776;-0.19500
4730554;-0.20000
4733332;-0.22500
4736110;-0.24500
4738888;-0.22500
4741665;-0.24500
4744443;-0.25500
4747221;-0.24500
4749999;-0.24000
4752776;-0.23000
4755554;-0.19500
4758332;-0.20500
4761110;-0.22500
4763888;-0.25500
4766665;-0.28500
4769443;-0.28500
4772221;-0.29000
4774999;-0.29500
4777776;-0.31000
4780554;-0.31000
4783332;-0.32500
4786110;-0.32500
4788888;-0.30500
4791665;-0.31000
4794443;-0.30500
4797221;-0.32000
4799999;-0.33500
4802776;-0.34000
4805554;-0.32500
4808332;-0.33000
4811110;-0.33000
4813888;-0.34000
4816665;-0.34500
4819443;-0.34000
4822221;-0.33000
4824999;-0.32500
4827776;-0.33500
4830554;-0.35500
4833332;-0.35000
4836110;-0.33000
4838888;-0.33000
4841665;-0.32500
4844443;-0.34500
4847221;-0.38000
4849999;-0.42500
4852776;-0.44000
4855554;-0.46000
4858332;-0.48500
4861110;-0.56000
4863888;-0.56500
4866665;-0.51500
4869443;-0.42000
4872221;-0.31500
4874999;-0.21500
4877776;-0.10500
4880554;0.06500
4883332;0.29500
4886110;0.56500
4888888;0.77000
4891665;0.89000
4894443;0.84500
4897221;0.60500
4899999;0.20000
4902776;-0.17000
4905554;-0.39000
4908332;-0.46500
4911110;-0.44500
4913888;-0.42000
4916665;-0.39500
4919443;-0.38500
4922221;-0.37500
4924999;-0.36000
4927776;-0.36500
4930554;-0.38000
4933332;-0.38000
4936110;-0.38500
4938888;-0.38000
4941665;-0.37000
4944443;-0.37500
4947221;-0.38500
4949999;-0.40000
4952776;-0.40000
4955554;-0.40000
4958332;-0.39000
4961110;-0.39000
4963887;-0.38500
4966665;-0.40000
4969443;-0.38000
4972221;-0.37500
4974999;-0.37000
4977776;-0.36500
4980554;-0.36500
4983332;-0.37500
4986110;-0.37000
4988887;-0.37000
4991665;-0.38000
4994443;-0.38000
4997221;-0.39500
4999999;-0.40000
5002776;-0.40000
5005554;-0.39500
5008332;-0.39000
5011110;-0.39000
5013887;-0.38500
5016665;-0.39000
5019443;-0.40500
5022221;-0.39000
5024999;-0.38500
5027776;-0.39000
5030554;-0.40500
5033332;-0.41000
5036110;-0.39000
5038887;-0.38500
5041665;-0.37500
5044443;-0.37500
5047221;-0.38500
5049999;-0.39000
5052776;-0.39500
5055554;-0.38500
5058332;-0.38500
5061110;-0.39000
5063887;-0.39500
5066665;-0.41000
5069443;-0.41000
5072221;-0.41500
5074999;-0.40500
5077776;-0.40000
5080554;-0.40000
5083332;-0.42000
5086110;-0.41000
5088887;-0.40000
5091665;-0.39000
5094443;-0.40000
5097221;-0.40000
5099999;-0.41500
5102776;-0.41000
5105554;-0.39000
5108332;-0.37500
5111110;-0.40000
5113887;-0.41000
5116665;-0.41500
5119443;-0.41500
5122221;-0.41500
5124999;-0.41500
5127776;-0.42500
5130554;-0.43000
5133332;-0.43000
5136110;-0.41500
5138887;-0.40000
5141665;-0.40500
5144443;-0.41500
5147221;-0.43500
5149999;-0.46500
5152776;-0.46500
5155554;-0.46000
5158332;-0.46000
5161110;-0.46000
5163887;-0.46500
5166665;-0.46500
5169443;-0.46500
5172221;-0.45500
5174999;-0.44500
5177776;-0.43500
5180554;-0.43500
5183332;-0.43500
5186110;-0.40500
5188887;-0.39000
5191665;-0.36500
5194443;-0.35500
5197221;-0.35500
5199999;-0.35000
5202776;-0.34000
5205554;-0.32500
5208332;-0.31500
5211110;-0.31500
5213887;-0.31000
5216665;-0.31500
5219443;-0.30000
5222221;-0.29000
5224999;-0.29500
5227776;-0.29500
5230554;-0.31500
5233332;-0.32500
5236110;-0.31000
5238887;-0.28500
5241665;-0.28500
5244443;-0.28500
5247221;-0.30000
5249999;-0.30500
5252776;-0.31000
5255554;-0.30500
5258332;-0.29000
5261110;-0.28500
5263887;-0.29000
5266665;-0.30000
5269443;-0.29500
5272221;-0.30500
5274999;-0.30000
5277776;-0.30500
5280554;-0.30500
5283332;-0.30500
5286110;-0.31500
5288887;-0.31500
5291665;-0.30000
5294443;-0.29000
5297221;-0.30000
5299999;-0.30500
5302776;-0.31000
5305554;-0.30500
5308332;-0.30500
5311110;-0.30000
5313887;-0.30500
5316665;-0.31500
5319443;-0.31500
5322221;-0.30500
5324999;-0.32000
5327776;-0.32000
5330554;-0.34500
5333332;-0.35000
5336110;-0.32500
5338887;-0.32000
5341665;-0.30500
5344443;-0.31000
5347221;-0.32000
5349999;-0.33000
5352776;-0.34500
5355554;-0.33500
5358332;-0.33000
5361110;-0.33500
5363887;-0.36000
5366665;-0.35500
5369443;-0.34000
5372221;-0.33500
5374998;-0.35000
5377776;-0.35000
5380554;-0.36500
5383332;-0.37000
5386110;-0.36000
5388887;-0.34500
5391665;-0.34000
5394443;-0.34500
5397221;-0.35500
5399998;-0.35500
5402776;-0.34000
5405554;-0.33000
5408332;-0.33500
5411110;-0.32500
5413887;-0.34000
5416665;-0.35000
5419443;-0.34000
5422221;-0.33500
5424998;-0.33500
5427776;-0.34000
5430554;-0.36000
5433332;-0.36000
5436110;-0.35000
5438887;-0.33500
5441665;-0.34500
5444443;-0.34500
5447221;-0.34500
5449998;-0.36000
5452776;-0.35500
5455554;-0.35000
5458332;-0.34000
5461110;-0.34000
5463887;-0.35000
5466665;-0.36000
5469443;-0.33500
5472221;-0.32500
5474998;-0.32000
5477776;-0.32000
5480554;-0.31500
5483332;-0.31000
5486110;-0.29000
5488887;-0.26500
5491665;-0.25500
5494443;-0.25500
5497221;-0.27000
5499998;-0.27500
5502776;-0.27000
5505554;-0.24500
5508332;-0.24500
5511110;-0.24500
5513887;-0.24500
5516665;-0.26000
5519443;-0.25000
5522221;-0.23500
5524998;-0.23500
5527776;-0.24000
5530554;-0.25500
5533332;-0.27000
5536110;-0.28000
5538887;-0.26500
5541665;-0.25000
5544443;-0.24500
5547221;-0.26000
5549998;-0.28000
5552776;-0.28500
5555554;-0.27000
5558332;-0.25500
5561110;-0.24500
5563887;-0.26000
5566665;-0.28000
5569443;-0.30000
5572221;-0.29500
5574998;-0.30000
5577776;-0.32000
5580554;-0.33000
5583332;-0.34000
5586110;-0.34500
5588887;-0.35000
5591665;-0.34500
5594443;-0.35000
5597221;-0.34000
5599998;-0.35500
5602776;-0.35500
5605554;-0.35500
5608332;-0.35000
5611110;-0.36000
5613887;-0.37500
5616665;-0.37500
5619443;-0.36500
5622221;-0.36500
5624998;-0.35500
5627776;-0.35500
5630554;-0.36500
5633332;-0.37000
5636110;-0.37000
5638887;-0.35000
5641665;-0.35000
5644443;-0.35000
5647221;-0.36000
5649998;-0.36000
5652776;-0.35000
5655554;-0.34000
5658332;-0.33500
5661110;-0.33500
5663887;-0.35000
5666665;-0.37500
5669443;-0.39000
5672221;-0.42500
5674998;-0.44500
5677776;-0.46000
5680554;-0.47500
5683332;-0.53000
5686110;-0.54500
5688887;-0.52500
5691665;-0.42500
5694443;-0.29000
5697221;-0.16500
5699998;0.01500
5702776;0.24500
5705554;0.51500
5708332;0.75500
5711110;0.90000
5713887;0.96500
5716665;0.84500
5719443;0.54000
5722221;0.14500
5724998;-0.21000
5727776;-0.40500
5730554;-0.48000
5733332;-0.49000
5736110;-0.43500
5738887;-0.39500
5741665;-0.36500
5744443;-0.36000
5747221;-0.37500
5749998;-0.39000
5752776;-0.38500
5755554;-0.37500
5758332;-0.36500
5761109;-0.37000
5763887;-0.38500
5766665;-0.39500
5769443;-0.38000
5772221;-0.36500
5774998;-0.37500
5777776;-0.37500
5780554;-0.38000
5783332;-0.39000
5786109;-0.38000
5788887;-0.38000
5791665;-0.37500
5794443;-0.38500
5797221;-0.39000
5799998;-0.39000
5802776;-0.38000
5805554;-0.39000
5808332;-0.38500
5811109;-0.37500
5813887;-0.38500
5816665;-0.38000
5819443;-0.38000
5822221;-0.36500
5824998;-0.35500
5827776;-0.36500
5830554;-0.37500
5833332;-0.38000
5836109;-0.36500
5838887;-0.36000
5841665;-0.36000
5844443;-0.36000
5847221;-0.36500
5849998;-0.38000
5852776;-0.37500
5855554;-0.36500
5858332;-0.35500
5861109;-0.36500
5863887;-0.38000
5866665;-0.38000
5869443;-0.37500
5872221;-0.37000
5874998;-0.37000
5877776;-0.36000
5880554;-0.37500
5883332;-0.39500
5886109;-0.38500
5888887;-0.38500
5891665;-0.37000
5894443;-0.37000
5897221;-0.37500
5899998;-0.39000
5902776;-0.37500
5905554;-0.36500
5908332;-0.35000
5911109;-0.35500
5913887;-0.36000
5916665;-0.37500
5919443;-0.37500
5922221;-0.37000
5924998;-0.36000
5927776;-0.36500
5930554;-0.38000
5933332;-0.38000
5936109;-0.38000
5938887;-0.38000
5941665;-0.38000
5944443;-0.37000
5947221;-0.38500
5949998;-0.39000
5952776;-0.40000
5955554;-0.39000
5958332;-0.38500
5961109;-0.40000
5963887;-0.41000
5966665;-0.42000
5969443;-0.41500
5972221;-0.40500
5974998;-0.41000
5977776;-0.40500
5980554;-0.40500
5983332;-0.42000
5986109;-0.41000
5988887;-0.41000
5991665;-0.40500
5994443;-0.40000
5997221;-0.40000
5999998;-0.41000
6002776;-0.39000
6005554;-0.37000
6008332;-0.34500
6011109;-0.35000
6013887;-0.34500
6016665;-0.35500
6019443;-0.35000
6022221;-0.32000
6024998;-0.31000
6027776;-0.29500
6030554;-0.30000
6033332;-0.30000
6036109;-0.27500
6038887;-0.28000
6041665;-0.25500
6044443;-0.25000
6047221;-0.25000
6049998;-0.25500
6052776;-0.25500
6055554;-0.24000
6058332;-0.22000
6061109;-0.22500
6063887;-0.23000
6066665;-0.23500
6069443;-0.24000
6072221;-0.22000
6074998;-0.22000
6077776;-0.22500
6080554;-0.24000
6083332;-0.24500
6086109;-0.25000
6088887;-0.24000
6091665;-0.23000
6094443;-0.23500
6097221;-0.23000
6099998;-0.24000
6102776;-0.24000
6105554;-0.24000
6108332;-0.22500
6111109;-0.22500
6113887;-0.23500
6116665;-0.24500
6119443;-0.24000
6122221;-0.23500
6124998;-0.23000
6127776;-0.23000
6130554;-0.24000
6133332;-0.25000
6136109;-0.25000
6138887;-0.24500
6141665;-0.24000
6144443;-0.25000
6147221;-0.24500
6149998;-0.26500
6152776;-0.26000
6155554;-0.26500
6158332;-0.24000
6161109;-0.25000
6163887;-0.26000
6166665;-0.26500
6169443;-0.26500
6172220;-0.25500
6174998;-0.24500
6177776;-0.25500
6180554;-0.26000
6183332;-0.26500
6186109;-0.26500
6188887;-0.25500
6191665;-0.26500
6194443;-0.25500
6197220;-0.27000
6199998;-0.27500
6202776;-0.28000
6205554;-0.27000
6208332;-0.25000
6211109;-0.26000
6213887;-0.27000
6216665;-0.28500
6219443;-0.27000
6222220;-0.27500
6224998;-0.26500
6227776;-0.25500
6230554;-0.26000
6233332;-0.27500
6236109;-0.27000
6238887;-0.25500
6241665;-0.25500
6244443;-0.25000
6247220;-0.26000
6249998;-0.27500
6252776;-0.26500
6255554;-0.26500
6258332;-0.26000
6261109;-0.25500
6263887;-0.26500
6266665;-0.28000
6269443;-0.27500
6272220;-0.26500
6274998;-0.26500
6277776;-0.26500
6280554;-0.27000
6283332;-0.27500
6286109;-0.27000
6288887;-0.27000
6291665;-0.26000
6294443;-0.26000
6297220;-0.26000
6299998;-0.27500
6302776;-0.26000
6305554;-0.25000
6308332;-0.25000
6311109;-0.25000
6313887;-0.26000
6316665;-0.26500
6319443;-0.25500
6322220;-0.24500
6324998;-0.23500
6327776;-0.24000
6330554;-0.22000
6333332;-0.23000
6336109;-0.21500
6338887;-0.19000
6341665;-0.19000
6344443;-0.18500
6347220;-0.19500
6349998;-0.18500
6352776;-0.19000
6355554;-0.18000
6358332;-0.17000
6361109;-0.16500
6363887;-0.16500
6366665;-0.17500
6369443;-0.16000
6372220;-0.16500
6374998;-0.16000
6377776;-0.16000
6380554;-0.16500
6383332;-0.19000
6386109;-0.18000
6388887;-0.17000
6391665;-0.16000
6394443;-0.17000
6397220;-0.18500
6399998;-0.19000
6402776;-0.18500
6405554;-0.15000
6408332;-0.13500
6411109;-0.14000
6413887;-0.17500
6416665;-0.20000
6419443;-0.21500
6422220;-0.23000
6424998;-0.23500
6427776;-0.26000
6430554;-0.28500
6433332;-0.29500
6436109;-0.28500
6438887;-0.29500
6441665;-0.29000
6444443;-0.28500
6447220;-0.30000
6449998;-0.30000
6452776;-0.30000
6455554;-0.28500
6458332;-0.28500
6461109;-0.28500
6463887;-0.30000
6466665;-0.30000
6469443;-0.29000
6472220;-0.28000
6474998;-0.29500
6477776;-0.29500
6480554;-0.28500
6483332;-0.31000
6486109;-0.29000
6488887;-0.29000
6491665;-0.28000
6494443;-0.28000
6497220;-0.29500
6499998;-0.31500
6502776;-0.33500
6505554;-0.34500
6508332;-0.38500
6511109;-0.42000
6513887;-0.43500
6516665;-0.48000
6519443;-0.51000
6522220;-0.47500
6524998;-0.37000
6527776;-0.21000
6530554;-0.06000
6533332;0.10500
6536109;0.34500
6538887;0.64000
6541665;0.88500
6544443;1.05000
6547220;1.10000
6549998;0.99500
6552776;0.67500
6555554;0.23000
6558331;-0.16000
6561109;-0.40000
6563887;-0.45000
6566665;-0.42500
6569443;-0.39000
6572220;-0.34000
6574998;-0.31000
6577776;-0.30500
6580554;-0.32000
6583331;-0.34000
6586109;-0.34500
6588887;-0.33500
6591665;-0.32500
6594443;-0.33000
6597220;-0.34000
6599998;-0.35500
6602776;-0.35000
6605554;-0.34500
6608331;-0.33000
6611109;-0.34000
6613887;-0.34500
6616665;-0.35000
6619443;-0.34500
6622220;-0.33000
6624998;-0.32500
6627776;-0.34000
6630554;-0.35000
6633331;-0.35000
6636109;-0.34500
6638887;-0.34000
6641665;-0.33000
6644443;-0.34500
6647220;-0.35000
6649998;-0.35500
6652776;-0.36000
6655554;-0.35000
6658331;-0.35000
6661109;-0.34500
6663887;-0.36000
6666665;-0.37000
6669443;-0.36000
6672220;-0.35000
6674998;-0.34500
6677776;-0.33500
6680554;-0.34500
6683331;-0.35500
6686109;-0.35000
6688887;-0.34000
6691665;-0.34500
6694443;-0.34000
6697220;-0.34500
6699998;-0.36000
6702776;-0.35500
6705554;-0.34000
6708331;-0.33500
6711109;-0.33000
6713887;-0.34500
6716665;-0.36000
6719443;-0.35500
6722220;-0.35000
6724998;-0.34500
6727776;-0.34500
6730554;-0.35500
6733331;-0.37500
6736109;-0.37000
6738887;-0.36000
6741665;-0.36000
6744443;-0.35000
6747220;-0.35500
6749998;-0.36000
6752776;-0.36000
6755554;-0.34500
6758331;-0.33000
6761109;-0.34000
6763887;-0.35000
6766665;-0.36500
6769443;-0.34500
6772220;-0.33500
6774998;-0.34500
6777776;-0.34000
6780554;-0.34500
6783331;-0.35000
6786109;-0.34500
6788887;-0.35000
6791665;-0.34000
6794443;-0.35000
6797220;-0.35000
6799998;-0.37000
6802776;-0.36000
6805554;-0.35500
6808331;-0.35000
6811109;-0.35500
6813887;-0.36000
6816665;-0.37500
6819443;-0.37000
6822220;-0.36500
6824998;-0.36000
6827776;-0.36000
6830554;-0.36500
6833331;-0.37000
6836109;-0.35500
6838887;-0.34500
6841665;-0.34500
6844443;-0.33500
6847220;-0.34000
6849998;-0.33500
6852776;-0.32500
6855554;-0.29500
6858331;-0.28000
6861109;-0.27000
6863887;-0.26500
6866665;-0.27500
6869443;-0.26500
6872220;-0.24000
6874998;-0.23000
6877776;-0.23000
6880554;-0.23000
6883331;-0.23000
6886109;-0.23500
6888887;-0.22000
6891665;-0.21500
6894443;-0.20500
6897220;-0.23000
6899998;-0.23500
6902776;-0.24000
6905554;-0.23000
6908331;-0.23000
6911109;-0.23000
6913887;-0.23500
6916665;-0.25000
6919443;-0.23500
6922220;-0.22500
6924998;-0.22000
6927776;-0.22000
6930554;-0.22500
6933331;-0.22500
6936109;-0.23000
6938887;-0.22500
6941665;-0.21000
6944442;-0.23500
6947220;-0.23000
6949998;-0.24000
6952776;-0.23500
6955554;-0.23000
6958331;-0.22500
6961109;-0.22500
6963887;-0.23000
6966665;-0.24500
6969442;-0.24500
6972220;-0.24000
6974998;-0.23500
6977776;-0.24500
6980554;-0.25500
6983331;-0.25500
6986109;-0.25000
6988887;-0.26500
6991665;-0.23500
6994442;-0.23500
6997220;-0.25000
6999998;-0.26500
7002776;-0.25000
7005554;-0.25500
7008331;-0.25500
7011109;-0.25500
7013887;-0.25500
7016665;-0.26500
7019442;-0.27000
7022220;-0.25500
7024998;-0.25500
7027776;-0.25000
7030554;-0.26500
7033331;-0.27000
7036109;-0.28000
7038887;-0.27500
7041665;-0.26500
7044442;-0.27000
7047220;-0.28000
7049998;-0.29500
7052776;-0.28500
7055554;-0.28000
7058331;-0.27500
7061109;-0.28000
7063887;-0.29500
7066665;-0.30000
7069442;-0.28000
7072220;-0.27000
7074998;-0.26500
7077776;-0.26500
7080554;-0.27500
7083331;-0.28500
7086109;-0.28000
7088887;-0.26500
7091665;-0.25500
7094442;-0.25500
7097220;-0.26000
7099998;-0.28000
7102776;-0.28000
7105554;-0.26000
7108331;-0.25500
7111109;-0.26500
7113887;-0.27500
7116665;-0.29000
7119442;-0.27500
7122220;-0.27000
7124998;-0.26500
7127776;-0.27000
7130554;-0.27500
7133331;-0.28500
7136109;-0.29000
7138887;-0.27500
7141665;-0.26500
7144442;-0.27500
7147220;-0.26000
7149998;-0.27000
7152776;-0.27500
7155554;-0.27000
7158331;-0.26000
7161109;-0.25000
7163887;-0.25500
7166665;-0.25000
7169442;-0.24500
7172220;-0.21500
7174998;-0.19500
7177776;-0.19500
7180554;-0.21500
7183331;-0.22500
7186109;-0.21000
7188887;-0.20000
7191665;-0.18500
7194442;-0.17500
7197220;-0.17000
7199998;-0.17500
7202776;-0.18000
7205554;-0.15500
7208331;-0.15500
7211109;-0.15000
7213887;-0.17000
7216665;-0.20000
7219442;-0.18500
7222220;-0.18000
7224998;-0.17000
7227776;-0.17500
7230554;-0.20000
7233331;-0.21000
7236109;-0.20500
7238887;-0.17500
7241665;-0.15000
7244442;-0.14500
7247220;-0.16000
7249998;-0.20500
7252776;-0.22000
7255554;-0.22000
7258331;-0.23000
7261109;-0.24500
7263887;-0.25500
7266665;-0.27500
7269442;-0.26500
7272220;-0.27000
7274998;-0.27000
7277776;-0.27500
7280554;-0.27500
7283331;-0.28500
7286109;-0.27000
7288887;-0.27000
7291665;-0.26000
7294442;-0.26500
7297220;-0.28000
7299998;-0.28000
7302776;-0.27500
7305554;-0.28000
7308331;-0.27500
7311109;-0.27000
7313887;-0.28500
7316665;-0.29500
7319442;-0.30500
7322220;-0.29000
7324998;-0.29500
7327776;-0.29500
7330554;-0.30500
7333331;-0.32000
7336109;-0.31500
7338887;-0.30000
7341665;-0.29000
7344442;-0.28500
7347220;-0.30500
7349998;-0.33000
7352776;-0.36000
7355553;-0.39000
7358331;-0.40500
7361109;-0.42500
7363887;-0.47000
7366665;-0.51000
7369442;-0.48000
7372220;-0.36000
7374998;-0.20000
7377776;-0.05500
7380553;0.09500
7383331;0.32000
7386109;0.58500
7388887;0.82500
7391665;0.99500
7394442;1.04500
7397220;0.94500
7399998;0.65500
7402776;0.22500
7405553;-0.15500
7408331;-0.36500
7411109;-0.41000
7413887;-0.38000
7416665;-0.34000
7419442;-0.30500
7422220;-0.32000
7424998;-0.32000
7427776;-0.31500
7430553;-0.32000
7433331;-0.33000
7436109;-0.32500
7438887;-0.31500
7441665;-0.32000
7444442;-0.31500
7447220;-0.33000
7449998;-0.33000
7452776;-0.33500
7455553;-0.33000
7458331;-0.32000
7461109;-0.33500
7463887;-0.33000
7466665;-0.33500
7469442;-0.34500
7472220;-0.33000
7474998;-0.33000
7477776;-0.32500
7480553;-0.33000
7483331;-0.34000
7486109;-0.33000
7488887;-0.32000
7491665;-0.30500
7494442;-0.31500
7497220;-0.31500
7499998;-0.33000
7502776;-0.32500
7505553;-0.31500
7508331;-0.32000
7511109;-0.31000
7513887;-0.32000
7516665;-0.33000
7519442;-0.33000
7522220;-0.33000
7524998;-0.32000
7527776;-0.31500
7530553;-0.32000
7533331;-0.32500
7536109;-0.32500
7538887;-0.31500
7541665;-0.31500
7544442;-0.32500
7547220;-0.32500
7549998;-0.33500
7552776;-0.33500
7555553;-0.34500
7558331;-0.32500
7561109;-0.32000
7563887;-0.33000
7566665;-0.33500
7569442;-0.34000
7572220;-0.33500
7574998;-0.31500
7577776;-0.32500
7580553;-0.33500
7583331;-0.34500
7586109;-0.32500
7588887;-0.32500
7591665;-0.31500
7594442;-0.32000
7597220;-0.32500
7599998;-0.33500
7602776;-0.32500
7605553;-0.31500
7608331;-0.32000
7611109;-0.31500
7613887;-0.33000
7616665;-0.33000
7619442;-0.33500
7622220;-0.32500
7624998;-0.31000
7627776;-0.32000
7630553;-0.33000
7633331;-0.33000
7636109;-0.33500
7638887;-0.33000
7641665;-0.33500
7644442;-0.32000
7647220;-0.33500
7649998;-0.33500
7652776;-0.34000
7655553;-0.33000
7658331;-0.32500
7661109;-0.33000
7663887;-0.34000
7666665;-0.35500
7669442;-0.35000
7672220;-0.33000
7674998;-0.31500
7677776;-0.32000
7680553;-0.32500
7683331;-0.32500
7686109;-0.33500
7688887;-0.32000
7691665;-0.30500
7694442;-0.31000
7697220;-0.31000
7699998;-0.31000
7702776;-0.31000
7705553;-0.28000
7708331;-0.26000
7711109;-0.25000
7713887;-0.25500
7716665;-0.25000
7719442;-0.24500
7722220;-0.23000
7724998;-0.22500
7727776;-0.22000
7730553;-0.23000
7733331;-0.24500
7736109;-0.23000
7738887;-0.21500
7741664;-0.20500
7744442;-0.20500
7747220;-0.21000
7749998;-0.22000
7752776;-0.21000
7755553;-0.20500
7758331;-0.20000
7761109;-0.19500
7763887;-0.21000
7766664;-0.21500
7769442;-0.20500
7772220;-0.20500
7774998;-0.19500
7777776;-0.19000
7780553;-0.20000
7783331;-0.22000
7786109;-0.22000
7788887;-0.21000
7791664;-0.20000
7794442;-0.20500
7797220;-0.21000
7799998;-0.22000
7802776;-0.22000
7805553;-0.22000
7808331;-0.21000
7811109;-0.21000
7813887;-0.21500
7816664;-0.23000
7819442;-0.23500
7822220;-0.23500
7824998;-0.23000
7827776;-0.24000
7830553;-0.23500
7833331;-0.24000
7836109;-0.24500
7838887;-0.23000
7841664;-0.23000
7844442;-0.22000
7847220;-0.23000
7849998;-0.24500
7852776;-0.24500
7855553;-0.24500
7858331;-0.23000
7861109;-0.22500
7863887;-0.24500
7866664;-0.25500
7869442;-0.24500
7872220;-0.24500
7874998;-0.23500
7877776;-0.24500
7880553;-0.26000
7883331;-0.26500
7886109;-0.26500
7888887;-0.25500
7891664;-0.25500
7894442;-0.25500
7897220;-0.26000
7899998;-0.27500
7902776;-0.26500
7905553;-0.26000
7908331;-0.26000
7911109;-0.25500
7913887;-0.26000
7916664;-0.27500
7919442;-0.26500
7922220;-0.24500
7924998;-0.24500
7927776;-0.23500
7930553;-0.24000
7933331;-0.26000
7936109;-0.25500
7938887;-0.24500
7941664;-0.24000
7944442;-0.24500
7947220;-0.24500
7949998;-0.26000
7952776;-0.25500
7955553;-0.24500
7958331;-0.24500
7961109;-0.24000
7963887;-0.24500
7966664;-0.26000
7969442;-0.25000
7972220;-0.24500
7974998;-0.25500
7977776;-0.25000
7980553;-0.24000
7983331;-0.27500
7986109;-0.26000
7988887;-0.25500
7991664;-0.23000
7994442;-0.23500
7997220;-0.23500
7999998;-0.22500
8002776;-0.22000
8005553;-0.20500
8008331;-0.18500
8011109;-0.18000
8013887;-0.18500
8016664;-0.19000
8019442;-0.17500
8022220;-0.18000
8024998;-0.16500
8027776;-0.15000
8030553;-0.15500
8033331;-0.15500
8036109;-0.14000
8038887;-0.14000
8041664;-0.13000
8044442;-0.13000
8047220;-0.14500
8049998;-0.16500
8052776;-0.18000
8055553;-0.16000
8058331;-0.15500
8061109;-0.15500
8063887;-0.18000
8066664;-0.19000
8069442;-0.19500
8072220;-0.16000
8074998;-0.14000
8077776;-0.10500
8080553;-0.10500
8083331;-0.13500
8086109;-0.16500
8088887;-0.17500
8091664;-0.17500
8094442;-0.19000
8097220;-0.20500
8099998;-0.24500
8102776;-0.25000
8105553;-0.25000
8108331;-0.25500
8111109;-0.25500
8113887;-0.27000
8116664;-0.27500
8119442;-0.27000
8122220;-0.27500
8124998;-0.26500
8127776;-0.26500
8130553;-0.27500
8133331;-0.28500
8136109;-0.28000
8138887;-0.27500
8141664;-0.27000
8144442;-0.26500
8147220;-0.27000
8149998;-0.27500
8152775;-0.29000
8155553;-0.28000
8158331;-0.27500
8161109;-0.27500
8163887;-0.27500
8166664;-0.29000
8169442;-0.30000
8172220;-0.33000
8174998;-0.35500
8177775;-0.38500
8180553;-0.41500
8183331;-0.46500
8186109;-0.49500
8188887;-0.47500
8191664;-0.37500
8194442;-0.23000
8197220;-0.09500
8199998;0.08000
8202775;0.34500
8205553;0.63000
8208331;0.85000
8211109;0.96000
8213887;0.92000
8216664;0.68000
8219442;0.27500
8222220;-0.10500
8224998;-0.34000
8227775;-0.43000
8230553;-0.41000
8233331;-0.37500
8236109;-0.33000
8238887;-0.31500
8241664;-0.31000
8244442;-0.30500
8247220;-0.32000
8249998;-0.33000
8252775;-0.33500
8255553;-0.32500
8258331;-0.31000
8261109;-0.31000
8263887;-0.32500
8266664;-0.34000
8269442;-0.33000
8272220;-0.33500
8274998;-0.32500
8277775;-0.32500
8280553;-0.33000
8283331;-0.34500
8286109;-0.34500
8288887;-0.33000
8291664;-0.32000
8294442;-0.32000
8297220;-0.32500
8299998;-0.33500
8302775;-0.34000
8305553;-0.33000
8308331;-0.32000
8311109;-0.32000
8313887;-0.32500
8316664;-0.33500
8319442;-0.33500
8322220;-0.32500
8324998;-0.33000
8327775;-0.32000
8330553;-0.31500
8333331;-0.33000
8336109;-0.33500
8338887;-0.34000
8341664;-0.33000
8344442;-0.34500
8347220;-0.34500
8349998;-0.35000
8352775;-0.36500
8355553;-0.35500
8358331;-0.34500
8361109;-0.34000
8363887;-0.34000
8366664;-0.35500
8369442;-0.35500
8372220;-0.34500
8374998;-0.32500
8377775;-0.33000
8380553;-0.33000
8383331;-0.35000
8386109;-0.35000
8388887;-0.33000
8391664;-0.31500
8394442;-0.32500
8397220;-0.34500
8399998;-0.37500
8402775;-0.36000
8405553;-0.35000
8408331;-0.32500
8411109;-0.33500
8413887;-0.34500
8416664;-0.36000
8419442;-0.36500
8422220;-0.35500
8424998;-0.34500
8427775;-0.34000
8430553;-0.35000
8433331;-0.38000
8436109;-0.36500
8438887;-0.37000
8441664;-0.34000
8444442;-0.34500
8447220;-0.36500
8449998;-0.38000
8452775;-0.39000
8455553;-0.37500
8458331;-0.36000
8461109;-0.36000
8463887;-0.37000
8466664;-0.38000
8469442;-0.36500
8472220;-0.36000
8474998;-0.35000
8477775;-0.35500
8480553;-0.36000
8483331;-0.37500
8486109;-0.37500
8488887;-0.36000
8491664;-0.36000
8494442;-0.38000
8497220;-0.38500
8499998;-0.38500
8502775;-0.37000
8505553;-0.33500
8508331;-0.32000
8511109;-0.32000
8513887;-0.31500
8516664;-0.33000
8519442;-0.32000
8522220;-0.30000
8524998;-0.28500
8527775;-0.27000
8530553;-0.27500
8533331;-0.27500
8536109;-0.26500
8538886;-0.26000
8541664;-0.25000
8544442;-0.26000
8547220;-0.28000
8549998;-0.28000
8552775;-0.26500
8555553;-0.25000
8558331;-0.24000
8561109;-0.24500
8563886;-0.25500
8566664;-0.27000
8569442;-0.26500
8572220;-0.25500
8574998;-0.24500
8577775;-0.25000
8580553;-0.24500
8583331;-0.27000
8586109;-0.26500
8588886;-0.26500
8591664;-0.26500
8594442;-0.26000
8597220;-0.27000
8599998;-0.27000
8602775;-0.26500
8605553;-0.26000
8608331;-0.26500
8611109;-0.28000
8613886;-0.29000
8616664;-0.30000
8619442;-0.29500
8622220;-0.28500
8624998;-0.29000
8627775;-0.27500
8630553;-0.28500
8633331;-0.29500
8636109;-0.29500
8638886;-0.28500
8641664;-0.27500
8644442;-0.26500
8647220;-0.28000
8649998;-0.29000
8652775;-0.29000
8655553;-0.29000
8658331;-0.29000
8661109;-0.30500
8663886;-0.31500
8666664;-0.32500
8669442;-0.31500
8672220;-0.31000
8674998;-0.29500
8677775;-0.30000
8680553;-0.30500
8683331;-0.32500
8686109;-0.32000
8688886;-0.30500
8691664;-0.29500
8694442;-0.31500
8697220;-0.32000
8699998;-0.32500
8702775;-0.34000
8705553;-0.34000
8708331;-0.32500
8711109;-0.32500
8713886;-0.34500
8716664;-0.34000
8719442;-0.32500
8722220;-0.31500
8724998;-0.30500
8727775;-0.31000
8730553;-0.30500
8733331;-0.31000
8736109;-0.31000
8738886;-0.31000
8741664;-0.31000
8744442;-0.30500
8747220;-0.32000
8749998;-0.33500
8752775;-0.33500
8755553;-0.32500
8758331;-0.32500
8761109;-0.33000
8763886;-0.32500
8766664;-0.32500
8769442;-0.31000
8772220;-0.32500
8774998;-0.31000
8777775;-0.31500
8780553;-0.29500
8783331;-0.30000
8786109;-0.28000
8788886;-0.25500
8791664;-0.24500
8794442;-0.25000
8797220;-0.27500
8799998;-0.27000
8802775;-0.27500
8805553;-0.24000
8808331;-0.24500
8811109;-0.21500
8813886;-0.23500
8816664;-0.23000
8819442;-0.23000
8822220;-0.21500
8824998;-0.19500
8827775;-0.19000
8830553;-0.20000
8833331;-0.24000
8836109;-0.24000
8838886;-0.25000
8841664;-0.23500
8844442;-0.22500
8847220;-0.24000
8849998;-0.25500
8852775;-0.27000
8855553;-0.27000
8858331;-0.24500
8861109;-0.22000
8863886;-0.23000
8866664;-0.26000
8869442;-0.27500
8872220;-0.29500
8874998;-0.30000
8877775;-0.32500
8880553;-0.33000
8883331;-0.34500
8886109;-0.34500
8888886;-0.33500
8891664;-0.33500
8894442;-0.33500
8897220;-0.34500
8899998;-0.34500
8902775;-0.35500
8905553;-0.35000
8908331;-0.34000
8911109;-0.35000
8913886;-0.36500
8916664;-0.37000
8919442;-0.36000
8922220;-0.33500
8924998;-0.33500
8927775;-0.34500
8930553;-0.35500
8933331;-0.34500
8936109;-0.35000
8938886;-0.35500
8941664;-0.35000
8944442;-0.35000
8947220;-0.37000
8949997;-0.39000
8952775;-0.40500
8955553;-0.42000
8958331;-0.43500
8961109;-0.47500
8963886;-0.53500
8966664;-0.57500
8969442;-0.51500
8972220;-0.37000
8974997;-0.19500
8977775;-0.00500
8980553;0.22500
8983331;0.49500
8986109;0.74500
8988886;0.90000
8991664;0.87500
8994442;0.62000
8997220;0.19500
8999997;-0.20000
9002775;-0.42000
9005553;-0.48500
9008331;-0.47000
9011109;-0.42500
9013886;-0.41000
9016664;-0.41500
9019442;-0.42000
9022220;-0.41000
9024997;-0.39500
9027775;-0.39000
9030553;-0.40000
9033331;-0.39000
9036109;-0.38500
9038886;-0.38500
9041664;-0.37000
9044442;-0.37500
9047220;-0.39000
9049997;-0.40500
9052775;-0.41500
9055553;-0.41000
9058331;-0.40000
9061109;-0.38500
9063886;-0.41500
9066664;-0.42500
9069442;-0.43000
9072220;-0.40000
9074997;-0.39000
9077775;-0.38500
9080553;-0.40500
9083331;-0.41000
9086109;-0.41000
9088886;-0.40500
9091664;-0.40000
9094442;-0.41000
9097220;-0.42000
9099997;-0.42500
9102775;-0.43500
9105553;-0.43500
9108331;-0.42500
9111109;-0.42500
9113886;-0.41500
9116664;-0.42500
9119442;-0.43000
9122220;-0.41500
9124997;-0.40000
9127775;-0.39500
9130553;-0.40500
9133331;-0.41500
9136109;-0.42500
9138886;-0.41500
9141664;-0.40000
9144442;-0.41000
9147220;-0.41000
9149997;-0.41500
9152775;-0.43000
9155553;-0.41500
9158331;-0.41500
9161109;-0.41500
9163886;-0.44000
9166664;-0.43000
9169442;-0.43000
9172220;-0.42500
9174997;-0.41500
9177775;-0.41500
9180553;-0.43000
9183331;-0.44500
9186109;-0.43000
9188886;-0.42000
9191664;-0.41500
9194442;-0.41500
9197220;-0.41500
9199997;-0.43000
9202775;-0.43000
9205553;-0.41500
9208331;-0.41000
9211109;-0.42000
9213886;-0.43500
9216664;-0.44500
9219442;-0.45500
9222220;-0.44500
9224997;-0.44000
9227775;-0.46000
9230553;-0.46500
9233331;-0.46500
9236109;-0.46500
9238886;-0.47500
9241664;-0.46000
9244442;-0.46500
9247220;-0.49500
9249997;-0.49000
9252775;-0.49000
9255553;-0.46500
9258331;-0.45000
9261109;-0.44500
9263886;-0.44000
9266664;-0.45000
9269442;-0.43000
9272220;-0.40500
9274997;-0.37500
9277775;-0.37000
9280553;-0.36500
9283331;-0.36000
9286109;-0.35000
9288886;-0.33000
9291664;-0.30000
9294442;-0.31000
9297220;-0.30500
9299997;-0.30500
9302775;-0.31000
9305553;-0.28500
9308331;-0.27000
9311109;-0.28500
9313886;-0.29000
9316664;-0.28500
9319442;-0.29000
9322220;-0.29000
9324997;-0.27000
9327775;-0.28000
9330553;-0.28500
9333331;-0.28500
9336108;-0.28500
9338886;-0.28500
9341664;-0.27500
9344442;-0.27000
9347220;-0.27500
9349997;-0.28000
9352775;-0.29500
9355553;-0.29000
9358331;-0.27000
9361108;-0.27500
9363886;-0.27500
9366664;-0.28500
9369442;-0.28500
9372220;-0.27500
9374997;-0.28000
9377775;-0.27500
9380553;-0.29000
9383331;-0.30000
9386108;-0.29500
9388886;-0.28000
9391664;-0.27500
9394442;-0.28500
9397220;-0.28500
9399997;-0.28500
9402775;-0.30000
9405553;-0.28500
9408331;-0.28000
9411108;-0.28500
9413886;-0.30000
9416664;-0.29500
9419442;-0.29500
9422220;-0.28500
9424997;-0.29000
9427775;-0.28000
9430553;-0.30500
9433331;-0.28000
9436108;-0.30000
9438886;-0.29500
9441664;-0.28000
9444442;-0.28500
9447220;-0.29000
9449997;-0.30000
9452775;-0.29000
9455553;-0.29500
9458331;-0.28000
9461108;-0.28500
9463886;-0.31000
9466664;-0.31000
9469442;-0.31000
9472220;-0.29000
9474997;-0.29000
9477775;-0.30500
9480553;-0.30500
9483331;-0.30500
9486108;-0.30000
9488886;-0.29000
9491664;-0.27500
9494442;-0.27500
9497220;-0.28500
9499997;-0.30000
9502775;-0.30500
9505553;-0.28500
9508331;-0.27000
9511108;-0.27000
9513886;-0.28000
9516664;-0.28500
9519442;-0.28000
9522220;-0.27500
9524997;-0.26500
9527775;-0.27000
9530553;-0.28000
9533331;-0.29000
9536108;-0.30000
9538886;-0.28500
9541664;-0.27500
9544442;-0.28500
9547220;-0.28500
9549997;-0.29000
9552775;-0.29000
9555553;-0.27500
9558331;-0.26000
9561108;-0.24500
9563886;-0.23500
9566664;-0.23500
9569442;-0.23000
9572220;-0.20500
9574997;-0.19000
9577775;-0.18500
9580553;-0.19500
9583331;-0.19500
9586108;-0.18000
9588886;-0.17000
9591664;-0.16000
9594442;-0.15500
9597220;-0.16000
9599997;-0.17000
9602775;-0.17000
9605553;-0.17500
9608331;-0.18000
9611108;-0.19500
9613886;-0.19500
9616664;-0.19000
9619442;-0.20000
9622220;-0.20000
9624997;-0.19000
9627775;-0.17500
9630553;-0.15500
9633331;-0.14500
9636108;-0.17000
9638886;-0.18500
9641664;-0.21000
9644442;-0.21000
9647220;-0.22000
9649997;-0.24500
9652775;-0.26000
9655553;-0.28000
9658331;-0.26500
9661108;-0.27000
9663886;-0.28500
9666664;-0.29000
9669442;-0.29500
9672220;-0.28500
9674997;-0.27000
9677775;-0.27500
9680553;-0.29000
9683331;-0.31500
9686108;-0.30500
9688886;-0.31000
9691664;-0.30000
9694442;-0.29000
9697220;-0.31000
9699997;-0.31500
9702775;-0.31000
9705553;-0.30500
9708331;-0.29000
9711108;-0.29000
9713886;-0.30000
9716664;-0.30500
9719442;-0.32500
9722220;-0.36500
9724997;-0.39000
9727775;-0.43000
9730553;-0.45500
9733331;-0.49500
9736108;-0.48000
9738886;-0.37000
9741664;-0.20000
9744442;-0.02500
9747219;0.17500
9749997;0.43000
9752775;0.73000
9755553;0.96500
9758331;1.09500
9761108;1.05500
9763886;0.79500
9766664;0.31500
9769442;-0.17000
9772219;-0.42000
9774997;-0.45000
9777775;-0.40000
9780553;-0.34000
9783331;-0.31000
9786108;-0.31000
9788886;-0.31000
9791664;-0.30500
9794442;-0.31500
9797219;-0.33000
9799997;-0.33000
9802775;-0.33000
9805553;-0.31000
9808331;-0.30500
9811108;-0.32000
9813886;-0.32000
9816664;-0.33000
9819442;-0.33500
9822219;-0.33000
9824997;-0.32000
9827775;-0.32500
9830553;-0.33500
9833331;-0.35000
9836108;-0.34500
9838886;-0.33500
9841664;-0.32500
9844442;-0.33500
9847219;-0.34500
9849997;-0.35000
9852775;-0.35000
9855553;-0.34000
9858331;-0.33500
9861108;-0.33500
9863886;-0.34000
9866664;-0.35000
9869442;-0.35000
9872219;-0.34000
9874997;-0.32500
9877775;-0.32500
9880553;-0.34000
9883331;-0.35000
9886108;-0.33500
9888886;-0.34000
9891664;-0.32500
9894442;-0.33000
9897219;-0.33000
9899997;-0.34000
9902775;-0.33000
9905553;-0.33000
9908331;-0.32000
9911108;-0.34000
9913886;-0.33000
9916664;-0.34000
9919442;-0.35000
9922219;-0.34000
9924997;-0.32500
9927775;-0.32500
9930553;-0.34000
9933331;-0.35000
9936108;-0.35500
9938886;-0.33500
9941664;-0.32000
9944442;-0.32500
9947219;-0.33500
9949997;-0.33000
9952775;-0.34500
9955553;-0.32500
9958331;-0.33000
9961108;-0.33500
9963886;-0.33000
9966664;-0.33500
9969442;-0.34500
9972219;-0.34000
9974997;-0.33000
9977775;-0.33500
9980553;-0.34000
9983331;-0.36000
9986108;-0.37000
9988886;-0.35500
9991664;-0.33000
9994442;-0.34500
9997219;-0.36000
9999997;-0.36500
10002775;-0.37500
10005553;-0.36000
10008331;-0.35500
10011108;-0.35000
10013886;-0.36500
10016664;-0.36500
10019442;-0.37000
10022219;-0.35500
10024997;-0.34000
10027775;-0.33500
10030553;-0.34000
10033331;-0.34000
10036108;-0.33000
10038886;-0.31500
10041664;-0.30000
10044442;-0.29500
10047219;-0.28000
10049997;-0.28000
10052775;-0.28000
10055553;-0.24500
10058331;-0.23500
10061108;-0.22500
10063886;-0.23500
10066664;-0.24000
10069442;-0.23500
10072219;-0.22500
10074997;-0.21000
10077775;-0.21000
10080553;-0.22000
10083331;-0.21500
10086108;-0.22000
10088886;-0.21000
10091664;-0.19500
10094442;-0.20000
10097219;-0.20500
10099997;-0.21000
10102775;-0.21000
10105553;-0.19500
10108331;-0.18500
10111108;-0.19500
10113886;-0.20000
10116664;-0.21000
10119442;-0.20000
10122219;-0.21000
10124997;-0.19500
10127775;-0.21000
10130553;-0.21000
10133330;-0.21500
10136108;-0.22000
10138886;-0.20500
10141664;-0.20500
10144442;-0.20500
10147219;-0.20500
10149997;-0.22000
10152775;-0.21000
10155553;-0.21000
10158330;-0.20500
10161108;-0.20500
10163886;-0.22000
10166664;-0.23500
10169442;-0.23000
10172219;-0.21500
10174997;-0.23000
10177775;-0.22500
10180553;-0.23000
10183330;-0.23500
10186108;-0.23500
10188886;-0.23000
10191664;-0.22000
10194442;-0.22000
10197219;-0.23000
10199997;-0.24000
10202775;-0.24500
10205553;-0.24500
10208330;-0.24000
10211108;-0.24000
10213886;-0.24500
10216664;-0.25500
10219442;-0.26000
10222219;-0.25000
10224997;-0.24500
10227775;-0.24500
10230553;-0.25500
10233330;-0.27000
10236108;-0.26500
10238886;-0.25500
10241664;-0.24000
10244442;-0.25000
10247219;-0.26500
10249997;-0.28000
10252775;-0.28500
10255553;-0.27000
10258330;-0.26000
10261108;-0.26500
10263886;-0.26500
10266664;-0.27000
10269442;-0.27500
10272219;-0.25500
10274997;-0.24500
10277775;-0.26000
10280553;-0.26500
10283330;-0.27000
10286108;-0.27000
10288886;-0.25500
10291664;-0.25000
10294442;-0.25500
10297219;-0.26500
10299997;-0.26500
10302775;-0.26500
10305553;-0.26000
10308330;-0.25000
10311108;-0.26000
10313886;-0.26500
10316664;-0.27500
10319442;-0.26500
10322219;-0.26000
10324997;-0.25000
10327775;-0.26000
10330553;-0.26500
10333330;-0.26000
10336108;-0.26000
10338886;-0.25000
10341664;-0.22500
10344442;-0.21000
10347219;-0.20000
10349997;-0.20500
10352775;-0.20000
10355553;-0.18000
10358330;-0.17000
10361108;-0.17500
10363886;-0.18000
10366664;-0.17500
10369442;-0.16500
10372219;-0.16000
10374997;-0.13500
10377775;-0.14000
10380553;-0.15000
10383330;-0.17000
10386108;-0.18000
10388886;-0.18500
10391664;-0.17000
10394442;-0.18000
10397219;-0.18000
10399997;-0.17500
10402775;-0.18000
10405553;-0.17000
10408330;-0.16500
10411108;-0.14000
10413886;-0.13000
10416664;-0.14500
10419442;-0.16500
10422219;-0.18500
10424997;-0.19500
10427775;-0.19000
10430553;-0.19000
10433330;-0.21500
10436108;-0.23500
10438886;-0.23000
10441664;-0.23500
10444442;-0.24500
10447219;-0.25500
10449997;-0.27000
10452775;-0.29500
10455553;-0.28500
10458330;-0.27500
10461108;-0.27500
10463886;-0.28500
10466664;-0.28500
10469442;-0.29500
10472219;-0.28000
10474997;-0.27500
10477775;-0.29000
10480553;-0.29500
10483330;-0.28500
10486108;-0.30000
10488886;-0.30000
10491664;-0.28000
10494442;-0.28500
10497219;-0.29500
10499997;-0.30500
10502775;-0.31000
10505553;-0.30500
10508330;-0.30000
10511108;-0.31000
10513886;-0.35000
10516664;-0.41500
10519441;-0.45000
10522219;-0.47000
10524997;-0.49000
10527775;-0.51000
10530553;-0.45500
10533330;-0.32000
10536108;-0.13500
10538886;0.06500
10541664;0.30000
10544441;0.60000
10547219;0.86500
10549997;1.02500
10552775;1.05000
10555553;0.90500
10558330;0.50500
10561108;0.02000
10563886;-0.34000
10566664;-0.47500
10569441;-0.43500
10572219;-0.36500
10574997;-0.31500
10577775;-0.32000
10580553;-0.33500
10583330;-0.34000
10586108;-0.34000
10588886;-0.32000
10591664;-0.31000
10594441;-0.32000
10597219;-0.33500
10599997;-0.34000
10602775;-0.34500
10605553;-0.34000
10608330;-0.33000
10611108;-0.33000
10613886;-0.34500
10616664;-0.35000
10619441;-0.35500
10622219;-0.35000
10624997;-0.35500
10627775;-0.33500
10630553;-0.35000
10633330;-0.34500
10636108;-0.35500
10638886;-0.35000
10641664;-0.34500
10644441;-0.35000
10647219;-0.35000
10649997;-0.38000
10652775;-0.36500
10655553;-0.36500
10658330;-0.34500
10661108;-0.34500
10663886;-0.35500
10666664;-0.35500
10669441;-0.35000
10672219;-0.34500
10674997;-0.33500
10677775;-0.33500
10680553;-0.34000
10683330;-0.35000
10686108;-0.35500
10688886;-0.35500
10691664;-0.34000
10694441;-0.34500
10697219;-0.35500
10699997;-0.35500
10702775;-0.36000
10705553;-0.35500
10708330;-0.34000
10711108;-0.34000
10713886;-0.34000
10716664;-0.36000
10719441;-0.37500
10722219;-0.36000
10724997;-0.34000
10727775;-0.35000
10730553;-0.35000
10733330;-0.36500
10736108;-0.36500
10738886;-0.35000
10741664;-0.34000
10744441;-0.35000
10747219;-0.35500
10749997;-0.36500
10752775;-0.36000
10755553;-0.35500
10758330;-0.34500
10761108;-0.34500
10763886;-0.35500
10766664;-0.35000
10769441;-0.35500
10772219;-0.35000
10774997;-0.34000
10777775;-0.34000
10780553;-0.35000
10783330;-0.36000
10786108;-0.36500
10788886;-0.36000
10791664;-0.35000
10794441;-0.35500
10797219;-0.36000
10799997;-0.37000
10802775;-0.38000
10805553;-0.37000
10808330;-0.36000
10811108;-0.36000
10813886;-0.36000
10816664;-0.35500
10819441;-0.37000
10822219;-0.36000
10824997;-0.34500
10827775;-0.34000
10830553;-0.35000
10833330;-0.35000
10836108;-0.34500
10838886;-0.33500
10841664;-0.32000
10844441;-0.30000
10847219;-0.30000
10849997;-0.31000
10852775;-0.30500
10855553;-0.28000
10858330;-0.27000
10861108;-0.27500
10863886;-0.27500
10866664;-0.27500
10869441;-0.27000
10872219;-0.25500
10874997;-0.25000
10877775;-0.24000
10880553;-0.24000
10883330;-0.23500
10886108;-0.24000
10888886;-0.24000
10891664;-0.22000
10894441;-0.22500
10897219;-0.23000
10899997;-0.23500
10902775;-0.23500
10905553;-0.23500
10908330;-0.22500
10911108;-0.23500
10913886;-0.23500
10916664;-0.24000
10919441;-0.24000
10922219;-0.23000
10924997;-0.22500
10927775;-0.23500
10930552;-0.25000
10933330;-0.25000
10936108;-0.25000
10938886;-0.24500
10941664;-0.25500
10944441;-0.24000
10947219;-0.24500
10949997;-0.26000
10952775;-0.27500
10955552;-0.24500
10958330;-0.24000
10961108;-0.25000
10963886;-0.26000
10966664;-0.26000
10969441;-0.27500
10972219;-0.25000
10974997;-0.24500
10977775;-0.25000
10980552;-0.26000
10983330;-0.26000
10986108;-0.26500
10988886;-0.26500
10991664;-0.25000
10994441;-0.27000
10997219;-0.28000
10999997;-0.28000
11002775;-0.29000
11005552;-0.30000
11008330;-0.28500
11011108;-0.28500
11013886;-0.30000
11016664;-0.30500
11019441;-0.30500
11022219;-0.29500
11024997;-0.28500
11027775;-0.29500
11030552;-0.29500
11033330;-0.29000
11036108;-0.30500
11038886;-0.29000
11041664;-0.28500
11044441;-0.28000
11047219;-0.30000
11049997;-0.30500
11052775;-0.30500
11055552;-0.29500
11058330;-0.28000
11061108;-0.29500
11063886;-0.31000
11066664;-0.31500
11069441;-0.32500
11072219;-0.31000
11074997;-0.29500
11077775;-0.29500
11080552;-0.30000
11083330;-0.29500
11086108;-0.29500
11088886;-0.28000
11091664;-0.27000
11094441;-0.28500
11097219;-0.29000
11099997;-0.30000
11102775;-0.30000
11105552;-0.29500
11108330;-0.28500
11111108;-0.29500
11113886;-0.30500
11116664;-0.30000
11119441;-0.29500
11122219;-0.29000
11124997;-0.28000
11127775;-0.28000
11130552;-0.29500
11133330;-0.30500
11136108;-0.31000
11138886;-0.30000
11141664;-0.29000
11144441;-0.28500
11147219;-0.28500
11149997;-0.28000
11152775;-0.26500
11155552;-0.24500
11158330;-0.23000
11161108;-0.21500
11163886;-0.21500
11166664;-0.20500
11169441;-0.22000
11172219;-0.20500
11174997;-0.18500
11177775;-0.19000
11180552;-0.19500
11183330;-0.19500
11186108;-0.19500
11188886;-0.18500
11191664;-0.17000
11194441;-0.17000
11197219;-0.18000
11199997;-0.18500
11202775;-0.19000
11205552;-0.19500
11208330;-0.17000
11211108;-0.19000
11213886;-0.20000
11216664;-0.21000
11219441;-0.21000
11222219;-0.21500
11224997;-0.20500
11227775;-0.21000
11230552;-0.21000
11233330;-0.20500
11236108;-0.18500
11238886;-0.19000
11241664;-0.20000
11244441;-0.23500
11247219;-0.26000
11249997;-0.27000
11252775;-0.30000
11255552;-0.31000
11258330;-0.30000
11261108;-0.30500
11263886;-0.31500
11266664;-0.31500
11269441;-0.33000
11272219;-0.31000
11274997;-0.29500
11277775;-0.29000
11280552;-0.31000
11283330;-0.32000
11286108;-0.32500
11288886;-0.32000
11291664;-0.31500
11294441;-0.32500
11297219;-0.32500
11299997;-0.33500
11302775;-0.35000
11305552;-0.33500
11308330;-0.33000
11311108;-0.34500
11313886;-0.35000
11316663;-0.34500
11319441;-0.35500
11322219;-0.34500
11324997;-0.35500
11327775;-0.40000
11330552;-0.44500
11333330;-0.48500
11336108;-0.49500
11338886;-0.51500
11341663;-0.52500
11344441;-0.47500
11347219;-0.37500
11349997;-0.24500
11352775;-0.09000
11355552;0.10000
11358330;0.34000
11361108;0.59000
11363886;0.78000
11366663;0.89500
11369441;0.97000
11372219;0.91500
11374997;0.70000
11377775;0.34000
11380552;-0.04500
11383330;-0.32500
11386108;-0.46000
11388886;-0.48500
11391663;-0.44500
11394441;-0.39500
11397219;-0.37500
11399997;-0.37500
11402775;-0.38500
11405552;-0.37000
11408330;-0.35000
11411108;-0.35000
11413886;-0.36500
11416663;-0.37500
11419441;-0.38500
11422219;-0.37500
11424997;-0.36000
11427775;-0.36500
11430552;-0.36500
11433330;-0.36500
11436108;-0.38000
11438886;-0.37500
11441663;-0.36500
11444441;-0.36500
11447219;-0.38500
11449997;-0.38500
11452775;-0.39500
11455552;-0.40000
11458330;-0.38500
11461108;-0.40000
11463886;-0.39500
11466663;-0.40500
11469441;-0.40500
11472219;-0.39500
11474997;-0.38500
11477775;-0.39500
11480552;-0.39500
11483330;-0.39000
11486108;-0.39500
11488886;-0.37500
11491663;-0.37000
11494441;-0.37000
11497219;-0.38500
11499997;-0.39500
11502775;-0.39000
11505552;-0.37500
11508330;-0.37500
11511108;-0.39000
11513886;-0.38500
11516663;-0.39500
11519441;-0.39500
11522219;-0.40000
11524997;-0.39000
11527775;-0.38500
11530552;-0.40500
11533330;-0.41500
11536108;-0.42500
11538886;-0.40000
11541663;-0.39000
11544441;-0.38000
11547219;-0.39000
11549997;-0.39000
11552775;-0.40000
11555552;-0.40000
11558330;-0.38000
11561108;-0.37000
11563886;-0.37000
11566663;-0.38000
11569441;-0.39500
11572219;-0.39000
11574997;-0.38000
11577775;-0.38000
11580552;-0.37000
11583330;-0.38500
11586108;-0.39500
11588886;-0.39000
11591663;-0.40000
11594441;-0.39500
11597219;-0.41000
11599997;-0.41000
11602775;-0.41000
11605552;-0.40500
11608330;-0.40000
11611108;-0.41500
11613886;-0.43500
11616663;-0.44000
11619441;-0.44000
11622219;-0.44000
11624997;-0.42000
11627775;-0.41000
11630552;-0.42000
11633330;-0.43000
11636108;-0.43000
11638886;-0.42500
11641663;-0.41000
11644441;-0.42000
11647219;-0.43500
11649997;-0.44000
11652775;-0.43000
11655552;-0.42500
11658330;-0.42500
11661108;-0.42500
11663886;-0.43000
11666663;-0.42500
11669441;-0.42500
11672219;-0.40000
11674997;-0.37000
11677775;-0.37500
11680552;-0.37000
11683330;-0.37000
11686108;-0.37000
11688886;-0.35000
11691663;-0.34000
11694441;-0.34000
11697219;-0.34000
11699997;-0.34000
11702775;-0.34000
11705552;-0.32000
11708330;-0.31500
11711108;-0.29500
11713886;-0.29500
11716663;-0.29500
11719441;-0.29000
11722219;-0.29500
11724997;-0.28000
11727774;-0.29000
11730552;-0.29500
11733330;-0.29000
11736108;-0.30000
11738886;-0.29500
11741663;-0.28500
11744441;-0.28500
11747219;-0.30000
11749997;-0.30500
11752774;-0.31000
11755552;-0.29000
11758330;-0.29000
11761108;-0.29500
11763886;-0.30000
11766663;-0.31500
11769441;-0.31500
11772219;-0.31500
11774997;-0.30000
11777774;-0.30500
11780552;-0.30000
11783330;-0.30500
11786108;-0.29500
11788886;-0.29000
11791663;-0.29000
11794441;-0.30000
11797219;-0.32000
11799997;-0.32500
11802774;-0.32000
11805552;-0.31500
11808330;-0.31000
11811108;-0.32000
11813886;-0.32500
11816663;-0.33500
11819441;-0.33500
11822219;-0.32500
11824997;-0.31500
11827774;-0.30500
11830552;-0.31500
11833330;-0.32500
11836108;-0.33500
11838886;-0.33500
11841663;-0.32500
11844441;-0.32000
11847219;-0.32000
11849997;-0.33000
11852774;-0.33000
11855552;-0.32000
11858330;-0.32500
11861108;-0.32500
11863886;-0.33500
11866663;-0.34000
11869441;-0.34500
11872219;-0.34500
11874997;-0.33000
11877774;-0.33500
11880552;-0.34500
11883330;-0.35500
11886108;-0.34000
11888886;-0.35500
11891663;-0.34500
11894441;-0.35000
11897219;-0.35000
11899997;-0.36500
11902774;-0.34000
11905552;-0.35500
11908330;-0.36000
11911108;-0.33500
11913886;-0.34500
11916663;-0.34500
11919441;-0.35000
11922219;-0.34000
11924997;-0.34000
11927774;-0.34000
11930552;-0.34500
11933330;-0.35500
11936108;-0.36000
11938886;-0.35500
11941663;-0.34500
11944441;-0.33500
11947219;-0.34000
11949997;-0.35000
11952774;-0.35000
11955552;-0.35000
11958330;-0.33500
11961108;-0.34000
11963886;-0.34000
11966663;-0.34500
11969441;-0.33000
11972219;-0.30500
11974997;-0.28000
11977774;-0.26500
11980552;-0.29500
11983330;-0.29000
11986108;-0.29000
11988886;-0.27500
11991663;-0.26500
11994441;-0.26000
11997219;-0.26000
11999997;-0.26000
12002774;-0.25000
12005552;-0.25000
12008330;-0.24000
12011108;-0.24000
12013886;-0.25000
12016663;-0.27000
12019441;-0.27500
12022219;-0.27000
12024997;-0.25000
12027774;-0.24500
12030552;-0.25500
12033330;-0.27000
12036108;-0.26500
12038886;-0.25000
12041663;-0.26000
12044441;-0.27500
12047219;-0.27000
12049997;-0.25500
12052774;-0.24500
12055552;-0.24500
12058330;-0.26000
12061108;-0.29500
12063886;-0.30500
12066663;-0.32500
12069441;-0.34000
12072219;-0.35000
12074997;-0.36000
12077774;-0.36500
12080552;-0.38000
12083330;-0.37000
12086108;-0.38500
12088886;-0.36000
12091663;-0.36000
12094441;-0.37500
12097219;-0.38500
12099997;-0.39000
12102774;-0.40000
12105552;-0.39000
12108330;-0.39000
12111108;-0.40000
12113885;-0.39000
12116663;-0.39000
12119441;-0.38500
12122219;-0.39500
12124997;-0.37000
12127774;-0.37500
12130552;-0.38500
12133330;-0.40000
12136108;-0.40000
12138885;-0.39000
12141663;-0.37000
12144441;-0.38000
12147219;-0.38500
12149997;-0.39500
12152774;-0.40500
12155552;-0.40500
12158330;-0.41000
12161108;-0.43500
12163885;-0.47000
12166663;-0.50000
12169441;-0.53500
12172219;-0.56500
12174997;-0.58000
12177774;-0.57000
12180552;-0.45000
12183330;-0.33000
12186108;-0.18500
12188885;-0.00500
12191663;0.20000
12194441;0.44500
12197219;0.67000
12199997;0.82000
12202774;0.89000
12205552;0.82500
12208330;0.55000
12211108;0.12500
12213885;-0.23000
12216663;-0.45000
12219441;-0.52500
12222219;-0.52500
12224997;-0.47000
12227774;-0.42500
12230552;-0.41500
12233330;-0.42500
12236108;-0.43000
12238885;-0.43000
12241663;-0.42000
12244441;-0.42500
12247219;-0.41500
12249997;-0.42500
12252774;-0.43500
12255552;-0.43000
12258330;-0.41000
12261108;-0.42500
12263885;-0.43000
12266663;-0.44000
12269441;-0.44500
12272219;-0.43500
12274997;-0.42500
12277774;-0.43500
12280552;-0.43500
12283330;-0.44500
12286108;-0.44500
12288885;-0.43000
12291663;-0.42500
12294441;-0.41500
12297219;-0.43000
12299997;-0.43500
12302774;-0.45000
12305552;-0.43000
12308330;-0.42500
12311108;-0.42000
12313885;-0.42500
12316663;-0.43500
12319441;-0.44000
12322219;-0.43000
12324997;-0.43000
12327774;-0.42500
12330552;-0.43500
12333330;-0.45500
12336108;-0.45000
12338885;-0.44500
12341663;-0.43500
12344441;-0.43500
12347219;-0.44500
12349997;-0.45500
12352774;-0.45000
12355552;-0.44500
12358330;-0.43500
12361108;-0.42500
12363885;-0.42500
12366663;-0.43500
12369441;-0.44500
12372219;-0.43000
12374997;-0.43000
12377774;-0.42500
12380552;-0.43000
12383330;-0.43500
12386108;-0.44000
12388885;-0.43000
12391663;-0.41500
12394441;-0.41500
12397219;-0.43000
12399997;-0.44000
12402774;-0.44000
12405552;-0.43500
12408330;-0.43500
12411108;-0.43500
12413885;-0.44000
12416663;-0.45500
12419441;-0.46000
12422219;-0.44500
12424997;-0.44500
12427774;-0.44500
12430552;-0.45500
12433330;-0.46500
12436108;-0.46500
12438885;-0.47000
12441663;-0.45500
12444441;-0.46000
12447219;-0.47000
12449997;-0.46500
12452774;-0.48000
12455552;-0.48000
12458330;-0.47000
12461108;-0.48000
12463885;-0.48500
12466663;-0.50000
12469441;-0.51500
12472219;-0.49500
12474997;-0.50000
12477774;-0.49500
12480552;-0.49500
12483330;-0.49500
12486108;-0.50000
12488885;-0.47500
12491663;-0.46000
12494441;-0.44000
12497219;-0.43500
12499996;-0.43000
12502774;-0.43500
12505552;-0.41000
12508330;-0.38500
12511108;-0.36500
12513885;-0.36000
12516663;-0.37000
12519441;-0.37000
12522219;-0.34000
12524996;-0.33500
12527774;-0.32500
12530552;-0.32000
12533330;-0.32500
12536108;-0.34000
12538885;-0.31500
12541663;-0.30000
12544441;-0.30500
12547219;-0.30000
12549996;-0.32000
12552774;-0.31500
12555552;-0.29500
12558330;-0.29000
12561108;-0.28500
12563885;-0.29000
12566663;-0.30500
12569441;-0.30000
12572219;-0.29000
12574996;-0.29000
12577774;-0.28500
12580552;-0.29500
12583330;-0.30000
12586108;-0.31500
12588885;-0.31000
12591663;-0.30000
12594441;-0.29000
12597219;-0.30500
12599996;-0.31500
12602774;-0.32000
12605552;-0.32000
12608330;-0.30500
12611108;-0.30500
12613885;-0.31000
12616663;-0.32500
12619441;-0.34000
12622219;-0.32000
12624996;-0.30500
12627774;-0.30500
12630552;-0.30000
12633330;-0.31500
12636108;-0.32000
12638885;-0.31000
12641663;-0.30000
12644441;-0.29500
12647219;-0.31000
12649996;-0.32000
12652774;-0.31000
12655552;-0.31500
12658330;-0.31000
12661108;-0.30500
12663885;-0.29500
12666663;-0.32000
12669441;-0.33000
12672219;-0.32500
12674996;-0.31000
12677774;-0.32500
12680552;-0.33000
12683330;-0.34000
12686108;-0.33000
12688885;-0.33500
12691663;-0.32500
12694441;-0.33000
12697219;-0.33000
12699996;-0.33000
12702774;-0.33500
12705552;-0.32000
12708330;-0.32000
12711108;-0.31500
12713885;-0.32500
12716663;-0.33000
12719441;-0.32500
12722219;-0.32500
12724996;-0.30500
12727774;-0.31000
12730552;-0.31500
12733330;-0.31500
12736108;-0.33000
12738885;-0.32000
12741663;-0.31500
12744441;-0.31500
12747219;-0.30500
12749996;-0.33000
12752774;-0.32500
12755552;-0.33000
12758330;-0.31000
12761108;-0.31500
12763885;-0.31000
12766663;-0.33000
12769441;-0.32500
12772219;-0.31000
12774996;-0.31000
12777774;-0.30500
12780552;-0.30500
12783330;-0.31000
12786108;-0.31000
12788885;-0.31000
12791663;-0.30000
12794441;-0.29500
12797219;-0.29500
12799996;-0.29000
12802774;-0.30500
12805552;-0.29500
12808330;-0.28000
12811108;-0.27500
12813885;-0.28000
12816663;-0.26500
12819441;-0.25500
12822219;-0.24000
12824996;-0.22500
12827774;-0.22500
12830552;-0.24000
12833330;-0.23500
12836108;-0.24000
12838885;-0.22500
12841663;-0.20000
12844441;-0.19000
12847219;-0.18500
12849996;-0.20500
12852774;-0.21000
12855552;-0.20500
12858330;-0.19000
12861108;-0.20000
12863885;-0.21000
12866663;-0.21500
12869441;-0.22000
12872219;-0.21000
12874996;-0.19500
12877774;-0.20000
12880552;-0.21500
12883330;-0.22500
12886108;-0.23000
12888885;-0.21500
12891663;-0.20000
12894441;-0.17000
12897219;-0.16000
12899996;-0.17500
12902774;-0.21000
12905552;-0.22500
12908330;-0.24500
12911107;-0.27000
12913885;-0.28000
12916663;-0.29500
12919441;-0.31000
12922219;-0.31500
12924996;-0.32000
12927774;-0.31000
12930552;-0.31000
12933330;-0.32000
12936107;-0.32000
12938885;-0.32000
12941663;-0.31000
12944441;-0.31000
12947219;-0.31000
12949996;-0.32000
12952774;-0.32000
12955552;-0.32500
12958330;-0.32000
12961107;-0.31500
12963885;-0.32500
12966663;-0.33000
12969441;-0.34500
12972219;-0.33000
12974996;-0.32500
12977774;-0.32000
12980552;-0.32500
12983330;-0.33500
12986107;-0.35000
12988885;-0.35000
12991663;-0.36000
12994441;-0.40500
12997219;-0.45000
12999996;-0.46000
13002774;-0.48000
13005552;-0.51500
13008330;-0.53000
13011107;-0.47500
13013885;-0.36000
13016663;-0.22500
13019441;-0.07000
13022219;0.10000
13024996;0.30000
13027774;0.52500
13030552;0.76000
13033330;0.92500
13036107;1.04500
13038885;1.14000
13041663;1.21500
13044441;1.19000
13047219;1.02500
13049996;0.67000
13052774;0.21000
13055552;-0.16000
13058330;-0.40000
13061107;-0.47500
13063885;-0.45000
13066663;-0.40500
13069441;-0.38500
13072219;-0.34500
13074996;-0.34000
13077774;-0.34500
13080552;-0.35000
13083330;-0.37500
13086107;-0.37500
13088885;-0.36000
13091663;-0.35000
13094441;-0.36500
13097219;-0.38500
13099996;-0.39000
13102774;-0.39000
13105552;-0.37500
13108330;-0.37500
13111107;-0.36000
13113885;-0.37500
13116663;-0.39000
13119441;-0.39000
13122219;-0.38500
13124996;-0.37000
13127774;-0.38000
13130552;-0.39000
13133330;-0.40000
13136107;-0.40500
13138885;-0.39500
13141663;-0.39000
13144441;-0.38000
13147219;-0.38500
13149996;-0.39000
13152774;-0.39500
13155552;-0.37500
13158330;-0.37000
13161107;-0.38000
13163885;-0.37500
13166663;-0.38500
13169441;-0.38500
13172219;-0.38500
13174996;-0.37000
13177774;-0.37500
13180552;-0.38000
13183330;-0.38500
13186107;-0.38500
13188885;-0.38500
13191663;-0.37500
13194441;-0.37000
13197219;-0.38500
13199996;-0.38500
13202774;-0.39500
13205552;-0.38000
13208330;-0.38000
13211107;-0.38000
13213885;-0.39000
13216663;-0.40500
13219441;-0.40500
13222219;-0.39500
13224996;-0.38500
13227774;-0.38000
13230552;-0.40000
13233330;-0.40000
13236107;-0.40500
13238885;-0.38000
13241663;-0.39000
13244441;-0.38500
13247219;-0.38500
13249996;-0.39000
13252774;-0.38000
13255552;-0.38500
13258330;-0.38000
13261107;-0.39000
13263885;-0.40000
13266663;-0.39500
13269441;-0.40000
13272219;-0.39000
13274996;-0.39000
13277774;-0.39500
13280552;-0.39500
13283330;-0.41000
13286107;-0.42000
13288885;-0.40500
13291663;-0.39000
13294441;-0.40000
13297218;-0.42500
13299996;-0.41500
13302774;-0.43500
13305552;-0.42000
13308330;-0.40500
13311107;-0.41000
13313885;-0.41500
13316663;-0.41000
13319441;-0.40500
13322218;-0.39500
13324996;-0.39000
13327774;-0.38000
13330552;-0.39000
13333330;-0.36500
13336107;-0.36000
13338885;-0.34500
13341663;-0.33500
13344441;-0.33000
13347218;-0.31500
13349996;-0.31500
13352774;-0.30000
13355552;-0.29000
13358330;-0.27500
13361107;-0.27000
13363885;-0.27000
13366663;-0.27500
13369441;-0.28500
13372218;-0.26500
13374996;-0.27000
13377774;-0.27000
13380552;-0.27000
13383330;-0.28000
13386107;-0.30000
13388885;-0.26500
13391663;-0.26000
13394441;-0.27000
13397218;-0.26500
13399996;-0.27500
13402774;-0.27500
13405552;-0.26500
13408330;-0.25000
13411107;-0.26000
13413885;-0.26500
13416663;-0.27000
13419441;-0.28000
13422218;-0.26500
13424996;-0.26000
13427774;-0.26000
13430552;-0.26500
13433330;-0.27500
13436107;-0.28500
13438885;-0.27500
13441663;-0.26500
13444441;-0.27000
13447218;-0.28500
13449996;-0.28500
13452774;-0.29500
13455552;-0.28500
13458330;-0.28500
13461107;-0.29000
13463885;-0.29000
13466663;-0.30000
13469441;-0.30000
13472218;-0.30000
13474996;-0.30000
13477774;-0.29000
13480552;-0.29500
13483330;-0.30000
13486107;-0.30500
13488885;-0.31000
13491663;-0.30000
13494441;-0.32000
13497218;-0.32500
13499996;-0.32500
13502774;-0.34500
13505552;-0.33500
13508330;-0.32500
13511107;-0.32000
13513885;-0.33000
13516663;-0.35000
13519441;-0.34500
13522218;-0.34500
13524996;-0.31500
13527774;-0.31500
13530552;-0.32500
13533330;-0.32500
13536107;-0.33000
13538885;-0.32500
13541663;-0.32000
13544441;-0.31000
13547218;-0.31500
13549996;-0.33000
13552774;-0.32500
13555552;-0.32500
13558330;-0.31500
13561107;-0.32000
13563885;-0.33000
13566663;-0.33500
13569441;-0.33500
13572218;-0.33500
13574996;-0.33500
13577774;-0.33500
13580552;-0.33500
13583330;-0.35500
13586107;-0.35500
13588885;-0.34500
13591663;-0.34500
13594441;-0.34500
13597218;-0.33000
13599996;-0.34000
13602774;-0.34500
13605552;-0.33000
13608330;-0.31500
13611107;-0.32500
13613885;-0.32000
13616663;-0.33000
13619441;-0.33000
13622218;-0.32000
13624996;-0.31500
13627774;-0.32000
13630552;-0.31500
13633330;-0.30500
13636107;-0.30500
13638885;-0.29000
13641663;-0.27500
13644441;-0.26500
13647218;-0.27000
13649996;-0.27000
13652774;-0.26500
13655552;-0.26000
13658330;-0.24000
13661107;-0.24000
13663885;-0.22500
13666663;-0.23500
13669441;-0.22500
13672218;-0.21500
13674996;-0.21500
13677774;-0.21500
13680552;-0.23000
13683330;-0.25000
13686107;-0.25500
13688885;-0.24000
13691663;-0.23500
13694441;-0.24500
13697218;-0.27000
13699996;-0.28500
13702774;-0.26500
13705552;-0.23000
13708329;-0.21000
13711107;-0.22000
13713885;-0.26000
13716663;-0.29500
13719441;-0.31000
13722218;-0.30500
13724996;-0.31000
13727774;-0.31500
13730552;-0.33500
13733329;-0.35000
13736107;-0.37000
13738885;-0.36000
13741663;-0.35000
13744441;-0.33000
13747218;-0.35500
13749996;-0.35000
13752774;-0.36000
13755552;-0.35000
13758329;-0.35000
13761107;-0.35500
13763885;-0.35000
13766663;-0.37000
13769441;-0.39000
13772218;-0.38000
13774996;-0.36000
13777774;-0.36000
13780552;-0.38000
13783329;-0.38000
13786107;-0.39500
13788885;-0.38500
13791663;-0.38000
13794441;-0.37500
13797218;-0.39500
13799996;-0.39500
13802774;-0.41000
13805552;-0.42500
13808329;-0.45500
13811107;-0.49000
13813885;-0.52500
13816663;-0.53500
13819441;-0.58000
13822218;-0.56500
13824996;-0.46500
13827774;-0.32500
13830552;-0.15000
13833329;0.02500
13836107;0.26500
13838885;0.55500
13841663;0.81000
13844441;0.94500
13847218;0.94500
13849996;0.72500
13852774;0.30500
13855552;-0.15500
13858329;-0.44500
13861107;-0.52500
13863885;-0.48500
13866663;-0.43000
13869441;-0.40500
13872218;-0.40500
13874996;-0.39500
13877774;-0.40000
13880552;-0.40000
13883329;-0.40000
13886107;-0.41500
13888885;-0.40000
13891663;-0.40000
13894441;-0.41000
13897218;-0.42000
13899996;-0.41500
13902774;-0.44000
13905552;-0.43000
13908329;-0.42500
13911107;-0.42500
13913885;-0.43500
13916663;-0.44500
13919441;-0.44000
13922218;-0.44000
13924996;-0.44000
13927774;-0.44000
13930552;-0.44500
13933329;-0.44500
13936107;-0.46000
13938885;-0.45000
13941663;-0.43500
13944441;-0.43000
13947218;-0.43500
13949996;-0.44500
13952774;-0.43500
13955552;-0.43000
13958329;-0.41500
13961107;-0.42000
13963885;-0.43000
13966663;-0.43000
13969441;-0.44000
13972218;-0.44500
13974996;-0.42000
13977774;-0.42500
13980552;-0.42500
13983329;-0.44500
13986107;-0.44000
13988885;-0.44500
13991663;-0.43500
13994441;-0.43000
13997218;-0.43500
13999996;-0.44000
14002774;-0.45000
14005552;-0.44000
14008329;-0.43500
14011107;-0.44000
14013885;-0.43000
14016663;-0.45000
14019441;-0.44500
14022218;-0.44500
14024996;-0.43000
14027774;-0.42000
14030552;-0.44000
14033329;-0.44000
14036107;-0.45000
14038885;-0.43000
14041663;-0.42000
14044441;-0.42500
14047218;-0.43000
14049996;-0.44000
14052774;-0.43500
14055552;-0.43000
14058329;-0.43000
14061107;-0.44000
14063885;-0.45000
14066663;-0.45500
14069441;-0.46500
14072218;-0.45500
14074996;-0.43500
14077774;-0.44500
14080552;-0.44000
14083329;-0.45000
14086107;-0.46000
14088885;-0.46000
14091663;-0.45000
14094440;-0.44500
14097218;-0.44500
14099996;-0.44500
14102774;-0.45500
14105552;-0.43500
14108329;-0.43500
14111107;-0.43500
14113885;-0.43500
14116663;-0.44500
14119440;-0.44500
14122218;-0.43500
14124996;-0.43000
14127774;-0.41500
14130552;-0.42000
14133329;-0.41000
14136107;-0.41000
14138885;-0.39500
14141663;-0.37000
14144440;-0.36500
14147218;-0.37000
14149996;-0.37500
14152774;-0.36500
14155552;-0.36000
14158329;-0.35000
14161107;-0.35000
14163885;-0.34000
14166663;-0.33500
14169440;-0.33500
14172218;-0.33000
14174996;-0.31500
14177774;-0.32000
14180552;-0.31500
14183329;-0.32500
14186107;-0.35000
14188885;-0.31500
14191663;-0.31500
14194440;-0.31500
14197218;-0.31500
14199996;-0.33000
14202774;-0.33000
14205552;-0.33000
14208329;-0.31500
14211107;-0.32000
14213885;-0.31500
14216663;-0.32500
14219440;-0.34000
14222218;-0.35000
14224996;-0.33500
14227774;-0.33000
14230552;-0.33000
14233329;-0.34000
14236107;-0.34500
14238885;-0.34000
14241663;-0.33000
14244440;-0.31500
14247218;-0.31500
14249996;-0.34000
14252774;-0.35000
14255552;-0.34500
14258329;-0.33000
14261107;-0.33500
14263885;-0.34000
14266663;-0.34500
14269440;-0.34500
14272218;-0.35000
14274996;-0.34000
14277774;-0.34000
14280552;-0.34000
14283329;-0.36500
14286107;-0.37000
14288885;-0.36000
14291663;-0.35500
14294440;-0.35500
14297218;-0.37000
14299996;-0.37000
14302774;-0.38500
14305552;-0.39000
14308329;-0.38000
14311107;-0.38000
14313885;-0.37000
14316663;-0.37500
14319440;-0.38000
14322218;-0.37000
14324996;-0.35500
14327774;-0.35500
14330552;-0.36500
14333329;-0.38000
14336107;-0.38500
14338885;-0.37000
14341663;-0.37000
14344440;-0.37000
14347218;-0.37000
14349996;-0.37500
14352774;-0.39000
14355552;-0.38000
14358329;-0.37000
14361107;-0.38000
14363885;-0.37000
14366663;-0.38000
14369440;-0.38500
14372218;-0.38000
14374996;-0.38000
14377774;-0.37000
14380552;-0.38000
14383329;-0.38000
14386107;-0.39000
14388885;-0.38000
14391663;-0.36500
14394440;-0.36000
14397218;-0.36000
14399996;-0.36000
14402774;-0.36500
14405552;-0.36500
14408329;-0.36000
14411107;-0.36000
14413885;-0.36000
14416663;-0.36000
14419440;-0.36000
14422218;-0.35500
14424996;-0.34500
14427774;-0.34500
14430552;-0.34500
14433329;-0.36000
14436107;-0.35000
14438885;-0.34500
14441663;-0.33000
14444440;-0.31500
14447218;-0.31000
14449996;-0.30000
14452774;-0.30500
14455552;-0.29000
14458329;-0.28500
14461107;-0.28000
14463885;-0.29500
14466663;-0.28500
14469440;-0.28500
14472218;-0.25500
14474996;-0.25500
14477774;-0.24500
14480552;-0.24000
14483329;-0.25000
14486107;-0.27000
14488885;-0.26000
14491663;-0.26000
14494440;-0.27000
14497218;-0.25500
14499996;-0.26500
14502774;-0.27000
14505551;-0.28000
14508329;-0.28500
14511107;-0.26500
14513885;-0.23500
14516663;-0.24000
14519440;-0.25500
14522218;-0.25500
14524996;-0.27500
14527774;-0.28000
14530551;-0.29000
14533329;-0.31000
14536107;-0.36000
14538885;-0.35000
14541663;-0.35500
14544440;-0.36500
14547218;-0.37500
14549996;-0.37500
14552774;-0.37500
14555551;-0.37500
14558329;-0.37000
14561107;-0.36500
14563885;-0.37000
14566663;-0.38000
14569440;-0.38000
14572218;-0.37000
14574996;-0.36500
14577774;-0.37000
14580551;-0.37000
14583329;-0.37500
14586107;-0.38500
14588885;-0.39000
14591663;-0.38000
14594440;-0.36500
14597218;-0.38500
14599996;-0.38500
14602774;-0.40000
14605551;-0.40500
14608329;-0.42500
14611107;-0.47500
14613885;-0.50000
14616663;-0.53000
14619440;-0.57000
14622218;-0.60000
14624996;-0.57500
14627774;-0.50500
14630551;-0.39000
14633329;-0.29000
14636107;-0.18000
14638885;-0.01500
14641663;0.17000
14644440;0.39000
14647218;0.59000
14649996;0.72000
14652774;0.79500
14655551;0.88500
14658329;0.90000
14661107;0.74500
14663885;0.40500
14666663;0.01000
14669440;-0.32000
14672218;-0.48500
14674996;-0.52000
14677774;-0.48500
14680551;-0.44500
14683329;-0.42500
14686107;-0.43000
14688885;-0.42500
14691663;-0.43000
14694440;-0.42000
14697218;-0.42500
14699996;-0.44000
14702774;-0.44500
14705551;-0.43000
14708329;-0.42500
14711107;-0.42500
14713885;-0.42500
14716663;-0.43500
14719440;-0.43000
14722218;-0.42500
14724996;-0.41500
14727774;-0.41000
14730551;-0.42000
14733329;-0.43500
14736107;-0.43500
14738885;-0.43000
14741663;-0.43000
14744440;-0.43500
14747218;-0.44500
14749996;-0.43500
14752774;-0.45500
14755551;-0.44000
14758329;-0.43500
14761107;-0.43000
14763885;-0.42000
14766663;-0.43000
14769440;-0.44000
14772218;-0.43500
14774996;-0.43500
14777774;-0.43000
14780551;-0.42000
14783329;-0.43500
14786107;-0.42500
14788885;-0.42000
14791663;-0.41500
14794440;-0.41000
14797218;-0.42500
14799996;-0.44000
14802774;-0.44000
14805551;-0.43000
14808329;-0.43000
14811107;-0.43500
14813885;-0.43500
14816663;-0.44500
14819440;-0.45000
14822218;-0.44000
14824996;-0.43000
14827774;-0.43500
14830551;-0.44000
14833329;-0.45000
14836107;-0.46000
14838885;-0.45000
14841663;-0.45000
14844440;-0.45000
14847218;-0.46500
14849996;-0.46500
14852774;-0.47000
14855551;-0.45000
14858329;-0.44500
14861107;-0.44000
14863885;-0.44000
14866663;-0.44500
14869440;-0.45000
14872218;-0.44500
14874996;-0.43000
14877774;-0.42500
14880551;-0.43000
14883329;-0.44000
14886107;-0.45500
14888885;-0.45000
14891662;-0.44000
14894440;-0.45000
14897218;-0.46500
14899996;-0.47000
14902774;-0.48500
14905551;-0.48500
14908329;-0.47000
14911107;-0.46000
14913885;-0.46000
14916662;-0.49000
14919440;-0.50000
14922218;-0.49000
14924996;-0.47500
14927774;-0.47500
14930551;-0.47000
14933329;-0.48000
14936107;-0.49000
14938885;-0.48500
14941662;-0.48000
14944440;-0.46000
14947218;-0.45000
14949996;-0.44500
14952774;-0.44500
14955551;-0.44000
14958329;-0.41500
14961107;-0.41000
14963885;-0.38500
14966662;-0.39000
14969440;-0.38000
14972218;-0.37000
14974996;-0.35000
14977774;-0.34000
14980551;-0.33500
14983329;-0.35000
14986107;-0.36000
14988885;-0.35500
14991662;-0.34000
14994440;-0.34000
14997218;-0.35000
14999996;-0.35000
15002774;-0.35500
15005551;-0.34500
15008329;-0.35500
15011107;-0.34000
15013885;-0.35500
15016662;-0.36500
15019440;-0.37000
15022218;-0.36500
15024996;-0.34500
15027774;-0.34500
15030551;-0.35500
15033329;-0.35500
15036107;-0.36000
15038885;-0.35500
15041662;-0.34500
15044440;-0.34000
15047218;-0.33500
15049996;-0.35500
15052774;-0.36500
15055551;-0.36000
15058329;-0.35000
15061107;-0.34000
15063885;-0.35500
15066662;-0.37000
15069440;-0.38000
15072218;-0.38500
15074996;-0.39000
15077774;-0.39000
15080551;-0.38000
15083329;-0.38500
15086107;-0.39000
15088885;-0.38000
15091662;-0.37000
15094440;-0.36500
15097218;-0.37000
15099996;-0.38500
15102774;-0.39500
15105551;-0.39500
15108329;-0.38000
15111107;-0.38500
15113885;-0.38500
15116662;-0.40000
15119440;-0.40500
15122218;-0.40500
15124996;-0.39000
15127774;-0.39000
15130551;-0.40000
15133329;-0.41000
15136107;-0.40500
15138885;-0.40000
15141662;-0.41000
15144440;-0.41500
15147218;-0.42500
15149996;-0.44000
15152774;-0.44000
15155551;-0.43000
15158329;-0.40000
15161107;-0.42000
15163885;-0.41500
15166662;-0.41000
15169440;-0.42500
15172218;-0.41500
15174996;-0.42000
15177774;-0.39500
15180551;-0.39500
15183329;-0.41000
15186107;-0.41500
15188885;-0.41500
15191662;-0.41000
15194440;-0.41000
15197218;-0.41500
15199996;-0.42500
15202774;-0.43500
15205551;-0.42500
15208329;-0.41500
15211107;-0.40500
15213885;-0.41000
15216662;-0.41000
15219440;-0.42500
15222218;-0.41500
15224996;-0.40000
15227774;-0.38000
15230551;-0.38500
15233329;-0.37500
15236107;-0.37500
15238885;-0.37000
15241662;-0.35000
15244440;-0.35000
15247218;-0.35000
15249996;-0.35500
15252774;-0.36000
15255551;-0.36000
15258329;-0.35000
15261107;-0.34500
15263885;-0.33500
15266662;-0.32000
15269440;-0.33000
15272218;-0.33000
15274996;-0.31500
15277774;-0.31500
15280551;-0.32000
15283329;-0.32000
15286107;-0.34500
15288885;-0.35000
15291662;-0.34500
15294440;-0.34000
15297218;-0.34000
15299996;-0.34000
15302773;-0.35000
15305551;-0.36000
15308329;-0.34500
15311107;-0.32000
15313885;-0.31000
15316662;-0.32500
15319440;-0.38000
15322218;-0.39000
15324996;-0.40000
15327773;-0.42500
15330551;-0.44500
15333329;-0.46000
15336107;-0.45500
15338885;-0.44500
15341662;-0.42500
15344440;-0.42500
15347218;-0.45500
15349996;-0.46500
15352773;-0.47500
15355551;-0.47000
15358329;-0.46000
15361107;-0.45500
15363885;-0.46000
15366662;-0.45500
15369440;-0.46500
15372218;-0.46500
15374996;-0.46000
15377773;-0.45500
15380551;-0.45500
15383329;-0.46000
15386107;-0.47000
15388885;-0.47500
15391662;-0.47500
15394440;-0.50000
15397218;-0.54500
15399996;-0.58000
15402773;-0.59500
15405551;-0.59500
15408329;-0.62000
15411107;-0.65500
15413885;-0.64500
15416662;-0.57000
15419440;-0.46000
15422218;-0.31500
15424996;-0.19000
15427773;-0.01000
15430551;0.23000
15433329;0.46500
15436107;0.66000
15438885;0.81000
15441662;0.86500
15444440;0.81000
15447218;0.56000
15449996;0.16500
15452773;-0.23500
15455551;-0.50500
15458329;-0.60000
15461107;-0.60000
15463885;-0.57500
15466662;-0.54500
15469440;-0.54000
15472218;-0.53500
15474996;-0.52500
15477773;-0.52500
15480551;-0.52000
15483329;-0.52500
15486107;-0.52500
15488885;-0.52000
15491662;-0.50500
15494440;-0.51500
15497218;-0.52000
15499996;-0.52500
15502773;-0.51000
15505551;-0.49000
15508329;-0.49500
15511107;-0.50000
15513885;-0.51000
15516662;-0.50500
15519440;-0.51500
15522218;-0.50500
15524996;-0.49500
15527773;-0.51000
15530551;-0.51500
15533329;-0.52500
15536107;-0.52000
15538885;-0.50000
15541662;-0.49500
15544440;-0.50500
15547218;-0.51500
15549996;-0.51500
15552773;-0.53500
15555551;-0.54000
15558329;-0.53500
15561107;-0.52500
15563885;-0.53000
15566662;-0.52500
15569440;-0.53000
15572218;-0.53000
15574996;-0.52500
15577773;-0.51000
15580551;-0.51500
15583329;-0.52000
15586107;-0.54000
15588885;-0.53000
15591662;-0.52000
15594440;-0.51000
15597218;-0.52000
15599996;-0.52000
15602773;-0.53000
15605551;-0.52500
15608329;-0.51500
15611107;-0.53000
15613885;-0.53500
15616662;-0.54000
15619440;-0.54000
15622218;-0.53500
15624996;-0.52500
15627773;-0.52500
15630551;-0.52000
15633329;-0.53000
15636107;-0.53500
15638885;-0.53500
15641662;-0.52500
15644440;-0.52000
15647218;-0.54000
15649996;-0.54000
15652773;-0.55000
15655551;-0.55500
15658329;-0.54500
15661107;-0.54000
15663885;-0.54500
15666662;-0.55000
15669440;-0.56000
15672218;-0.56500
15674996;-0.56000
15677773;-0.54500
15680551;-0.56500
15683329;-0.57000
15686107;-0.58000
15688884;-0.57500
15691662;-0.58000
15694440;-0.57500
15697218;-0.58500
15699996;-0.59500
15702773;-0.59500
15705551;-0.59500
15708329;-0.59000
15711107;-0.58500
15713884;-0.59000
15716662;-0.58500
15719440;-0.58500
15722218;-0.58000
15724996;-0.56500
15727773;-0.54500
15730551;-0.53500
15733329;-0.53500
15736107;-0.52500
15738884;-0.51000
15741662;-0.49500
15744440;-0.47500
15747218;-0.45500
15749996;-0.45000
15752773;-0.45000
15755551;-0.44000
15758329;-0.42500
15761107;-0.41000
15763884;-0.39500
15766662;-0.39500
15769440;-0.40500
15772218;-0.39500
15774996;-0.39000
15777773;-0.37500
15780551;-0.37500
15783329;-0.38000
15786107;-0.39500
15788884;-0.39500
15791662;-0.39000
15794440;-0.37500
15797218;-0.37500
15799996;-0.40000
15802773;-0.40000
15805551;-0.39000
15808329;-0.40000
15811107;-0.38500
15813884;-0.39500
15816662;-0.41000
15819440;-0.42500
15822218;-0.40500
15824996;-0.40500
15827773;-0.39500
15830551;-0.40000
15833329;-0.40500
15836107;-0.41000
15838884;-0.40500
15841662;-0.39500
15844440;-0.38500
15847218;-0.38500
15849996;-0.40500
15852773;-0.41000
15855551;-0.40000
15858329;-0.39500
15861107;-0.39000
15863884;-0.40000
15866662;-0.40000
15869440;-0.42500
15872218;-0.41000
15874996;-0.40000
15877773;-0.39000
15880551;-0.40500
15883329;-0.41000
15886107;-0.43000
15888884;-0.43000
15891662;-0.41000
15894440;-0.42000
15897218;-0.42500
15899996;-0.43000
15902773;-0.42500
15905551;-0.42000
15908329;-0.42000
15911107;-0.41000
15913884;-0.40500
15916662;-0.42000
15919440;-0.42000
15922218;-0.42000
15924996;-0.41500
15927773;-0.40000
15930551;-0.40500
15933329;-0.40500
15936107;-0.41500
15938884;-0.42500
15941662;-0.42500
15944440;-0.42000
15947218;-0.42000
15949996;-0.41500
15952773;-0.43000
15955551;-0.42500
15958329;-0.42000
15961107;-0.40500
15963884;-0.41000
15966662;-0.42500
15969440;-0.42000
15972218;-0.41000
15974996;-0.39500
15977773;-0.38500
15980551;-0.39500
15983329;-0.40000
15986107;-0.41000
15988884;-0.41000
15991662;-0.41500
15994440;-0.40000
15997218;-0.40500
15999996;-0.39500
16002773;-0.40500
16005551;-0.40000
16008329;-0.39500
16011107;-0.38500
16013884;-0.39500
16016662;-0.41000
16019440;-0.41000
16022218;-0.40500
16024996;-0.39000
16027773;-0.37000
16030551;-0.36500
16033329;-0.35500
16036107;-0.34500
16038884;-0.33000
16041662;-0.31500
16044440;-0.31500
16047218;-0.31500
16049996;-0.31000
16052773;-0.30500
16055551;-0.29000
16058329;-0.28000
16061107;-0.26500
16063884;-0.27000
16066662;-0.29000
16069440;-0.30500
16072218;-0.30500
16074995;-0.30500
16077773;-0.30500
16080551;-0.30000
16083329;-0.31500
16086107;-0.32500
16088884;-0.33500
16091662;-0.32000
16094440;-0.29000
16097218;-0.28000
16099995;-0.30000
16102773;-0.34500
16105551;-0.36000
16108329;-0.36500
16111107;-0.37000
16113884;-0.38500
16116662;-0.40500
16119440;-0.42000
16122218;-0.41500
16124995;-0.41500
16127773;-0.41500
16130551;-0.41000
16133329;-0.42000
16136107;-0.42500
16138884;-0.43000
16141662;-0.42000
16144440;-0.42500
16147218;-0.42500
16149995;-0.42500
16152773;-0.43500
16155551;-0.42500
16158329;-0.41000
16161107;-0.42000
16163884;-0.41000
16166662;-0.42000
16169440;-0.41500
16172218;-0.42000
16174995;-0.41000
16177773;-0.41500
16180551;-0.42500
16183329;-0.45000
16186107;-0.49500
16188884;-0.51000
16191662;-0.52500
16194440;-0.52000
16197218;-0.51500
16199995;-0.52500
16202773;-0.54500
16205551;-0.58000
16208329;-0.60500
16211107;-0.62000
16213884;-0.59000
16216662;-0.48500
16219440;-0.33000
16222218;-0.14000
16224995;0.08000
16227773;0.35000
16230551;0.63500
16233329;0.87000
16236107;0.96000
