time_ms;ecg_value
0;0.81500
2778;0.85500
5556;0.70000
8333;0.36500
11111;-0.02500
13889;-0.32000
16667;-0.46500
19444;-0.49000
22222;-0.45000
25000;-0.40500
27778;-0.37500
30556;-0.37000
33333;-0.36500
36111;-0.36000
38889;-0.36000
41667;-0.37500
44444;-0.37000
47222;-0.37500
50000;-0.36500
52778;-0.36000
55556;-0.35000
58333;-0.36500
61111;-0.34500
63889;-0.35000
66667;-0.35000
69444;-0.35500
72222;-0.36500
75000;-0.37000
77778;-0.36500
80556;-0.36000
83333;-0.34500
86111;-0.34500
88889;-0.36000
91667;-0.37000
94444;-0.34500
97222;-0.36000
100000;-0.33500
102778;-0.35500
105556;-0.35000
108333;-0.37000
111111;-0.35000
113889;-0.35500
116667;-0.36500
119444;-0.36000
122222;-0.36000
125000;-0.36500
127778;-0.36000
130556;-0.35000
133333;-0.34500
136111;-0.35500
138889;-0.36000
141667;-0.37500
144444;-0.37000
147222;-0.36000
150000;-0.35500
152778;-0.35500
155556;-0.36000
158333;-0.37000
161111;-0.37000
163889;-0.36000
166667;-0.36500
169444;-0.36000
172222;-0.36500
175000;-0.38000
177778;-0.37000
180556;-0.35500
183333;-0.34500
186111;-0.34500
188889;-0.35000
191667;-0.36000
194444;-0.35500
197222;-0.35500
200000;-0.34500
202778;-0.35500
205555;-0.35500
208333;-0.36000
211111;-0.36500
213889;-0.36500
216667;-0.35500
219444;-0.35500
222222;-0.36500
225000;-0.38000
227778;-0.37500
230555;-0.37500
233333;-0.36500
236111;-0.37500
238889;-0.38500
241667;-0.39500
244444;-0.37500
247222;-0.37000
250000;-0.37500
252778;-0.36500
255555;-0.38000
258333;-0.39500
261111;-0.39000
263889;-0.38000
266667;-0.38500
269444;-0.39500
272222;-0.39000
275000;-0.39500
277778;-0.38500
280555;-0.37000
283333;-0.35500
286111;-0.35500
288889;-0.34500
291667;-0.34500
294444;-0.32000
297222;-0.30000
300000;-0.28000
302778;-0.28000
305555;-0.28000
308333;-0.28500
311111;-0.28500
313889;-0.26500
316667;-0.26000
319444;-0.27000
322222;-0.28500
325000;-0.28500
327778;-0.26500
330555;-0.25000
333333;-0.24000
336111;-0.25500
338889;-0.25500
341667;-0.26500
344444;-0.26000
347222;-0.24000
350000;-0.23500
352778;-0.25000
355555;-0.25500
358333;-0.26000
361111;-0.25500
363889;-0.25500
366667;-0.26000
369444;-0.26000
372222;-0.26500
375000;-0.27500
377778;-0.26500
380555;-0.27000
383333;-0.28000
386111;-0.26500
388889;-0.27500
391667;-0.28000
394444;-0.27500
397222;-0.27000
400000;-0.26500
402778;-0.26500
405555;-0.27000
408333;-0.26500
411111;-0.27000
413889;-0.26000
416667;-0.26500
419444;-0.27000
422222;-0.27500
425000;-0.28000
427778;-0.27500
430555;-0.26500
433333;-0.28000
436111;-0.28000
438889;-0.29500
441667;-0.30000
444444;-0.30000
447222;-0.29500
450000;-0.30000
452778;-0.30000
455555;-0.29500
458333;-0.30000
461111;-0.29000
463889;-0.29500
466667;-0.29500
469444;-0.29000
472222;-0.29000
475000;-0.30000
477778;-0.29500
480555;-0.30500
483333;-0.31000
486111;-0.31000
488889;-0.31000
491667;-0.32500
494444;-0.31000
497222;-0.30500
500000;-0.29500
502778;-0.29500
505555;-0.30000
508333;-0.31500
511111;-0.31500
513889;-0.30500
516667;-0.28500
519444;-0.30000
522222;-0.31000
525000;-0.32500
527778;-0.31500
530555;-0.31500
533333;-0.30000
536111;-0.31000
538889;-0.31500
541667;-0.32000
544444;-0.31500
547222;-0.31500
550000;-0.30000
552778;-0.30500
555555;-0.30500
558333;-0.32000
561111;-0.31500
563889;-0.30500
566667;-0.29000
569444;-0.27500
572222;-0.28500
575000;-0.30500
577778;-0.30000
580555;-0.29500
583333;-0.27000
586111;-0.27500
588889;-0.28000
591667;-0.29500
594444;-0.28000
597222;-0.25500
600000;-0.24500
602778;-0.24500
605555;-0.24000
608333;-0.22000
611111;-0.22000
613889;-0.19500
616666;-0.19000
619444;-0.19500
622222;-0.19500
625000;-0.20500
627778;-0.18000
630555;-0.17000
633333;-0.17000
636111;-0.17500
638889;-0.19500
641666;-0.18500
644444;-0.17500
647222;-0.19000
650000;-0.20000
652778;-0.19500
655555;-0.18500
658333;-0.18500
661111;-0.19500
663889;-0.22000
666666;-0.22000
669444;-0.24000
672222;-0.26000
675000;-0.28500
677778;-0.29500
680555;-0.29000
683333;-0.29500
686111;-0.30000
688889;-0.31500
691666;-0.32000
694444;-0.32000
697222;-0.30000
700000;-0.28500
702778;-0.27500
705555;-0.29500
708333;-0.31000
711111;-0.31500
713889;-0.32000
716666;-0.32000
719444;-0.32000
722222;-0.32500
725000;-0.34000
727778;-0.34000
730555;-0.33000
733333;-0.32500
736111;-0.31500
738889;-0.32000
741666;-0.32000
744444;-0.31500
747222;-0.31500
750000;-0.32000
752778;-0.34000
755555;-0.34500
758333;-0.37500
761111;-0.41000
763889;-0.43000
766666;-0.44000
769444;-0.48500
772222;-0.51500
775000;-0.52500
777778;-0.45500
780555;-0.30500
783333;-0.14500
786111;0.03500
788889;0.27000
791666;0.56000
794444;0.82500
797222;0.95000
800000;0.93500
802778;0.67000
805555;0.27000
808333;-0.11500
811111;-0.38000
813889;-0.47000
816666;-0.46000
819444;-0.43500
822222;-0.38500
825000;-0.38500
827778;-0.37500
830555;-0.36500
833333;-0.36000
836111;-0.36500
838889;-0.36500
841666;-0.38000
844444;-0.38500
847222;-0.37000
850000;-0.35500
852778;-0.36000
855555;-0.37500
858333;-0.38500
861111;-0.38000
863889;-0.37000
866666;-0.35500
869444;-0.35000
872222;-0.35500
875000;-0.38500
877778;-0.37500
880555;-0.36500
883333;-0.37000
886111;-0.37000
888889;-0.37500
891666;-0.39000
894444;-0.39000
897222;-0.37500
900000;-0.36000
902778;-0.36500
905555;-0.37500
908333;-0.39500
911111;-0.38000
913889;-0.37500
916666;-0.37000
919444;-0.37500
922222;-0.38000
925000;-0.38500
927778;-0.38000
930555;-0.38500
933333;-0.37500
936111;-0.37500
938889;-0.37500
941666;-0.39000
944444;-0.38000
947222;-0.37000
950000;-0.37000
952778;-0.37000
955555;-0.36500
958333;-0.39500
961111;-0.38500
963889;-0.37500
966666;-0.37500
969444;-0.37500
972222;-0.37500
975000;-0.39000
977778;-0.37000
980555;-0.36000
983333;-0.36500
986111;-0.36500
988889;-0.37500
991666;-0.38500
994444;-0.38500
997222;-0.37500
1000000;-0.38000
1002777;-0.38500
1005555;-0.39500
1008333;-0.39000
1011111;-0.39000
1013889;-0.37500
1016666;-0.37500
1019444;-0.39000
1022222;-0.38500
1025000;-0.39000
1027777;-0.39500
1030555;-0.38500
1033333;-0.39500
1036111;-0.38500
1038889;-0.40500
1041666;-0.41000
1044444;-0.41000
1047222;-0.40000
1050000;-0.40000
1052777;-0.41000
1055555;-0.42500
1058333;-0.43000
1061111;-0.43000
1063889;-0.42000
1066666;-0.43000
1069444;-0.42000
1072222;-0.42000
1075000;-0.41500
1077777;-0.41000
1080555;-0.38500
1083333;-0.36500
1086111;-0.36000
1088889;-0.35000
1091666;-0.34500
1094444;-0.33000
1097222;-0.30500
1100000;-0.29000
1102777;-0.28000
1105555;-0.29000
1108333;-0.28000
1111111;-0.26500
1113889;-0.24000
1116666;-0.24000
1119444;-0.25000
1122222;-0.25000
1125000;-0.25000
1127777;-0.24500
1130555;-0.24000
1133333;-0.24000
1136111;-0.23500
1138889;-0.23000
1141666;-0.24500
1144444;-0.24500
1147222;-0.23000
1150000;-0.22500
1152777;-0.22500
1155555;-0.24000
1158333;-0.23500
1161111;-0.23000
1163889;-0.23500
1166666;-0.22500
1169444;-0.23000
1172222;-0.23500
1175000;-0.23500
1177777;-0.23000
1180555;-0.22000
1183333;-0.22000
1186111;-0.21500
1188889;-0.24000
1191666;-0.24000
1194444;-0.24500
1197222;-0.23000
1200000;-0.23500
1202777;-0.25000
1205555;-0.23000
1208333;-0.24000
1211111;-0.23500
1213889;-0.23000
1216666;-0.22000
1219444;-0.23000
1222222;-0.24000
1225000;-0.25500
1227777;-0.25000
1230555;-0.24500
1233333;-0.23000
1236111;-0.22500
1238889;-0.24500
1241666;-0.26500
1244444;-0.25000
1247222;-0.24500
1250000;-0.24500
1252777;-0.24000
1255555;-0.25500
1258333;-0.26000
1261111;-0.24500
1263889;-0.26000
1266666;-0.24500
1269444;-0.23500
1272222;-0.25000
1275000;-0.25500
1277777;-0.25500
1280555;-0.24500
1283333;-0.23500
1286111;-0.23500
1288889;-0.24500
1291666;-0.25500
1294444;-0.25500
1297222;-0.24500
1300000;-0.23000
1302777;-0.23000
1305555;-0.25000
1308333;-0.26000
1311111;-0.25500
1313889;-0.24000
1316666;-0.24000
1319444;-0.25000
1322222;-0.27000
1325000;-0.27500
1327777;-0.25500
1330555;-0.24500
1333333;-0.24000
1336111;-0.24500
1338889;-0.24500
1341666;-0.25500
1344444;-0.25500
1347222;-0.23500
1350000;-0.23000
1352777;-0.23500
1355555;-0.24500
1358333;-0.26000
1361111;-0.24500
1363889;-0.22500
1366666;-0.22000
1369444;-0.22000
1372222;-0.21500
1375000;-0.22000
1377777;-0.19500
1380555;-0.19500
1383333;-0.19000
1386111;-0.20000
1388888;-0.19000
1391666;-0.18500
1394444;-0.17500
1397222;-0.16000
1400000;-0.15000
1402777;-0.13500
1405555;-0.14500
1408333;-0.15000
1411111;-0.13500
1413888;-0.12000
1416666;-0.11000
1419444;-0.13000
1422222;-0.14500
1425000;-0.15500
1427777;-0.15500
1430555;-0.13000
1433333;-0.11500
1436111;-0.13000
1438888;-0.14000
1441666;-0.12500
1444444;-0.11500
1447222;-0.09500
1450000;-0.09500
1452777;-0.12500
1455555;-0.18000
1458333;-0.19000
1461111;-0.20500
1463888;-0.22000
1466666;-0.23000
1469444;-0.23000
1472222;-0.25500
1475000;-0.28000
1477777;-0.27000
1480555;-0.26500
1483333;-0.25000
1486111;-0.25500
1488888;-0.26500
1491666;-0.28000
1494444;-0.27000
1497222;-0.27000
1500000;-0.26500
1502777;-0.27000
1505555;-0.29000
1508333;-0.29500
1511111;-0.28000
1513888;-0.28000
1516666;-0.27500
1519444;-0.28000
1522222;-0.28500
1525000;-0.30500
1527777;-0.30500
1530555;-0.30500
1533333;-0.33500
1536111;-0.36500
1538888;-0.40000
1541666;-0.43000
1544444;-0.44000
1547222;-0.45500
1550000;-0.51500
1552777;-0.54500
1555555;-0.55000
1558333;-0.53000
1561111;-0.47000
1563888;-0.40000
1566666;-0.31500
1569444;-0.21500
1572222;-0.08500
1575000;0.07000
1577777;0.30500
1580555;0.60500
1583333;0.85500
1586111;0.97500
1588888;0.96000
1591666;0.74000
1594444;0.33000
1597222;-0.09000
1600000;-0.36000
1602777;-0.43500
1605555;-0.41500
1608333;-0.35500
1611111;-0.32500
1613888;-0.31500
1616666;-0.32000
1619444;-0.31500
1622222;-0.32500
1625000;-0.33500
1627777;-0.33000
1630555;-0.31500
1633333;-0.31500
1636111;-0.32000
1638888;-0.32000
1641666;-0.33000
1644444;-0.32000
1647222;-0.31500
1650000;-0.31500
1652777;-0.30500
1655555;-0.32500
1658333;-0.33000
1661111;-0.33500
1663888;-0.30500
1666666;-0.32500
1669444;-0.33000
1672222;-0.33000
1675000;-0.34000
1677777;-0.33000
1680555;-0.32500
1683333;-0.32500
1686111;-0.32000
1688888;-0.32500
1691666;-0.32500
1694444;-0.32000
1697222;-0.31500
1700000;-0.31000
1702777;-0.31500
1705555;-0.31500
1708333;-0.32500
1711111;-0.31000
1713888;-0.30500
1716666;-0.30500
1719444;-0.30000
1722222;-0.31000
1725000;-0.31500
1727777;-0.30500
1730555;-0.29500
1733333;-0.28500
1736111;-0.30000
1738888;-0.30000
1741666;-0.32000
1744444;-0.31500
1747222;-0.31000
1750000;-0.31000
1752777;-0.30500
1755555;-0.30500
1758333;-0.31500
1761111;-0.31000
1763888;-0.30500
1766666;-0.29500
1769444;-0.29000
1772222;-0.30500
1775000;-0.31000
1777777;-0.31000
1780555;-0.29500
1783333;-0.28500
1786111;-0.28500
1788888;-0.29500
1791666;-0.31000
1794444;-0.31000
1797222;-0.29500
1799999;-0.29500
1802777;-0.29500
1805555;-0.31000
1808333;-0.31500
1811111;-0.31500
1813888;-0.31000
1816666;-0.31000
1819444;-0.31500
1822222;-0.31500
1824999;-0.32000
1827777;-0.32000
1830555;-0.31500
1833333;-0.30500
1836111;-0.31000
1838888;-0.32000
1841666;-0.32000
1844444;-0.32500
1847222;-0.30500
1849999;-0.29000
1852777;-0.29500
1855555;-0.30000
1858333;-0.29500
1861111;-0.27500
1863888;-0.26000
1866666;-0.23500
1869444;-0.24000
1872222;-0.23500
1874999;-0.24000
1877777;-0.23500
1880555;-0.22000
1883333;-0.21000
1886111;-0.21500
1888888;-0.22500
1891666;-0.22000
1894444;-0.22000
1897222;-0.20500
1899999;-0.21000
1902777;-0.21000
1905555;-0.21000
1908333;-0.21000
1911111;-0.20500
1913888;-0.19500
1916666;-0.19500
1919444;-0.18500
1922222;-0.20000
1924999;-0.21000
1927777;-0.21000
1930555;-0.20000
1933333;-0.19000
1936111;-0.19500
1938888;-0.19500
1941666;-0.20500
1944444;-0.21000
1947222;-0.19000
1949999;-0.18000
1952777;-0.19000
1955555;-0.21000
1958333;-0.22000
1961111;-0.21500
1963888;-0.21000
1966666;-0.20000
1969444;-0.22000
1972222;-0.23500
1974999;-0.23500
1977777;-0.22500
1980555;-0.22000
1983333;-0.21500
1986111;-0.22500
1988888;-0.23000
1991666;-0.25000
1994444;-0.24000
1997222;-0.23000
1999999;-0.22000
2002777;-0.22000
2005555;-0.23500
2008333;-0.24000
2011111;-0.23000
2013888;-0.23000
2016666;-0.21500
2019444;-0.22500
2022222;-0.22500
2024999;-0.25000
2027777;-0.25500
2030555;-0.24000
2033333;-0.24000
2036111;-0.24000
2038888;-0.25000
2041666;-0.27000
2044444;-0.26000
2047222;-0.25500
2049999;-0.26000
2052777;-0.24000
2055555;-0.25500
2058333;-0.25500
2061111;-0.25500
2063888;-0.24500
2066666;-0.23500
2069444;-0.24000
2072222;-0.25500
2074999;-0.26000
2077777;-0.25500
2080555;-0.24000
2083333;-0.24000
2086111;-0.24500
2088888;-0.24500
2091666;-0.25500
2094444;-0.25000
2097222;-0.24000
2099999;-0.23500
2102777;-0.24500
2105555;-0.25500
2108333;-0.26000
2111111;-0.24500
2113888;-0.24500
2116666;-0.24500
2119444;-0.24500
2122222;-0.25500
2124999;-0.25500
2127777;-0.24500
2130555;-0.22000
2133333;-0.20500
2136111;-0.20000
2138888;-0.20500
2141666;-0.21000
2144444;-0.19000
2147222;-0.17000
2149999;-0.17500
2152777;-0.16000
2155555;-0.16500
2158333;-0.18500
2161111;-0.16500
2163888;-0.14500
2166666;-0.14000
2169444;-0.13500
2172222;-0.13500
2174999;-0.14000
2177777;-0.14000
2180555;-0.13500
2183333;-0.13000
2186110;-0.14500
2188888;-0.14500
2191666;-0.16000
2194444;-0.15000
2197222;-0.13500
2199999;-0.13000
2202777;-0.12500
2205555;-0.10500
2208333;-0.11000
2211110;-0.13500
2213888;-0.18500
2216666;-0.18500
2219444;-0.20000
2222222;-0.19500
2224999;-0.21500
2227777;-0.23000
2230555;-0.22500
2233333;-0.22000
2236110;-0.24000
2238888;-0.25500
2241666;-0.26500
2244444;-0.27500
2247222;-0.27000
2249999;-0.27000
2252777;-0.27500
2255555;-0.28000
2258333;-0.29000
2261110;-0.28500
2263888;-0.28000
2266666;-0.27500
2269444;-0.28000
2272222;-0.28500
2274999;-0.28500
2277777;-0.30000
2280555;-0.28500
2283333;-0.28500
2286110;-0.28500
2288888;-0.30000
2291666;-0.32000
2294444;-0.30500
2297222;-0.30000
2299999;-0.30000
2302777;-0.31000
2305555;-0.31500
2308333;-0.33000
2311110;-0.33500
2313888;-0.37000
2316666;-0.39500
2319444;-0.43500
2322222;-0.45000
2324999;-0.49500
2327777;-0.52500
2330555;-0.51500
2333333;-0.45000
2336110;-0.34000
2338888;-0.21500
2341666;-0.09000
2344444;0.13000
2347222;0.41500
2349999;0.68000
2352777;0.83000
2355555;0.87500
2358333;0.75000
2361110;0.48000
2363888;0.10500
2366666;-0.21000
2369444;-0.42000
2372222;-0.48500
2374999;-0.46500
2377777;-0.40000
2380555;-0.35500
2383333;-0.33500
2386110;-0.33500
2388888;-0.34000
2391666;-0.35500
2394444;-0.34000
2397222;-0.34000
2399999;-0.33500
2402777;-0.34500
2405555;-0.34500
2408333;-0.36000
2411110;-0.34000
2413888;-0.34500
2416666;-0.34000
2419444;-0.34000
2422222;-0.34500
2424999;-0.35500
2427777;-0.35000
2430555;-0.33500
2433333;-0.32500
2436110;-0.33000
2438888;-0.34000
2441666;-0.34000
2444444;-0.33500
2447222;-0.34000
2449999;-0.34000
2452777;-0.34500
2455555;-0.35000
2458333;-0.35000
2461110;-0.34500
2463888;-0.34000
2466666;-0.32500
2469444;-0.33000
2472222;-0.34500
2474999;-0.34500
2477777;-0.35000
2480555;-0.34000
2483333;-0.34000
2486110;-0.33500
2488888;-0.34000
2491666;-0.36000
2494444;-0.36000
2497222;-0.35000
2499999;-0.33500
2502777;-0.34500
2505555;-0.34500
2508333;-0.35500
2511110;-0.36000
2513888;-0.35500
2516666;-0.33500
2519444;-0.34500
2522222;-0.34500
2524999;-0.36000
2527777;-0.34500
2530555;-0.34500
2533333;-0.34500
2536110;-0.35000
2538888;-0.34500
2541666;-0.35500
2544444;-0.34000
2547222;-0.33500
2549999;-0.32000
2552777;-0.33000
2555555;-0.34500
2558333;-0.35500
2561110;-0.34500
2563888;-0.34500
2566666;-0.33000
2569444;-0.33500
2572222;-0.34000
2574999;-0.35500
2577777;-0.34500
2580555;-0.34500
2583333;-0.34500
2586110;-0.34000
2588888;-0.35500
2591666;-0.36000
2594444;-0.36500
2597221;-0.35500
2599999;-0.35500
2602777;-0.35500
2605555;-0.37000
2608333;-0.37000
2611110;-0.35500
2613888;-0.35000
2616666;-0.35500
2619444;-0.35500
2622221;-0.35500
2624999;-0.36500
2627777;-0.35500
2630555;-0.33500
2633333;-0.33000
2636110;-0.34000
2638888;-0.35000
2641666;-0.34500
2644444;-0.34500
2647221;-0.34000
2649999;-0.33500
2652777;-0.32500
2655555;-0.32500
2658333;-0.32000
2661110;-0.30500
2663888;-0.30000
2666666;-0.29500
2669444;-0.28500
2672221;-0.29000
2674999;-0.28500
2677777;-0.28000
2680555;-0.26500
2683333;-0.26500
2686110;-0.26000
2688888;-0.25000
2691666;-0.25500
2694444;-0.26000
2697221;-0.24000
2699999;-0.23000
2702777;-0.25000
2705555;-0.25500
2708333;-0.25500
2711110;-0.24000
2713888;-0.24000
2716666;-0.23500
2719444;-0.23500
2722221;-0.24500
2724999;-0.26000
2727777;-0.24500
2730555;-0.24500
2733333;-0.24500
2736110;-0.25000
2738888;-0.25500
2741666;-0.27000
2744444;-0.26000
2747221;-0.25500
2749999;-0.25000
2752777;-0.26000
2755555;-0.27000
2758333;-0.28500
2761110;-0.28000
2763888;-0.28000
2766666;-0.26500
2769444;-0.26000
2772221;-0.28000
2774999;-0.27500
2777777;-0.27000
2780555;-0.26000
2783333;-0.25500
2786110;-0.25500
2788888;-0.27000
2791666;-0.29000
2794444;-0.28000
2797221;-0.27500
2799999;-0.27500
2802777;-0.27000
2805555;-0.28000
2808333;-0.28000
2811110;-0.27000
2813888;-0.27000
2816666;-0.29000
2819444;-0.27000
2822221;-0.29000
2824999;-0.30500
2827777;-0.29500
2830555;-0.29500
2833333;-0.27500
2836110;-0.29000
2838888;-0.29000
2841666;-0.30500
2844444;-0.30000
2847221;-0.30000
2849999;-0.29500
2852777;-0.29500
2855555;-0.30500
2858333;-0.31500
2861110;-0.31000
2863888;-0.30000
2866666;-0.29000
2869444;-0.29500
2872221;-0.31000
2874999;-0.33000
2877777;-0.30000
2880555;-0.29500
2883333;-0.29000
2886110;-0.30000
2888888;-0.30000
2891666;-0.31000
2894444;-0.30500
2897221;-0.29500
2899999;-0.28500
2902777;-0.29000
2905555;-0.30000
2908333;-0.31500
2911110;-0.32500
2913888;-0.30000
2916666;-0.29000
2919444;-0.29500
2922221;-0.30500
2924999;-0.32000
2927777;-0.30500
2930555;-0.30500
2933333;-0.30000
2936110;-0.30500
2938888;-0.31000
2941666;-0.30500
2944444;-0.30000
2947221;-0.29000
2949999;-0.27500
2952777;-0.26500
2955555;-0.27500
2958333;-0.27000
2961110;-0.27000
2963888;-0.26000
2966666;-0.23500
2969444;-0.24000
2972221;-0.25000
2974999;-0.25000
2977777;-0.24000
2980555;-0.22000
2983332;-0.21000
2986110;-0.21500
2988888;-0.23000
2991666;-0.23000
2994444;-0.22000
2997221;-0.21500
2999999;-0.20500
3002777;-0.20500
3005555;-0.19500
3008332;-0.20000
3011110;-0.18500
3013888;-0.17500
3016666;-0.16000
3019444;-0.17500
3022221;-0.19500
3024999;-0.20500
3027777;-0.20000
3030555;-0.18000
3033332;-0.19000
3036110;-0.19500
3038888;-0.19500
3041666;-0.18000
3044444;-0.17500
3047221;-0.16500
3049999;-0.19000
3052777;-0.22000
3055555;-0.25000
3058332;-0.27000
3061110;-0.27000
3063888;-0.28500
3066666;-0.29000
3069444;-0.30500
3072221;-0.31500
3074999;-0.32500
3077777;-0.31500
3080555;-0.31500
3083332;-0.30500
3086110;-0.31000
3088888;-0.31500
3091666;-0.32500
3094444;-0.34000
3097221;-0.32000
3099999;-0.32500
3102777;-0.33000
3105555;-0.33000
3108332;-0.33500
3111110;-0.32500
3113888;-0.32000
3116666;-0.31500
3119444;-0.32500
3122221;-0.32500
3124999;-0.33500
3127777;-0.33500
3130555;-0.32500
3133332;-0.32500
3136110;-0.34000
3138888;-0.34500
3141666;-0.36500
3144444;-0.35000
3147221;-0.34500
3149999;-0.35000
3152777;-0.36500
3155555;-0.41000
3158332;-0.46000
3161110;-0.48000
3163888;-0.48500
3166666;-0.50000
3169444;-0.55000
3172221;-0.56000
3174999;-0.50500
3177777;-0.40000
3180555;-0.26500
3183332;-0.13000
3186110;0.05000
3188888;0.29000
3191666;0.55500
3194444;0.75000
3197221;0.86500
3199999;0.86000
3202777;0.68500
3205555;0.34000
3208332;-0.03500
3211110;-0.32000
3213888;-0.47000
3216666;-0.51000
3219444;-0.48500
3222221;-0.44000
3224999;-0.41500
3227777;-0.41500
3230555;-0.40500
3233332;-0.39500
3236110;-0.38000
3238888;-0.38500
3241666;-0.39500
3244444;-0.38500
3247221;-0.38000
3249999;-0.38000
3252777;-0.37000
3255555;-0.39000
3258332;-0.40000
3261110;-0.39000
3263888;-0.37500
3266666;-0.38500
3269444;-0.38000
3272221;-0.39000
3274999;-0.40500
3277777;-0.39500
3280555;-0.38000
3283332;-0.37000
3286110;-0.37000
3288888;-0.38000
3291666;-0.40000
3294444;-0.38500
3297221;-0.38500
3299999;-0.37500
3302777;-0.38000
3305555;-0.40000
3308332;-0.41000
3311110;-0.41500
3313888;-0.39500
3316666;-0.39000
3319444;-0.39500
3322221;-0.40500
3324999;-0.41000
3327777;-0.40000
3330555;-0.39500
3333332;-0.37500
3336110;-0.37500
3338888;-0.39500
3341666;-0.41000
3344444;-0.40000
3347221;-0.39000
3349999;-0.39500
3352777;-0.38500
3355555;-0.39500
3358332;-0.40500
3361110;-0.39500
3363888;-0.39000
3366666;-0.39000
3369444;-0.39000
3372221;-0.39500
3374999;-0.40500
3377777;-0.40000
3380555;-0.39000
3383332;-0.38000
3386110;-0.39500
3388888;-0.39500
3391666;-0.39500
3394443;-0.39500
3397221;-0.40000
3399999;-0.39000
3402777;-0.39000
3405555;-0.40000
3408332;-0.41000
3411110;-0.40000
3413888;-0.39000
3416666;-0.37500
3419443;-0.38500
3422221;-0.39500
3424999;-0.40500
3427777;-0.39500
3430555;-0.39500
3433332;-0.38500
3436110;-0.40500
3438888;-0.40000
3441666;-0.42000
3444443;-0.42000
3447221;-0.41000
3449999;-0.41500
3452777;-0.41500
3455555;-0.43000
3458332;-0.44000
3461110;-0.44000
3463888;-0.44000
3466666;-0.42000
3469443;-0.43000
3472221;-0.43000
3474999;-0.43000
3477777;-0.43500
3480555;-0.42000
3483332;-0.40500
3486110;-0.41500
3488888;-0.40500
3491666;-0.41000
3494443;-0.39000
3497221;-0.38000
3499999;-0.38000
3502777;-0.36500
3505555;-0.36000
3508332;-0.35000
3511110;-0.35500
3513888;-0.34500
3516666;-0.33000
3519443;-0.32500
3522221;-0.32500
3524999;-0.32000
3527777;-0.31500
3530555;-0.28000
3533332;-0.29000
3536110;-0.29000
3538888;-0.30000
3541666;-0.31500
3544443;-0.29500
3547221;-0.29000
3549999;-0.28000
3552777;-0.27500
3555555;-0.27500
3558332;-0.29000
3561110;-0.29000
3563888;-0.28500
3566666;-0.28000
3569443;-0.28500
3572221;-0.29000
3574999;-0.30000
3577777;-0.29500
3580555;-0.28500
3583332;-0.28500
3586110;-0.30500
3588888;-0.31000
3591666;-0.33000
3594443;-0.31500
3597221;-0.29500
3599999;-0.29500
3602777;-0.29500
3605555;-0.29500
3608332;-0.31000
3611110;-0.30000
3613888;-0.29000
3616666;-0.28000
3619443;-0.29500
3622221;-0.30500
3624999;-0.31500
3627777;-0.30500
3630555;-0.31000
3633332;-0.31000
3636110;-0.31000
3638888;-0.30000
3641666;-0.33000
3644443;-0.32500
3647221;-0.31500
3649999;-0.31000
3652777;-0.30500
3655555;-0.32500
3658332;-0.33000
3661110;-0.33500
3663888;-0.32000
3666666;-0.32000
3669443;-0.33000
3672221;-0.33000
3674999;-0.33000
3677777;-0.33000
3680555;-0.32000
3683332;-0.32000
3686110;-0.32500
3688888;-0.32500
3691666;-0.35500
3694443;-0.34000
3697221;-0.33000
3699999;-0.33000
3702777;-0.33000
3705555;-0.33500
3708332;-0.35000
3711110;-0.34500
3713888;-0.33500
3716666;-0.32500
3719443;-0.32000
3722221;-0.34000
3724999;-0.33500
3727777;-0.33000
3730555;-0.34000
3733332;-0.33500
3736110;-0.34000
3738888;-0.33500
3741666;-0.34500
3744443;-0.32500
3747221;-0.32500
3749999;-0.33000
3752777;-0.34000
3755555;-0.34500
3758332;-0.34500
3761110;-0.34000
3763888;-0.33000
3766666;-0.32000
3769443;-0.33000
3772221;-0.33000
3774999;-0.35000
3777777;-0.33500
3780554;-0.33500
3783332;-0.33000
3786110;-0.33500
3788888;-0.32500
3791666;-0.33000
3794443;-0.31000
3797221;-0.29500
3799999;-0.27500
3802777;-0.28500
3805554;-0.27500
3808332;-0.28500
3811110;-0.27000
3813888;-0.28000
3816666;-0.25500
3819443;-0.25500
3822221;-0.27500
3824999;-0.26500
3827777;-0.24500
3830554;-0.23000
3833332;-0.23000
3836110;-0.21000
3838888;-0.22500
3841666;-0.23500
3844443;-0.23000
3847221;-0.22500
3849999;-0.20000
3852777;-0.22000
3855554;-0.23000
3858332;-0.24500
3861110;-0.23000
3863888;-0.22500
3866666;-0.22500
3869443;-0.22000
3872221;-0.23500
3874999;-0.23000
3877777;-0.21500
3880554;-0.19500
3883332;-0.19500
3886110;-0.23000
3888888;-0.26000
3891666;-0.28000
3894443;-0.29000
3897221;-0.29500
3899999;-0.30500
3902777;-0.33000
3905554;-0.34000
3908332;-0.36000
3911110;-0.36500
3913888;-0.35500
3916666;-0.35500
3919443;-0.35000
3922221;-0.35500
3924999;-0.35500
3927777;-0.36000
3930554;-0.35000
3933332;-0.34500
3936110;-0.34500
3938888;-0.35500
3941666;-0.37500
3944443;-0.36500
3947221;-0.35500
3949999;-0.34000
3952777;-0.34500
3955554;-0.34500
3958332;-0.36500
3961110;-0.36000
3963888;-0.37000
3966666;-0.37000
3969443;-0.36500
3972221;-0.37500
3974999;-0.38000
3977777;-0.37500
3980554;-0.37500
3983332;-0.37000
3986110;-0.40500
3988888;-0.45000
3991666;-0.48500
3994443;-0.50500
3997221;-0.51000
3999999;-0.53500
4002777;-0.56500
4005554;-0.55000
4008332;-0.46000
4011110;-0.31000
4013888;-0.16000
4016666;0.03000
4019443;0.26000
4022221;0.53000
4024999;0.73500
4027777;0.89000
4030554;0.94500
4033332;0.83000
4036110;0.52500
4038888;0.13000
4041666;-0.23500
4044443;-0.43000
4047221;-0.51000
4049999;-0.48500
4052777;-0.45500
4055554;-0.42000
4058332;-0.42500
4061110;-0.42000
4063888;-0.41000
4066666;-0.39500
4069443;-0.40000
4072221;-0.40500
4074999;-0.41500
4077777;-0.41000
4080554;-0.41500
4083332;-0.40000
4086110;-0.40000
4088888;-0.41500
4091666;-0.41500
4094443;-0.41500
4097221;-0.40500
4099999;-0.41000
4102777;-0.40000
4105554;-0.41000
4108332;-0.41000
4111110;-0.40500
4113888;-0.40000
4116666;-0.38500
4119443;-0.38500
4122221;-0.40500
4124999;-0.41000
4127777;-0.41000
4130554;-0.40000
4133332;-0.40000
4136110;-0.40500
4138888;-0.41500
4141666;-0.41500
4144443;-0.40500
4147221;-0.40000
4149999;-0.39000
4152777;-0.40000
4155554;-0.40500
4158332;-0.41500
4161110;-0.42000
4163888;-0.40500
4166666;-0.39500
4169443;-0.40000
4172221;-0.39500
4174999;-0.41000
4177777;-0.40500
4180554;-0.39500
4183332;-0.39500
4186110;-0.38500
4188888;-0.40000
4191665;-0.42500
4194443;-0.41000
4197221;-0.39500
4199999;-0.39500
4202777;-0.38500
4205554;-0.40000
4208332;-0.40000
4211110;-0.40500
4213888;-0.40500
4216665;-0.39500
4219443;-0.39000
4222221;-0.39000
4224999;-0.40500
4227777;-0.39500
4230554;-0.38500
4233332;-0.38000
4236110;-0.38500
4238888;-0.39500
4241665;-0.40500
4244443;-0.40000
4247221;-0.39000
4249999;-0.38000
4252777;-0.37500
4255554;-0.41000
4258332;-0.40000
4261110;-0.40500
4263888;-0.40000
4266665;-0.40500
4269443;-0.41000
4272221;-0.41000
4274999;-0.43500
4277777;-0.42000
4280554;-0.41500
4283332;-0.41500
4286110;-0.43000
4288888;-0.43000
4291665;-0.44500
4294443;-0.42500
4297221;-0.42500
4299999;-0.41000
4302777;-0.41000
4305554;-0.41500
4308332;-0.42000
4311110;-0.41000
4313888;-0.39000
4316665;-0.37000
4319443;-0.36000
4322221;-0.36000
4324999;-0.34500
4327777;-0.33000
4330554;-0.29500
4333332;-0.29500
4336110;-0.29000
4338888;-0.29000
4341665;-0.28500
4344443;-0.28500
4347221;-0.26500
4349999;-0.26000
4352777;-0.26500
4355554;-0.27000
4358332;-0.27000
4361110;-0.27500
4363888;-0.26000
4366665;-0.25000
4369443;-0.25000
4372221;-0.26500
4374999;-0.26000
4377777;-0.26000
4380554;-0.24500
4383332;-0.23500
4386110;-0.24500
4388888;-0.25000
4391665;-0.25500
4394443;-0.25000
4397221;-0.24500
4399999;-0.24000
4402777;-0.24500
4405554;-0.25000
4408332;-0.25000
4411110;-0.24500
4413888;-0.23500
4416665;-0.23500
4419443;-0.24000
4422221;-0.25500
4424999;-0.26000
4427777;-0.25500
4430554;-0.26000
4433332;-0.25000
4436110;-0.24500
4438888;-0.25500
4441665;-0.26500
4444443;-0.26000
4447221;-0.25000
4449999;-0.24500
4452777;-0.25500
4455554;-0.26500
4458332;-0.27000
4461110;-0.26000
4463888;-0.26500
4466665;-0.25500
4469443;-0.25500
4472221;-0.26000
4474999;-0.27000
4477777;-0.27000
4480554;-0.25500
4483332;-0.25500
4486110;-0.26500
4488888;-0.27000
4491665;-0.28000
4494443;-0.28000
4497221;-0.27000
4499999;-0.26500
4502777;-0.27500
4505554;-0.27500
4508332;-0.29500
4511110;-0.29500
4513888;-0.27500
4516665;-0.27000
4519443;-0.28000
4522221;-0.28500
4524999;-0.28500
4527777;-0.27500
4530554;-0.28000
4533332;-0.27000
4536110;-0.27000
4538888;-0.26500
4541665;-0.27000
4544443;-0.28000
4547221;-0.26500
4549999;-0.27500
4552777;-0.27500
4555554;-0.28000
4558332;-0.28500
4561110;-0.29000
4563888;-0.27500
4566665;-0.27000
4569443;-0.27500
4572221;-0.28000
4574999;-0.30000
4577776;-0.28000
4580554;-0.26500
4583332;-0.25500
4586110;-0.24500
4588888;-0.25000
4591665;-0.25000
4594443;-0.24000
4597221;-0.22000
4599999;-0.20000
4602776;-0.19500
4605554;-0.19500
4608332;-0.20500
4611110;-0.19000
4613888;-0.17500
4616665;-0.16000
4619443;-0.15500
4622221;-0.15500
4624999;-0.15500
4627776;-0.16000
4630554;-0.15000
4633332;-0.13500
4636110;-0.15000
4638888;-0.16000
4641665;-0.17500
4644443;-0.16500
4647221;-0.15000
4649999;-0.15000
4652776;-0.15500
4655554;-0.15500
4658332;-0.13500
4661110;-0.13000
4663888;-0.13500
4666665;-0.16000
4669443;-0.19000
4672221;-0.21000
4674999;-0.22500
4677776;-0.23000
4680554;-0.22500
4683332;-0.23000
4686110;-0.23500
4688888;-0.24500
4691665;-0.26000
4694443;-0.27000
4697221;-0.27500
4699999;-0.26500
4702776;-0.27000
4705554;-0.28000
4708332;-0.28500
4711110;-0.28500
4713888;-0.28000
4716665;-0.29000
4719443;-0.28500
4722221;-0.30000
4724999;-0.30000
4727776;-0.31000
4730554;-0.31000
4733332;-0.30500
4736110;-0.31000
4738888;-0.31000
4741665;-0.32000
4744443;-0.32500
4747221;-0.30500
4749999;-0.30500
4752776;-0.30000
4755554;-0.30000
4758332;-0.32500
4761110;-0.31500
4763888;-0.32500
4766665;-0.35500
4769443;-0.39000
4772221;-0.42500
4774999;-0.45500
4777776;-0.48000
4780554;-0.51000
4783332;-0.52500
4786110;-0.46000
4788888;-0.38000
4791665;-0.28500
4794443;-0.17000
4797221;-0.05000
4799999;0.12500
4802776;0.38000
4805554;0.61000
4808332;0.81000
4811110;0.94000
4813888;0.93000
4816665;0.74000
4819443;0.38500
4822221;-0.03000
4824999;-0.33000
4827776;-0.46500
4830554;-0.47000
4833332;-0.41000
4836110;-0.36000
4838888;-0.34500
4841665;-0.36500
4844443;-0.35000
4847221;-0.34500
4849999;-0.34500
4852776;-0.32500
4855554;-0.33500
4858332;-0.35000
4861110;-0.35000
4863888;-0.33500
4866665;-0.33000
4869443;-0.34000
4872221;-0.33500
4874999;-0.35000
4877776;-0.35500
4880554;-0.34000
4883332;-0.33000
4886110;-0.34000
4888888;-0.34000
4891665;-0.36000
4894443;-0.34500
4897221;-0.35500
4899999;-0.33500
4902776;-0.34500
4905554;-0.34000
4908332;-0.36000
4911110;-0.35000
4913888;-0.34000
4916665;-0.32500
4919443;-0.33000
4922221;-0.34500
4924999;-0.34500
4927776;-0.34000
4930554;-0.33500
4933332;-0.32500
4936110;-0.32500
4938888;-0.33500
4941665;-0.33500
4944443;-0.35000
4947221;-0.33500
4949999;-0.33000
4952776;-0.33500
4955554;-0.34500
4958332;-0.35500
4961110;-0.35000
4963887;-0.34000
4966665;-0.34000
4969443;-0.33000
4972221;-0.34500
4974999;-0.35000
4977776;-0.36000
4980554;-0.34000
4983332;-0.32500
4986110;-0.34000
4988887;-0.34500
4991665;-0.33500
4994443;-0.33000
4997221;-0.32000
4999999;-0.31000
5002776;-0.32000
5005554;-0.32500
5008332;-0.33000
5011110;-0.32000
5013887;-0.32000
5016665;-0.31500
5019443;-0.32000
5022221;-0.32500
5024999;-0.33000
5027776;-0.33000
5030554;-0.33000
5033332;-0.32500
5036110;-0.32500
5038887;-0.33000
5041665;-0.34000
5044443;-0.33500
5047221;-0.32500
5049999;-0.32000
5052776;-0.32500
5055554;-0.32500
5058332;-0.34500
5061110;-0.33500
5063887;-0.33000
5066665;-0.31500
5069443;-0.33000
5072221;-0.33500
5074999;-0.34000
5077776;-0.33000
5080554;-0.31500
5083332;-0.31000
5086110;-0.30000
5088887;-0.32000
5091665;-0.32500
5094443;-0.32000
5097221;-0.31000
5099999;-0.29000
5102776;-0.29000
5105554;-0.29500
5108332;-0.29000
5111110;-0.28500
5113887;-0.27500
5116665;-0.26000
5119443;-0.25500
5122221;-0.26500
5124999;-0.27000
5127776;-0.25500
5130554;-0.25000
5133332;-0.23500
5136110;-0.22500
5138887;-0.23000
5141665;-0.25000
5144443;-0.23500
5147221;-0.23500
5149999;-0.21500
5152776;-0.21500
5155554;-0.23000
5158332;-0.23500
5161110;-0.22500
5163887;-0.22500
5166665;-0.21500
5169443;-0.21500
5172221;-0.23000
5174999;-0.24000
5177776;-0.23500
5180554;-0.22500
5183332;-0.22000
5186110;-0.23000
5188887;-0.23500
5191665;-0.24500
5194443;-0.25000
5197221;-0.24000
5199999;-0.23000
5202776;-0.23500
5205554;-0.25000
5208332;-0.25000
5211110;-0.24500
5213887;-0.23500
5216665;-0.23500
5219443;-0.23500
5222221;-0.25500
5224999;-0.26000
5227776;-0.25500
5230554;-0.24500
5233332;-0.24000
5236110;-0.24000
5238887;-0.26000
5241665;-0.27000
5244443;-0.26000
5247221;-0.26000
5249999;-0.25500
5252776;-0.25500
5255554;-0.27000
5258332;-0.28500
5261110;-0.28500
5263887;-0.28500
5266665;-0.26500
5269443;-0.27500
5272221;-0.27500
5274999;-0.28500
5277776;-0.27000
5280554;-0.29000
5283332;-0.27000
5286110;-0.27500
5288887;-0.28000
5291665;-0.29000
5294443;-0.28500
5297221;-0.28000
5299999;-0.27000
5302776;-0.26500
5305554;-0.28000
5308332;-0.27500
5311110;-0.28000
5313887;-0.27000
5316665;-0.26000
5319443;-0.26500
5322221;-0.27000
5324999;-0.27500
5327776;-0.27000
5330554;-0.27000
5333332;-0.27000
5336110;-0.27000
5338887;-0.27500
5341665;-0.27500
5344443;-0.27500
5347221;-0.26500
5349999;-0.26500
5352776;-0.27500
5355554;-0.28500
5358332;-0.28000
5361110;-0.28000
5363887;-0.27000
5366665;-0.26500
5369443;-0.26500
5372221;-0.27500
5374998;-0.27000
5377776;-0.26000
5380554;-0.24000
5383332;-0.22500
5386110;-0.23000
5388887;-0.23000
5391665;-0.23500
5394443;-0.21000
5397221;-0.19500
5399998;-0.19000
5402776;-0.19500
5405554;-0.19500
5408332;-0.19000
5411110;-0.17500
5413887;-0.16000
5416665;-0.14500
5419443;-0.14500
5422221;-0.15000
5424998;-0.15000
5427776;-0.15000
5430554;-0.14500
5433332;-0.14500
5436110;-0.16000
5438887;-0.16000
5441665;-0.17000
5444443;-0.16000
5447221;-0.15500
5449998;-0.13500
5452776;-0.13000
5455554;-0.11500
5458332;-0.13500
5461110;-0.16000
5463887;-0.19000
5466665;-0.21000
5469443;-0.21000
5472221;-0.22500
5474998;-0.25000
5477776;-0.25500
5480554;-0.27000
5483332;-0.27000
5486110;-0.28500
5488887;-0.29500
5491665;-0.30000
5494443;-0.29000
5497221;-0.30000
5499998;-0.29000
5502776;-0.29500
5505554;-0.30500
5508332;-0.32000
5511110;-0.30500
5513887;-0.31000
5516665;-0.30500
5519443;-0.30500
5522221;-0.31000
5524998;-0.33000
5527776;-0.32000
5530554;-0.32000
5533332;-0.30500
5536110;-0.31000
5538887;-0.31000
5541665;-0.32000
5544443;-0.32000
5547221;-0.31000
5549998;-0.32000
5552776;-0.34500
5555554;-0.39000
5558332;-0.43500
5561110;-0.44500
5563887;-0.44500
5566665;-0.48500
5569443;-0.52500
5572221;-0.57000
5574998;-0.56000
5577776;-0.50500
5580554;-0.41000
5583332;-0.30500
5586110;-0.20000
5588887;-0.06500
5591665;0.13000
5594443;0.42000
5597221;0.68000
5599998;0.85000
5602776;0.88000
5605554;0.79000
5608332;0.52500
5611110;0.14500
5613887;-0.20000
5616665;-0.40500
5619443;-0.49000
5622221;-0.47000
5624998;-0.42000
5627776;-0.37000
5630554;-0.36000
5633332;-0.35000
5636110;-0.35000
5638887;-0.34500
5641665;-0.36000
5644443;-0.35000
5647221;-0.34500
5649998;-0.33500
5652776;-0.34000
5655554;-0.35000
5658332;-0.36000
5661110;-0.35500
5663887;-0.35500
5666665;-0.34500
5669443;-0.34500
5672221;-0.35500
5674998;-0.37500
5677776;-0.35500
5680554;-0.35000
5683332;-0.34000
5686110;-0.34500
5688887;-0.34500
5691665;-0.35500
5694443;-0.34500
5697221;-0.34500
5699998;-0.34000
5702776;-0.34500
5705554;-0.34000
5708332;-0.36000
5711110;-0.35000
5713887;-0.34500
5716665;-0.35000
5719443;-0.35500
5722221;-0.36000
5724998;-0.36500
5727776;-0.35500
5730554;-0.35000
5733332;-0.34000
5736110;-0.34500
5738887;-0.36000
5741665;-0.36000
5744443;-0.36000
5747221;-0.35500
5749998;-0.34000
5752776;-0.35000
5755554;-0.35500
5758332;-0.35500
5761109;-0.34500
5763887;-0.34000
5766665;-0.33000
5769443;-0.32500
5772221;-0.33500
5774998;-0.34500
5777776;-0.33000
5780554;-0.33500
5783332;-0.33500
5786109;-0.34500
5788887;-0.34500
5791665;-0.36000
5794443;-0.36000
5797221;-0.34000
5799998;-0.33500
5802776;-0.33500
5805554;-0.34000
5808332;-0.33500
5811109;-0.33000
5813887;-0.32000
5816665;-0.31500
5819443;-0.32000
5822221;-0.33500
5824998;-0.34500
5827776;-0.34000
5830554;-0.32500
5833332;-0.32500
5836109;-0.33500
5838887;-0.34500
5841665;-0.35500
5844443;-0.34500
5847221;-0.34500
5849998;-0.33000
5852776;-0.33500
5855554;-0.34000
5858332;-0.36500
5861109;-0.34500
5863887;-0.34500
5866665;-0.33500
5869443;-0.35000
5872221;-0.34500
5874998;-0.36000
5877776;-0.34500
5880554;-0.34000
5883332;-0.33500
5886109;-0.33000
5888887;-0.32500
5891665;-0.35000
5894443;-0.32000
5897221;-0.30500
5899998;-0.30000
5902776;-0.29500
5905554;-0.27500
5908332;-0.28000
5911109;-0.25500
5913887;-0.24500
5916665;-0.24500
5919443;-0.23500
5922221;-0.24000
5924998;-0.25500
5927776;-0.27000
5930554;-0.24000
5933332;-0.24000
5936109;-0.24000
5938887;-0.26000
5941665;-0.25500
5944443;-0.25500
5947221;-0.26000
5949998;-0.23500
5952776;-0.25500
5955554;-0.24500
5958332;-0.25000
5961109;-0.25500
5963887;-0.25500
5966665;-0.24000
5969443;-0.25500
5972221;-0.26500
5974998;-0.27000
5977776;-0.25500
5980554;-0.26500
5983332;-0.25000
5986109;-0.25000
5988887;-0.26000
5991665;-0.26500
5994443;-0.26000
5997221;-0.25000
5999998;-0.26000
6002776;-0.25000
6005554;-0.26000
6008332;-0.27000
6011109;-0.27500
6013887;-0.26500
6016665;-0.26000
6019443;-0.25500
6022221;-0.27000
6024998;-0.28000
6027776;-0.29000
6030554;-0.29000
6033332;-0.29500
6036109;-0.28000
6038887;-0.29500
6041665;-0.29000
6044443;-0.29500
6047221;-0.29000
6049998;-0.28500
6052776;-0.29500
6055554;-0.30000
6058332;-0.31000
6061109;-0.30500
6063887;-0.29500
6066665;-0.29500
6069443;-0.30000
6072221;-0.30500
6074998;-0.32000
6077776;-0.32000
6080554;-0.30500
6083332;-0.30500
6086109;-0.31000
6088887;-0.30500
6091665;-0.32000
6094443;-0.31000
6097221;-0.30500
6099998;-0.29500
6102776;-0.30000
6105554;-0.31000
6108332;-0.31500
6111109;-0.30500
6113887;-0.30500
6116665;-0.30500
6119443;-0.30000
6122221;-0.32000
6124998;-0.32000
6127776;-0.31500
6130554;-0.30000
6133332;-0.29000
6136109;-0.29000
6138887;-0.30000
6141665;-0.30500
6144443;-0.30500
6147221;-0.30000
6149998;-0.30000
6152776;-0.28500
6155554;-0.30000
6158332;-0.30000
6161109;-0.29000
6163887;-0.27000
6166665;-0.25000
6169443;-0.24000
6172220;-0.25000
6174998;-0.26000
6177776;-0.24000
6180554;-0.23500
6183332;-0.22000
6186109;-0.22500
6188887;-0.22500
6191665;-0.22500
6194443;-0.20500
6197220;-0.20000
6199998;-0.18000
6202776;-0.18000
6205554;-0.19000
6208332;-0.21000
6211109;-0.20500
6213887;-0.22000
6216665;-0.20000
6219443;-0.19500
6222220;-0.20000
6224998;-0.19500
6227776;-0.19000
6230554;-0.17000
6233332;-0.16000
6236109;-0.16000
6238887;-0.18000
6241665;-0.21500
6244443;-0.24500
6247220;-0.27000
6249998;-0.26500
6252776;-0.28000
6255554;-0.30500
6258332;-0.33000
6261109;-0.33500
6263887;-0.33000
6266665;-0.32500
6269443;-0.31500
6272220;-0.33000
6274998;-0.33500
6277776;-0.32500
6280554;-0.34500
6283332;-0.34000
6286109;-0.33500
6288887;-0.33500
6291665;-0.34500
6294443;-0.34000
6297220;-0.33500
6299998;-0.32000
6302776;-0.33000
6305554;-0.34000
6308332;-0.34500
6311109;-0.35500
6313887;-0.34500
6316665;-0.34000
6319443;-0.33500
6322220;-0.34500
6324998;-0.35500
6327776;-0.35000
6330554;-0.34500
6333332;-0.34000
6336109;-0.40000
6338887;-0.43000
6341665;-0.46500
6344443;-0.48500
6347220;-0.52500
6349998;-0.56500
6352776;-0.53500
6355554;-0.45000
6358332;-0.33000
6361109;-0.17500
6363887;0.02500
6366665;0.27000
6369443;0.55000
6372220;0.76500
6374998;0.86500
6377776;0.85000
6380554;0.65000
6383332;0.30000
6386109;-0.10500
6388887;-0.37000
6391665;-0.51000
6394443;-0.52000
6397220;-0.47000
6399998;-0.43500
6402776;-0.40000
6405554;-0.40500
6408332;-0.41000
6411109;-0.41000
6413887;-0.39500
6416665;-0.38000
6419443;-0.38500
6422220;-0.40500
6424998;-0.40500
6427776;-0.41000
6430554;-0.40000
6433332;-0.39000
6436109;-0.39000
6438887;-0.39500
6441665;-0.41500
6444443;-0.41500
6447220;-0.39500
6449998;-0.38000
6452776;-0.37500
6455554;-0.38500
6458332;-0.40000
6461109;-0.39000
6463887;-0.38500
6466665;-0.38000
6469443;-0.37500
6472220;-0.39000
6474998;-0.39500
6477776;-0.40000
6480554;-0.39000
6483332;-0.38500
6486109;-0.38000
6488887;-0.40500
6491665;-0.41000
6494443;-0.41500
6497220;-0.40500
6499998;-0.38500
6502776;-0.39000
6505554;-0.41000
6508332;-0.41000
6511109;-0.41000
6513887;-0.40000
6516665;-0.38500
6519443;-0.39000
6522220;-0.40000
6524998;-0.41000
6527776;-0.40500
6530554;-0.39500
6533332;-0.40000
6536109;-0.39500
6538887;-0.40000
6541665;-0.41000
6544443;-0.40000
6547220;-0.40000
6549998;-0.39000
6552776;-0.39500
6555554;-0.40000
6558331;-0.43000
6561109;-0.41500
6563887;-0.40500
6566665;-0.39500
6569443;-0.40000
6572220;-0.42000
6574998;-0.41000
6577776;-0.40500
6580554;-0.39500
6583331;-0.40000
6586109;-0.41000
6588887;-0.41500
6591665;-0.42500
6594443;-0.42500
6597220;-0.42000
6599998;-0.42000
6602776;-0.43000
6605554;-0.42500
6608331;-0.44000
6611109;-0.44000
6613887;-0.43500
6616665;-0.41000
6619443;-0.42500
6622220;-0.44000
6624998;-0.45000
6627776;-0.44000
6630554;-0.44500
6633331;-0.45000
6636109;-0.45000
6638887;-0.45000
6641665;-0.46500
6644443;-0.46000
6647220;-0.45000
6649998;-0.43000
6652776;-0.43500
6655554;-0.43500
6658331;-0.43000
6661109;-0.42000
6663887;-0.39500
6666665;-0.37500
6669443;-0.36000
6672220;-0.36000
6674998;-0.35500
6677776;-0.35000
6680554;-0.33000
6683331;-0.31000
6686109;-0.30000
6688887;-0.31000
6691665;-0.31500
6694443;-0.31000
6697220;-0.30000
6699998;-0.29000
6702776;-0.28000
6705554;-0.28500
6708331;-0.29000
6711109;-0.29000
6713887;-0.28000
6716665;-0.27000
6719443;-0.27000
6722220;-0.28000
6724998;-0.28500
6727776;-0.27500
6730554;-0.27000
6733331;-0.26500
6736109;-0.27000
6738887;-0.27500
6741665;-0.28500
6744443;-0.29500
6747220;-0.28000
6749998;-0.27500
6752776;-0.28000
6755554;-0.28500
6758331;-0.29500
6761109;-0.29500
6763887;-0.28000
6766665;-0.28500
6769443;-0.27500
6772220;-0.28000
6774998;-0.29500
6777776;-0.29500
6780554;-0.27500
6783331;-0.27000
6786109;-0.27500
6788887;-0.28000
6791665;-0.29500
6794443;-0.29500
6797220;-0.29000
6799998;-0.28500
6802776;-0.29500
6805554;-0.30500
6808331;-0.31500
6811109;-0.31000
6813887;-0.29500
6816665;-0.29000
6819443;-0.29500
6822220;-0.31000
6824998;-0.32500
6827776;-0.33000
6830554;-0.31000
6833331;-0.30000
6836109;-0.30500
6838887;-0.31500
6841665;-0.32500
6844443;-0.31000
6847220;-0.31000
6849998;-0.30500
6852776;-0.29500
6855554;-0.31000
6858331;-0.32000
6861109;-0.31500
6863887;-0.30500
6866665;-0.29500
6869443;-0.30000
6872220;-0.31000
6874998;-0.33500
6877776;-0.31000
6880554;-0.30000
6883331;-0.29500
6886109;-0.31000
6888887;-0.30500
6891665;-0.32000
6894443;-0.30000
6897220;-0.30000
6899998;-0.30000
6902776;-0.29500
6905554;-0.29500
6908331;-0.29500
6911109;-0.28500
6913887;-0.29500
6916665;-0.29000
6919443;-0.29500
6922220;-0.29500
6924998;-0.30000
6927776;-0.30500
6930554;-0.29000
6933331;-0.27500
6936109;-0.26500
6938887;-0.26500
6941665;-0.27000
6944442;-0.25500
6947220;-0.23000
6949998;-0.23000
6952776;-0.23500
6955554;-0.22500
6958331;-0.23000
6961109;-0.23500
6963887;-0.20500
6966665;-0.19500
6969442;-0.19500
6972220;-0.20500
6974998;-0.19500
6977776;-0.18000
6980554;-0.18000
6983331;-0.17000
6986109;-0.18000
6988887;-0.20500
6991665;-0.19500
6994442;-0.19000
6997220;-0.18500
6999998;-0.18000
7002776;-0.17000
7005554;-0.15500
7008331;-0.15000
7011109;-0.16000
7013887;-0.18500
7016665;-0.21000
7019442;-0.23500
7022220;-0.25000
7024998;-0.27500
7027776;-0.28500
7030554;-0.28500
7033331;-0.28500
7036109;-0.29500
7038887;-0.30500
7041665;-0.30500
7044442;-0.30500
7047220;-0.30000
7049998;-0.29000
7052776;-0.28500
7055554;-0.29000
7058331;-0.30500
7061109;-0.31000
7063887;-0.30000
7066665;-0.29500
7069442;-0.28000
7072220;-0.31500
7074998;-0.33000
7077776;-0.33000
7080554;-0.32000
7083331;-0.31000
7086109;-0.30500
7088887;-0.31000
7091665;-0.32500
7094442;-0.32500
7097220;-0.32000
7099998;-0.32000
7102776;-0.33000
7105554;-0.34000
7108331;-0.36000
7111109;-0.37000
7113887;-0.41000
7116665;-0.43500
7119442;-0.45500
7122220;-0.49000
7124998;-0.54500
7127776;-0.52000
7130554;-0.42000
7133331;-0.26500
7136109;-0.12000
7138887;0.06000
7141665;0.30500
7144442;0.61000
7147220;0.83000
7149998;0.92000
7152776;0.87000
7155554;0.64000
7158331;0.24000
7161109;-0.15500
7163887;-0.41000
7166665;-0.47500
7169442;-0.44500
7172220;-0.40000
7174998;-0.37000
7177776;-0.36500
7180554;-0.36000
7183331;-0.35000
7186109;-0.36500
7188887;-0.36500
7191665;-0.36000
7194442;-0.36500
7197220;-0.36000
7199998;-0.34000
7202776;-0.35000
7205554;-0.35500
7208331;-0.37000
7211109;-0.36000
7213887;-0.36000
7216665;-0.34500
7219442;-0.35000
7222220;-0.35500
7224998;-0.37000
7227776;-0.36500
7230554;-0.35000
7233331;-0.34000
7236109;-0.33000
7238887;-0.34000
7241665;-0.36000
7244442;-0.35500
7247220;-0.35500
7249998;-0.34000
7252776;-0.34000
7255554;-0.34000
7258331;-0.36500
7261109;-0.35000
7263887;-0.35500
7266665;-0.35500
7269442;-0.34500
7272220;-0.35000
7274998;-0.36000
7277776;-0.35000
7280554;-0.35000
7283331;-0.33000
7286109;-0.34000
7288887;-0.34500
7291665;-0.35000
7294442;-0.34500
7297220;-0.33000
7299998;-0.33500
7302776;-0.34000
7305554;-0.35000
7308331;-0.35500
7311109;-0.36000
7313887;-0.34500
7316665;-0.34000
7319442;-0.33500
7322220;-0.34500
7324998;-0.34500
7327776;-0.34500
7330554;-0.34500
7333331;-0.33500
7336109;-0.34000
7338887;-0.35000
7341665;-0.35500
7344442;-0.35000
7347220;-0.34000
7349998;-0.32500
7352776;-0.33500
7355553;-0.33500
7358331;-0.33000
7361109;-0.33000
7363887;-0.32500
7366665;-0.32000
7369442;-0.31500
7372220;-0.32000
7374998;-0.33500
7377776;-0.33500
7380553;-0.33000
7383331;-0.32000
7386109;-0.32500
7388887;-0.33500
7391665;-0.33500
7394442;-0.33500
7397220;-0.33000
7399998;-0.32000
7402776;-0.33000
7405553;-0.35000
7408331;-0.36500
7411109;-0.34500
7413887;-0.34000
7416665;-0.32500
7419442;-0.33500
7422220;-0.35000
7424998;-0.34500
7427776;-0.33000
7430553;-0.32000
7433331;-0.31000
7436109;-0.29000
7438887;-0.30500
7441665;-0.30000
7444442;-0.28500
7447220;-0.27500
7449998;-0.25000
7452776;-0.25500
7455553;-0.26000
7458331;-0.25000
7461109;-0.25000
7463887;-0.23500
7466665;-0.24000
7469442;-0.23500
7472220;-0.24000
7474998;-0.24000
7477776;-0.24000
7480553;-0.23000
7483331;-0.22000
7486109;-0.22500
7488887;-0.22000
7491665;-0.23000
7494442;-0.23500
7497220;-0.22000
7499998;-0.20000
7502776;-0.20500
7505553;-0.21500
7508331;-0.21500
7511109;-0.23500
7513887;-0.22000
7516665;-0.20500
7519442;-0.21500
7522220;-0.22000
7524998;-0.22000
7527776;-0.22000
7530553;-0.22000
7533331;-0.20500
7536109;-0.21500
7538887;-0.22000
7541665;-0.22000
7544442;-0.22000
7547220;-0.21000
7549998;-0.21500
7552776;-0.21500
7555553;-0.23500
7558331;-0.24000
7561109;-0.24000
7563887;-0.23000
7566665;-0.22000
7569442;-0.22500
7572220;-0.23500
7574998;-0.25000
7577776;-0.23500
7580553;-0.23500
7583331;-0.21500
7586109;-0.23000
7588887;-0.22500
7591665;-0.24500
7594442;-0.24000
7597220;-0.23000
7599998;-0.22500
7602776;-0.22500
7605553;-0.24000
7608331;-0.25000
7611109;-0.25000
7613887;-0.25000
7616665;-0.24500
7619442;-0.23500
7622220;-0.24500
7624998;-0.26000
7627776;-0.25000
7630553;-0.25500
7633331;-0.25000
7636109;-0.26000
7638887;-0.25500
7641665;-0.27000
7644442;-0.27000
7647220;-0.26000
7649998;-0.25500
7652776;-0.25500
7655553;-0.25000
7658331;-0.26500
7661109;-0.27000
7663887;-0.25500
7666665;-0.23000
7669442;-0.24500
7672220;-0.25500
7674998;-0.26000
7677776;-0.26000
7680553;-0.25000
7683331;-0.24000
7686109;-0.24000
7688887;-0.24500
7691665;-0.25000
7694442;-0.25000
7697220;-0.24000
7699998;-0.22500
7702776;-0.24000
7705553;-0.23500
7708331;-0.24000
7711109;-0.23000
7713887;-0.22500
7716665;-0.21000
7719442;-0.20000
7722220;-0.20500
7724998;-0.21000
7727776;-0.19000
7730553;-0.17500
7733331;-0.16500
7736109;-0.16000
7738887;-0.16000
7741664;-0.17000
7744442;-0.15000
7747220;-0.14500
7749998;-0.12000
7752776;-0.12000
7755553;-0.13000
7758331;-0.12000
7761109;-0.12000
7763887;-0.12000
7766664;-0.10500
7769442;-0.12000
7772220;-0.12500
7774998;-0.13000
7777776;-0.13000
7780553;-0.12000
7783331;-0.12500
7786109;-0.13500
7788887;-0.13000
7791664;-0.14000
7794442;-0.11000
7797220;-0.09500
7799998;-0.10500
7802776;-0.15000
7805553;-0.17500
7808331;-0.20000
7811109;-0.20000
7813887;-0.20500
7816664;-0.23000
7819442;-0.24500
7822220;-0.25500
7824998;-0.26500
7827776;-0.27000
7830553;-0.26500
7833331;-0.25500
7836109;-0.25000
7838887;-0.26500
7841664;-0.27500
7844442;-0.28000
7847220;-0.27000
7849998;-0.27500
7852776;-0.28500
7855553;-0.29500
7858331;-0.30500
7861109;-0.30000
7863887;-0.28500
7866664;-0.27000
7869442;-0.27500
7872220;-0.28000
7874998;-0.29000
7877776;-0.28500
7880553;-0.27500
7883331;-0.27000
7886109;-0.29500
7888887;-0.32500
7891664;-0.37500
7894442;-0.40500
7897220;-0.41000
7899998;-0.43500
7902776;-0.47000
7905553;-0.50500
7908331;-0.46000
7911109;-0.34000
7913887;-0.19500
7916664;-0.05000
7919442;0.16000
7922220;0.41500
7924998;0.66000
7927776;0.85500
7930553;0.98500
7933331;1.02000
7936109;0.94500
7938887;0.76500
7941664;0.49000
7944442;0.17500
7947220;-0.12000
7949998;-0.33500
7952776;-0.45500
7955553;-0.49500
7958331;-0.46000
7961109;-0.39000
7963887;-0.33500
7966664;-0.32000
7969442;-0.33000
7972220;-0.34000
7974998;-0.33500
7977776;-0.32500
7980553;-0.32000
7983331;-0.31500
7986109;-0.32000
7988887;-0.33000
7991664;-0.34000
7994442;-0.33000
7997220;-0.31000
7999998;-0.31500
8002776;-0.31500
8005553;-0.33500
8008331;-0.34000
8011109;-0.34000
8013887;-0.34000
8016664;-0.33500
8019442;-0.33000
8022220;-0.33500
8024998;-0.34500
8027776;-0.33500
8030553;-0.33000
8033331;-0.32000
8036109;-0.32000
8038887;-0.33500
8041664;-0.33000
8044442;-0.32000
8047220;-0.31500
8049998;-0.31500
8052776;-0.30500
8055553;-0.32000
8058331;-0.32500
8061109;-0.33500
8063887;-0.32500
8066664;-0.32500
8069442;-0.34000
8072220;-0.34000
8074998;-0.35000
8077776;-0.33500
8080553;-0.33500
8083331;-0.31500
8086109;-0.32000
8088887;-0.34000
8091664;-0.33500
8094442;-0.32500
8097220;-0.31500
8099998;-0.32000
8102776;-0.32000
8105553;-0.32500
8108331;-0.33000
8111109;-0.33000
8113887;-0.32000
8116664;-0.31500
8119442;-0.31500
8122220;-0.32500
8124998;-0.32500
8127776;-0.32500
8130553;-0.31500
8133331;-0.31000
8136109;-0.32000
8138887;-0.31000
8141664;-0.32500
8144442;-0.32000
8147220;-0.32000
8149998;-0.31000
8152775;-0.32000
8155553;-0.32500
8158331;-0.34500
8161109;-0.33500
8163887;-0.31500
8166664;-0.31500
8169442;-0.32500
8172220;-0.33000
8174998;-0.34000
8177775;-0.34500
8180553;-0.33500
8183331;-0.32000
8186109;-0.32500
8188887;-0.31500
8191664;-0.33000
8194442;-0.33500
8197220;-0.32500
8199998;-0.32000
8202775;-0.31000
8205553;-0.31000
8208331;-0.32000
8211109;-0.31000
8213887;-0.29500
8216664;-0.28000
8219442;-0.27000
8222220;-0.27500
8224998;-0.27500
8227775;-0.27500
8230553;-0.25500
8233331;-0.23000
8236109;-0.24000
8238887;-0.23500
8241664;-0.25000
8244442;-0.23000
8247220;-0.23000
8249998;-0.22500
8252775;-0.21500
8255553;-0.22000
8258331;-0.23500
8261109;-0.22000
8263887;-0.22000
8266664;-0.20500
8269442;-0.20500
8272220;-0.22000
8274998;-0.24000
8277775;-0.22500
8280553;-0.23000
8283331;-0.21500
8286109;-0.22500
8288887;-0.22500
8291664;-0.22000
8294442;-0.22500
8297220;-0.21000
8299998;-0.20500
8302775;-0.21000
8305553;-0.22000
8308331;-0.23500
8311109;-0.22500
8313887;-0.22000
8316664;-0.22500
8319442;-0.22500
8322220;-0.22500
8324998;-0.25000
8327775;-0.23500
8330553;-0.24000
8333331;-0.21500
8336109;-0.22500
8338887;-0.24000
8341664;-0.25500
8344442;-0.23500
8347220;-0.23500
8349998;-0.23000
8352775;-0.23500
8355553;-0.25500
8358331;-0.27000
8361109;-0.26000
8363887;-0.25000
8366664;-0.24500
8369442;-0.26000
8372220;-0.26500
8374998;-0.27500
8377775;-0.26500
8380553;-0.26000
8383331;-0.25500
8386109;-0.26500
8388887;-0.26000
8391664;-0.27000
8394442;-0.27500
8397220;-0.27000
8399998;-0.27500
8402775;-0.27500
8405553;-0.27500
8408331;-0.29000
8411109;-0.28000
8413887;-0.27500
8416664;-0.27000
8419442;-0.26000
8422220;-0.26500
8424998;-0.28000
8427775;-0.28500
8430553;-0.27000
8433331;-0.27500
8436109;-0.26500
8438887;-0.26500
8441664;-0.28000
8444442;-0.28500
8447220;-0.27000
8449998;-0.26000
8452775;-0.27000
8455553;-0.27000
8458331;-0.28000
8461109;-0.27500
8463887;-0.26500
8466664;-0.27000
8469442;-0.26000
8472220;-0.28000
8474998;-0.27500
8477775;-0.26000
8480553;-0.26000
8483331;-0.26000
8486109;-0.25000
8488887;-0.26500
8491664;-0.28000
8494442;-0.28500
8497220;-0.27500
8499998;-0.25000
8502775;-0.26500
8505553;-0.26000
8508331;-0.26000
8511109;-0.25000
8513887;-0.23500
8516664;-0.22000
8519442;-0.22000
8522220;-0.21000
8524998;-0.22000
8527775;-0.20500
8530553;-0.19000
8533331;-0.19000
8536109;-0.18500
8538886;-0.19000
8541664;-0.18500
8544442;-0.16500
8547220;-0.15500
8549998;-0.12500
8552775;-0.13000
8555553;-0.12500
8558331;-0.15000
8561109;-0.15500
8563886;-0.15500
8566664;-0.15000
8569442;-0.15000
8572220;-0.14000
8574998;-0.15000
8577775;-0.15500
8580553;-0.14000
8583331;-0.12000
8586109;-0.11000
8588886;-0.12500
8591664;-0.17000
8594442;-0.19500
8597220;-0.19000
8599998;-0.20500
8602775;-0.22500
8605553;-0.25000
8608331;-0.26500
8611109;-0.26500
8613886;-0.27000
8616664;-0.26000
8619442;-0.28000
8622220;-0.27500
8624998;-0.29000
8627775;-0.28000
8630553;-0.28000
8633331;-0.27000
8636109;-0.28000
8638886;-0.29000
8641664;-0.29500
8644442;-0.29000
8647220;-0.28500
8649998;-0.28500
8652775;-0.28500
8655553;-0.29500
8658331;-0.30500
8661109;-0.30000
8663886;-0.30000
8666664;-0.29000
8669442;-0.30000
8672220;-0.30500
8674998;-0.32000
8677775;-0.32500
8680553;-0.31500
8683331;-0.30500
8686109;-0.33500
8688886;-0.38500
8691664;-0.44500
8694442;-0.43500
8697220;-0.45500
8699998;-0.50000
8702775;-0.49000
8705553;-0.44500
8708331;-0.34000
8711109;-0.20000
8713886;-0.05000
8716664;0.17000
8719442;0.44500
8722220;0.69000
8724998;0.83500
8727775;0.89000
8730553;0.78500
8733331;0.50500
8736109;0.13500
8738886;-0.19000
8741664;-0.39000
8744442;-0.47000
8747220;-0.46500
8749998;-0.40500
8752775;-0.35500
8755553;-0.34500
8758331;-0.37000
8761109;-0.37000
8763886;-0.34500
8766664;-0.34000
8769442;-0.35500
8772220;-0.35500
8774998;-0.35000
8777775;-0.35000
8780553;-0.33500
8783331;-0.33000
8786109;-0.33500
8788886;-0.33500
8791664;-0.34500
8794442;-0.35500
8797220;-0.34000
8799998;-0.33500
8802775;-0.33000
8805553;-0.34500
8808331;-0.35500
8811109;-0.35500
8813886;-0.35000
8816664;-0.35000
8819442;-0.36000
8822220;-0.36500
8824998;-0.36500
8827775;-0.37000
8830553;-0.36000
8833331;-0.34000
8836109;-0.35000
8838886;-0.34500
8841664;-0.37000
8844442;-0.36500
8847220;-0.35500
8849998;-0.33000
8852775;-0.34000
8855553;-0.34000
8858331;-0.34500
8861109;-0.35500
8863886;-0.34500
8866664;-0.33500
8869442;-0.33500
8872220;-0.35000
8874998;-0.37000
8877775;-0.36000
8880553;-0.35500
8883331;-0.35000
8886109;-0.35000
8888886;-0.36500
8891664;-0.38000
8894442;-0.36500
8897220;-0.36000
8899998;-0.36000
8902775;-0.34500
8905553;-0.35500
8908331;-0.38000
8911109;-0.37000
8913886;-0.35500
8916664;-0.35000
8919442;-0.34000
8922220;-0.34000
8924998;-0.36000
8927775;-0.35500
8930553;-0.34500
8933331;-0.34000
8936109;-0.34000
8938886;-0.34500
8941664;-0.36500
8944442;-0.36000
8947220;-0.36500
8949997;-0.34500
8952775;-0.35000
8955553;-0.35500
8958331;-0.37500
8961109;-0.36500
8963886;-0.37000
8966664;-0.36000
8969442;-0.38500
8972220;-0.40000
8974997;-0.40000
8977775;-0.40500
8980553;-0.40000
8983331;-0.38500
8986109;-0.39500
8988886;-0.40500
8991664;-0.41500
8994442;-0.39500
8997220;-0.39500
8999997;-0.37500
9002775;-0.37500
9005553;-0.37000
9008331;-0.37500
9011109;-0.36000
9013886;-0.33500
9016664;-0.32500
9019442;-0.31000
9022220;-0.31000
9024997;-0.31000
9027775;-0.29500
9030553;-0.29000
9033331;-0.27500
9036109;-0.27000
9038886;-0.27500
9041664;-0.28500
9044442;-0.27500
9047220;-0.25500
9049997;-0.23500
9052775;-0.23500
9055553;-0.24000
9058331;-0.25000
9061109;-0.23500
9063886;-0.22000
9066664;-0.21500
9069442;-0.22000
9072220;-0.22500
9074997;-0.24500
9077775;-0.23000
9080553;-0.22500
9083331;-0.21500
9086109;-0.21500
9088886;-0.22000
9091664;-0.23500
9094442;-0.23500
9097220;-0.23000
9099997;-0.22000
9102775;-0.23000
9105553;-0.23000
9108331;-0.23000
9111109;-0.23500
9113886;-0.23000
9116664;-0.23000
9119442;-0.23500
9122220;-0.24500
9124997;-0.26000
9127775;-0.25500
9130553;-0.24000
9133331;-0.23000
9136109;-0.23500
9138886;-0.24500
9141664;-0.25500
9144442;-0.24000
9147220;-0.24000
9149997;-0.23500
9152775;-0.24000
9155553;-0.24000
9158331;-0.26000
9161109;-0.25000
9163886;-0.24000
9166664;-0.23500
9169442;-0.25500
9172220;-0.26000
9174997;-0.26500
9177775;-0.27000
9180553;-0.26500
9183331;-0.24500
9186109;-0.24500
9188886;-0.26500
9191664;-0.27000
9194442;-0.26000
9197220;-0.26000
9199997;-0.24500
9202775;-0.25000
9205553;-0.25500
9208331;-0.27500
9211109;-0.27000
9213886;-0.25500
9216664;-0.24500
9219442;-0.25500
9222220;-0.26500
9224997;-0.26500
9227775;-0.26500
9230553;-0.25500
9233331;-0.24000
9236109;-0.24000
9238886;-0.25000
9241664;-0.26000
9244442;-0.26000
9247220;-0.24500
9249997;-0.25000
9252775;-0.24000
9255553;-0.25000
9258331;-0.26000
9261109;-0.25500
9263886;-0.24500
9266664;-0.25000
9269442;-0.24000
9272220;-0.24500
9274997;-0.26000
9277775;-0.26500
9280553;-0.26000
9283331;-0.25500
9286109;-0.24000
9288886;-0.25500
9291664;-0.26500
9294442;-0.26000
9297220;-0.24000
9299997;-0.23000
9302775;-0.23000
9305553;-0.22000
9308331;-0.22000
9311109;-0.20000
9313886;-0.18500
9316664;-0.18000
9319442;-0.17500
9322220;-0.17500
9324997;-0.18000
9327775;-0.17000
9330553;-0.17000
9333331;-0.14500
9336108;-0.13500
9338886;-0.13500
9341664;-0.13500
9344442;-0.12500
9347220;-0.12000
9349997;-0.11000
9352775;-0.10500
9355553;-0.12500
9358331;-0.14000
9361108;-0.14500
9363886;-0.14500
9366664;-0.12500
9369442;-0.12000
9372220;-0.11500
9374997;-0.13000
9377775;-0.12000
9380553;-0.09500
9383331;-0.08000
9386108;-0.08000
9388886;-0.11000
9391664;-0.15500
9394442;-0.18000
9397220;-0.17500
9399997;-0.18500
9402775;-0.19500
9405553;-0.21500
9408331;-0.23000
9411108;-0.24500
9413886;-0.24000
9416664;-0.24000
9419442;-0.25000
9422220;-0.25500
9424997;-0.26000
9427775;-0.26000
9430553;-0.25500
9433331;-0.24000
9436108;-0.26000
9438886;-0.25500
9441664;-0.27000
9444442;-0.27000
9447220;-0.25500
9449997;-0.24500
9452775;-0.24500
9455553;-0.27000
9458331;-0.26500
9461108;-0.26500
9463886;-0.26500
9466664;-0.26000
9469442;-0.25000
9472220;-0.25500
9474997;-0.26500
9477775;-0.27500
9480553;-0.26000
9483331;-0.28000
9486108;-0.31000
9488886;-0.35500
9491664;-0.39000
9494442;-0.40000
9497220;-0.42500
9499997;-0.46000
9502775;-0.47000
9505553;-0.43000
9508331;-0.33000
9511108;-0.19500
9513886;-0.07000
9516664;0.08500
9519442;0.30500
9522220;0.53000
9524997;0.72000
9527775;0.85000
9530553;0.94000
9533331;1.02000
9536108;1.05500
9538886;0.97000
9541664;0.73500
9544442;0.38500
9547220;0.02500
9549997;-0.24000
9552775;-0.39500
9555553;-0.43500
9558331;-0.39500
9561108;-0.34500
9563886;-0.31500
9566664;-0.30000
9569442;-0.31000
9572220;-0.31000
9574997;-0.32000
9577775;-0.31500
9580553;-0.30500
9583331;-0.30500
9586108;-0.30500
9588886;-0.30000
9591664;-0.31500
9594442;-0.31500
9597220;-0.31500
9599997;-0.30000
9602775;-0.30500
9605553;-0.31000
9608331;-0.32500
9611108;-0.32000
9613886;-0.31000
9616664;-0.29500
9619442;-0.30500
9622220;-0.31500
9624997;-0.32500
9627775;-0.31500
9630553;-0.31000
9633331;-0.31500
9636108;-0.32000
9638886;-0.32500
9641664;-0.33000
9644442;-0.33000
9647220;-0.32000
9649997;-0.31000
9652775;-0.31500
9655553;-0.32000
9658331;-0.33000
9661108;-0.31500
9663886;-0.31500
9666664;-0.32000
9669442;-0.31000
9672220;-0.32500
9674997;-0.32500
9677775;-0.31500
9680553;-0.30500
9683331;-0.31000
9686108;-0.31000
9688886;-0.31500
9691664;-0.33000
9694442;-0.32000
9697220;-0.30500
9699997;-0.30500
9702775;-0.32500
9705553;-0.32500
9708331;-0.32500
9711108;-0.31000
9713886;-0.31000
9716664;-0.31500
9719442;-0.31000
9722220;-0.32000
9724997;-0.32500
9727775;-0.32000
9730553;-0.31500
9733331;-0.30500
9736108;-0.30000
9738886;-0.31500
9741664;-0.31500
9744442;-0.31000
9747219;-0.30500
9749997;-0.28500
9752775;-0.29500
9755553;-0.31000
9758331;-0.30500
9761108;-0.30500
9763886;-0.29000
9766664;-0.30000
9769442;-0.29500
9772219;-0.31000
9774997;-0.32000
9777775;-0.33000
9780553;-0.32500
9783331;-0.32000
9786108;-0.32000
9788886;-0.32000
9791664;-0.33000
9794442;-0.33500
9797219;-0.33000
9799997;-0.32500
9802775;-0.32000
9805553;-0.33500
9808331;-0.34500
9811108;-0.34500
9813886;-0.32500
9816664;-0.32000
9819442;-0.32000
9822219;-0.31500
9824997;-0.33000
9827775;-0.31500
9830553;-0.30500
9833331;-0.28500
9836108;-0.29000
9838886;-0.29000
9841664;-0.27500
9844442;-0.27500
9847219;-0.27000
9849997;-0.25000
9852775;-0.24500
9855553;-0.25000
9858331;-0.24000
9861108;-0.23500
9863886;-0.21500
9866664;-0.22000
9869442;-0.21000
9872219;-0.22000
9874997;-0.22500
9877775;-0.22500
9880553;-0.20000
9883331;-0.19500
9886108;-0.19500
9888886;-0.20000
9891664;-0.21000
9894442;-0.21000
9897219;-0.21000
9899997;-0.18500
9902775;-0.20000
9905553;-0.21000
9908331;-0.21000
9911108;-0.20500
9913886;-0.20000
9916664;-0.20500
9919442;-0.20000
9922219;-0.20500
9924997;-0.21500
9927775;-0.21500
9930553;-0.20000
9933331;-0.21000
9936108;-0.21500
9938886;-0.21500
9941664;-0.23500
9944442;-0.23000
9947219;-0.22500
9949997;-0.21500
9952775;-0.21500
9955553;-0.22500
9958331;-0.23500
9961108;-0.23500
9963886;-0.23000
9966664;-0.21500
9969442;-0.21500
9972219;-0.22000
9974997;-0.24000
9977775;-0.23000
9980553;-0.22500
9983331;-0.22000
9986108;-0.21000
9988886;-0.23000
9991664;-0.23500
9994442;-0.23500
9997219;-0.24000
9999997;-0.22000
10002775;-0.22000
10005553;-0.22000
10008331;-0.24500
10011108;-0.24500
10013886;-0.23500
10016664;-0.22500
10019442;-0.23000
10022219;-0.24000
10024997;-0.26500
10027775;-0.25500
10030553;-0.25000
10033331;-0.23500
10036108;-0.25000
10038886;-0.25000
10041664;-0.26000
10044442;-0.25000
10047219;-0.24500
10049997;-0.23000
10052775;-0.23000
10055553;-0.24500
10058331;-0.25500
10061108;-0.26500
10063886;-0.24500
10066664;-0.24000
10069442;-0.23500
10072219;-0.24000
10074997;-0.24500
10077775;-0.25500
10080553;-0.24000
10083331;-0.23500
10086108;-0.24500
10088886;-0.25000
10091664;-0.25500
10094442;-0.25500
10097219;-0.25000
10099997;-0.25000
10102775;-0.24500
10105553;-0.24500
10108331;-0.25000
10111108;-0.24500
10113886;-0.23500
10116664;-0.22000
10119442;-0.22000
10122219;-0.21500
10124997;-0.21500
10127775;-0.21000
10130553;-0.19000
10133330;-0.18000
10136108;-0.18000
10138886;-0.17000
10141664;-0.17500
10144442;-0.16500
10147219;-0.15000
10149997;-0.14000
10152775;-0.13000
10155553;-0.13500
10158330;-0.13500
10161108;-0.13500
10163886;-0.11000
10166664;-0.10500
10169442;-0.10000
10172219;-0.12500
10174997;-0.13500
10177775;-0.15500
10180553;-0.14000
10183330;-0.13000
10186108;-0.11500
10188886;-0.13500
10191664;-0.14500
10194442;-0.13000
10197219;-0.12500
10199997;-0.09000
10202775;-0.07500
10205553;-0.08500
10208330;-0.11500
10211108;-0.14500
10213886;-0.17000
10216664;-0.16500
10219442;-0.18000
10222219;-0.18500
10224997;-0.22500
10227775;-0.22500
10230553;-0.22500
10233330;-0.22500
10236108;-0.23500
10238886;-0.25000
10241664;-0.27000
10244442;-0.26500
10247219;-0.25000
10249997;-0.25500
10252775;-0.25500
10255553;-0.26500
10258330;-0.27000
10261108;-0.28000
10263886;-0.28000
10266664;-0.26000
10269442;-0.28000
10272219;-0.28500
10274997;-0.29500
10277775;-0.28500
10280553;-0.27500
10283330;-0.28000
10286108;-0.28000
10288886;-0.28500
10291664;-0.29000
10294442;-0.28500
10297219;-0.28500
10299997;-0.27500
10302775;-0.27000
10305553;-0.28500
10308330;-0.31000
10311108;-0.32000
10313886;-0.32500
10316664;-0.35500
10319442;-0.38500
10322219;-0.41500
10324997;-0.43500
10327775;-0.48000
10330553;-0.50000
10333330;-0.46500
10336108;-0.38000
10338886;-0.27000
10341664;-0.17500
10344442;-0.02000
10347219;0.18500
10349997;0.46000
10352775;0.69000
10355553;0.82000
10358330;0.85000
10361108;0.75500
10363886;0.54500
10366664;0.22500
10369442;-0.09000
10372219;-0.33000
10374997;-0.44000
10377775;-0.44000
10380553;-0.40000
10383330;-0.35000
10386108;-0.32500
10388886;-0.33000
10391664;-0.35000
10394442;-0.34500
10397219;-0.33000
10399997;-0.32000
10402775;-0.31500
10405553;-0.32500
10408330;-0.33500
10411108;-0.34000
10413886;-0.32500
10416664;-0.32500
10419442;-0.31500
10422219;-0.32000
10424997;-0.33000
10427775;-0.33000
10430553;-0.32500
10433330;-0.31500
10436108;-0.32500
10438886;-0.34000
10441664;-0.34500
10444442;-0.34000
10447219;-0.33500
10449997;-0.33000
10452775;-0.33000
10455553;-0.34000
10458330;-0.35500
10461108;-0.34500
10463886;-0.35000
10466664;-0.32500
10469442;-0.33000
10472219;-0.33500
10474997;-0.33500
10477775;-0.33500
10480553;-0.33500
10483330;-0.32500
10486108;-0.32500
10488886;-0.33500
10491664;-0.35000
10494442;-0.33500
10497219;-0.33000
10499997;-0.32000
10502775;-0.32500
10505553;-0.32000
10508330;-0.35500
10511108;-0.34500
10513886;-0.32000
10516664;-0.31000
10519441;-0.31500
10522219;-0.33000
10524997;-0.34000
10527775;-0.34000
10530553;-0.32500
10533330;-0.31500
10536108;-0.32000
10538886;-0.32500
10541664;-0.34000
10544441;-0.34000
10547219;-0.32500
10549997;-0.32000
10552775;-0.31500
10555553;-0.32000
10558330;-0.34000
10561108;-0.33000
10563886;-0.32000
10566664;-0.31500
10569441;-0.31500
10572219;-0.32000
10574997;-0.32500
10577775;-0.33000
10580553;-0.31500
10583330;-0.31000
10586108;-0.31500
10588886;-0.32000
10591664;-0.33000
10594441;-0.32500
10597219;-0.33500
10599997;-0.33500
10602775;-0.33000
10605553;-0.34500
10608330;-0.33500
10611108;-0.34500
10613886;-0.32500
10616664;-0.32500
10619441;-0.33000
10622219;-0.33000
10624997;-0.34000
10627775;-0.34000
10630553;-0.34500
10633330;-0.33000
10636108;-0.33000
10638886;-0.33500
10641664;-0.34500
10644441;-0.34500
10647219;-0.33000
10649997;-0.32000
10652775;-0.31500
10655553;-0.32000
10658330;-0.32000
10661108;-0.32000
10663886;-0.30000
10666664;-0.28000
10669441;-0.27000
10672219;-0.27500
10674997;-0.27500
10677775;-0.26500
10680553;-0.26500
10683330;-0.25500
10686108;-0.25500
10688886;-0.25000
10691664;-0.25500
10694441;-0.24500
10697219;-0.23000
10699997;-0.23500
10702775;-0.24000
10705553;-0.24000
10708330;-0.25500
10711108;-0.25500
10713886;-0.24000
10716664;-0.22500
10719441;-0.22500
10722219;-0.23000
10724997;-0.25000
10727775;-0.25000
10730553;-0.23500
10733330;-0.23500
10736108;-0.23000
10738886;-0.25000
10741664;-0.24500
10744441;-0.24000
10747219;-0.23500
10749997;-0.22500
10752775;-0.24000
10755553;-0.24500
10758330;-0.24000
10761108;-0.24500
10763886;-0.25000
10766664;-0.24500
10769441;-0.25000
10772219;-0.26000
10774997;-0.27000
10777775;-0.27500
10780553;-0.26000
10783330;-0.26000
10786108;-0.26500
10788886;-0.26000
10791664;-0.26000
10794441;-0.26500
10797219;-0.26000
10799997;-0.25500
10802775;-0.26000
10805553;-0.26500
10808330;-0.26000
10811108;-0.26000
10813886;-0.25000
10816664;-0.25500
10819441;-0.25500
10822219;-0.26500
10824997;-0.27000
10827775;-0.27000
10830553;-0.26000
10833330;-0.26000
10836108;-0.26500
10838886;-0.27000
10841664;-0.28500
10844441;-0.29500
10847219;-0.28500
10849997;-0.28000
10852775;-0.28500
10855553;-0.29000
10858330;-0.29000
10861108;-0.29500
10863886;-0.28500
10866664;-0.26500
10869441;-0.28500
10872219;-0.29000
10874997;-0.30000
10877775;-0.30000
10880553;-0.29500
10883330;-0.28000
10886108;-0.28500
10888886;-0.29000
10891664;-0.29000
10894441;-0.29500
10897219;-0.28500
10899997;-0.27500
10902775;-0.27000
10905553;-0.27500
10908330;-0.27500
10911108;-0.29000
10913886;-0.28500
10916664;-0.28000
10919441;-0.28500
10922219;-0.28500
10924997;-0.29000
10927775;-0.29500
10930552;-0.29500
10933330;-0.28000
10936108;-0.28000
10938886;-0.29000
10941664;-0.29000
10944441;-0.28000
10947219;-0.26500
10949997;-0.24000
10952775;-0.23500
10955552;-0.25500
10958330;-0.24500
10961108;-0.23500
10963886;-0.23000
10966664;-0.21000
10969441;-0.20000
10972219;-0.20500
10974997;-0.21000
10977775;-0.20000
10980552;-0.19000
10983330;-0.18000
10986108;-0.17000
10988886;-0.17500
10991664;-0.18500
10994441;-0.18500
10997219;-0.18000
10999997;-0.17500
11002775;-0.19000
11005552;-0.18500
11008330;-0.18000
11011108;-0.19000
11013886;-0.18500
11016664;-0.17000
11019441;-0.16000
11022219;-0.15500
11024997;-0.17000
11027775;-0.19500
11030552;-0.22500
11033330;-0.23000
11036108;-0.25000
11038886;-0.26000
11041664;-0.27500
11044441;-0.29500
11047219;-0.30500
11049997;-0.30000
11052775;-0.31000
11055552;-0.33500
11058330;-0.33000
11061108;-0.33000
11063886;-0.33000
11066664;-0.31500
11069441;-0.32000
11072219;-0.34000
11074997;-0.36500
11077775;-0.35000
11080552;-0.35000
11083330;-0.35000
11086108;-0.35000
11088886;-0.34000
11091664;-0.35000
11094441;-0.35000
11097219;-0.35000
11099997;-0.33000
11102775;-0.33000
11105552;-0.33500
11108330;-0.35000
11111108;-0.35500
11113886;-0.33500
11116664;-0.33500
11119441;-0.35000
11122219;-0.37000
11124997;-0.41000
11127775;-0.44500
11130552;-0.45500
11133330;-0.45000
11136108;-0.45500
11138886;-0.48500
11141664;-0.54000
11144441;-0.58500
11147219;-0.59500
11149997;-0.54500
11152775;-0.46000
11155552;-0.35500
11158330;-0.23000
11161108;-0.04000
11163886;0.21000
11166664;0.48000
11169441;0.70000
11172219;0.79500
11174997;0.80000
11177775;0.62500
11180552;0.33000
11183330;0.02000
11186108;-0.26000
11188886;-0.42000
11191664;-0.48000
11194441;-0.47500
11197219;-0.42500
11199997;-0.39500
11202775;-0.38500
11205552;-0.39500
11208330;-0.40000
11211108;-0.38000
11213886;-0.38000
11216664;-0.38000
11219441;-0.38000
11222219;-0.39000
11224997;-0.41500
11227775;-0.41000
11230552;-0.40000
11233330;-0.38500
11236108;-0.39500
11238886;-0.38500
11241664;-0.38500
11244441;-0.38500
11247219;-0.38000
11249997;-0.36500
11252775;-0.37000
11255552;-0.38000
11258330;-0.40000
11261108;-0.39500
11263886;-0.39500
11266664;-0.38500
11269441;-0.38500
11272219;-0.40000
11274997;-0.40000
11277775;-0.40500
11280552;-0.40000
11283330;-0.39500
11286108;-0.39500
11288886;-0.41500
11291664;-0.41500
11294441;-0.42500
11297219;-0.41000
11299997;-0.40500
11302775;-0.40000
11305552;-0.41000
11308330;-0.42000
11311108;-0.40500
11313886;-0.40000
11316663;-0.39000
11319441;-0.39000
11322219;-0.40000
11324997;-0.41000
11327775;-0.40000
11330552;-0.40500
11333330;-0.39000
11336108;-0.39500
11338886;-0.40000
11341663;-0.41500
11344441;-0.41500
11347219;-0.39500
11349997;-0.37500
11352775;-0.39000
11355552;-0.38500
11358330;-0.40500
11361108;-0.40500
11363886;-0.40500
11366663;-0.39000
11369441;-0.39500
11372219;-0.40500
11374997;-0.40000
11377775;-0.39500
11380552;-0.39500
11383330;-0.38500
11386108;-0.39000
11388886;-0.40500
11391663;-0.41000
11394441;-0.42000
11397219;-0.41500
11399997;-0.40000
11402775;-0.41000
11405552;-0.41500
11408330;-0.43500
11411108;-0.44000
11413886;-0.43000
11416663;-0.43000
11419441;-0.43000
11422219;-0.43000
11424997;-0.43000
11427775;-0.44000
11430552;-0.43000
11433330;-0.43000
11436108;-0.43000
11438886;-0.44000
11441663;-0.45000
11444441;-0.44500
11447219;-0.42500
11449997;-0.40500
11452775;-0.40500
11455552;-0.40000
11458330;-0.39000
11461108;-0.39500
11463886;-0.37500
11466663;-0.35500
11469441;-0.34500
11472219;-0.34000
11474997;-0.34000
11477775;-0.33000
11480552;-0.31500
11483330;-0.30500
11486108;-0.28500
11488886;-0.28000
11491663;-0.29500
11494441;-0.29000
11497219;-0.28000
11499997;-0.27000
11502775;-0.27000
11505552;-0.28000
11508330;-0.29000
11511108;-0.29500
11513886;-0.29500
11516663;-0.28000
11519441;-0.29000
11522219;-0.30000
11524997;-0.30500
11527775;-0.28500
11530552;-0.28000
11533330;-0.26500
11536108;-0.28500
11538886;-0.28500
11541663;-0.29000
11544441;-0.30000
11547219;-0.29000
11549997;-0.28500
11552775;-0.28500
11555552;-0.29000
11558330;-0.30500
11561108;-0.30500
11563886;-0.30500
11566663;-0.29000
11569441;-0.29000
11572219;-0.30500
11574997;-0.31000
11577775;-0.30000
11580552;-0.30000
11583330;-0.28500
11586108;-0.29000
11588886;-0.30000
11591663;-0.30500
11594441;-0.31000
11597219;-0.31500
11599997;-0.31000
11602775;-0.31000
11605552;-0.33000
11608330;-0.32500
11611108;-0.33500
11613886;-0.32000
11616663;-0.32000
11619441;-0.32500
11622219;-0.32000
11624997;-0.34000
11627775;-0.34500
11630552;-0.33000
11633330;-0.31000
11636108;-0.31500
11638886;-0.32500
11641663;-0.33500
11644441;-0.34000
11647219;-0.32500
11649997;-0.31000
11652775;-0.32000
11655552;-0.32000
11658330;-0.33000
11661108;-0.33000
11663886;-0.32500
11666663;-0.32500
11669441;-0.32500
11672219;-0.32500
11674997;-0.32500
11677775;-0.33500
11680552;-0.31500
11683330;-0.31000
11686108;-0.31000
11688886;-0.32500
11691663;-0.32000
11694441;-0.32500
11697219;-0.32000
11699997;-0.30500
11702775;-0.31000
11705552;-0.32500
11708330;-0.33000
11711108;-0.33500
11713886;-0.31500
11716663;-0.29000
11719441;-0.29500
11722219;-0.30000
11724997;-0.30000
11727774;-0.29000
11730552;-0.27500
11733330;-0.27000
11736108;-0.26000
11738886;-0.25500
11741663;-0.26000
11744441;-0.27000
11747219;-0.24500
11749997;-0.23500
11752774;-0.22500
11755552;-0.22500
11758330;-0.22000
11761108;-0.22000
11763886;-0.20500
11766663;-0.18500
11769441;-0.19000
11772219;-0.19500
11774997;-0.19500
11777774;-0.21000
11780552;-0.20500
11783330;-0.20000
11786108;-0.18000
11788886;-0.19000
11791663;-0.20500
11794441;-0.19500
11797219;-0.17000
11799997;-0.16000
11802774;-0.18000
11805552;-0.22500
11808330;-0.25000
11811108;-0.26500
11813886;-0.28000
11816663;-0.28500
11819441;-0.30000
11822219;-0.30500
11824997;-0.32500
11827774;-0.32500
11830552;-0.32500
11833330;-0.31000
11836108;-0.31000
11838886;-0.32000
11841663;-0.33500
11844441;-0.33500
11847219;-0.33000
11849997;-0.32000
11852774;-0.32500
11855552;-0.33500
11858330;-0.34000
11861108;-0.33500
11863886;-0.33000
11866663;-0.32000
11869441;-0.32500
11872219;-0.33000
11874997;-0.33500
11877774;-0.34500
11880552;-0.33500
11883330;-0.34000
11886108;-0.36000
11888886;-0.40500
11891663;-0.45500
11894441;-0.46500
11897219;-0.48000
11899997;-0.51500
11902774;-0.52500
11905552;-0.47500
11908330;-0.37000
11911108;-0.22000
11913886;-0.04000
11916663;0.19000
11919441;0.46500
11922219;0.72000
11924997;0.89000
11927774;0.91500
11930552;0.77500
11933330;0.44500
11936108;0.01500
11938886;-0.31000
11941663;-0.46500
11944441;-0.49500
11947219;-0.46000
11949997;-0.40000
11952774;-0.36500
11955552;-0.35500
11958330;-0.35000
11961108;-0.37500
11963886;-0.36500
11966663;-0.36000
11969441;-0.36000
11972219;-0.36500
11974997;-0.36500
11977774;-0.35500
11980552;-0.35500
11983330;-0.34500
11986108;-0.34500
11988886;-0.35500
11991663;-0.36000
11994441;-0.35000
11997219;-0.36000
11999997;-0.34500
12002774;-0.34000
12005552;-0.34500
12008330;-0.35500
12011108;-0.36000
12013886;-0.35000
12016663;-0.35000
12019441;-0.35000
12022219;-0.36000
12024997;-0.36000
12027774;-0.36000
12030552;-0.35000
12033330;-0.33000
12036108;-0.35000
12038886;-0.34000
12041663;-0.36000
12044441;-0.35500
12047219;-0.34000
12049997;-0.33000
12052774;-0.34000
12055552;-0.34500
12058330;-0.35500
12061108;-0.35500
12063886;-0.33500
12066663;-0.32500
12069441;-0.33000
12072219;-0.34500
12074997;-0.34500
12077774;-0.34500
12080552;-0.35000
12083330;-0.32500
12086108;-0.34000
12088886;-0.35000
12091663;-0.35500
12094441;-0.35500
12097219;-0.34500
12099997;-0.34500
12102774;-0.34000
12105552;-0.35000
12108330;-0.35000
12111108;-0.35500
12113885;-0.34000
12116663;-0.32500
12119441;-0.33000
12122219;-0.35000
12124997;-0.34500
12127774;-0.33500
12130552;-0.33000
12133330;-0.33500
12136108;-0.33500
12138885;-0.33000
12141663;-0.35000
12144441;-0.35000
12147219;-0.33000
12149997;-0.34000
12152774;-0.35000
12155552;-0.35000
12158330;-0.36500
12161108;-0.36500
12163885;-0.36000
12166663;-0.35500
12169441;-0.36000
12172219;-0.37000
12174997;-0.37000
12177774;-0.37500
12180552;-0.36500
12183330;-0.36000
12186108;-0.36000
12188885;-0.37500
12191663;-0.37000
12194441;-0.37500
12197219;-0.37500
12199997;-0.35000
12202774;-0.35500
12205552;-0.35500
12208330;-0.34500
12211108;-0.34000
12213885;-0.32500
12216663;-0.31000
12219441;-0.30500
12222219;-0.29000
12224997;-0.30000
12227774;-0.28500
12230552;-0.26000
12233330;-0.23500
12236108;-0.24000
12238885;-0.24000
12241663;-0.25500
12244441;-0.24500
12247219;-0.22500
12249997;-0.23000
12252774;-0.23000
12255552;-0.22000
12258330;-0.23500
12261108;-0.23500
12263885;-0.22000
12266663;-0.22000
12269441;-0.22000
12272219;-0.22000
12274997;-0.23000
12277774;-0.23500
12280552;-0.22000
12283330;-0.21500
12286108;-0.22000
12288885;-0.22500
12291663;-0.23500
12294441;-0.22500
12297219;-0.22500
12299997;-0.21000
12302774;-0.22000
12305552;-0.22000
12308330;-0.22500
12311108;-0.23500
12313885;-0.22500
12316663;-0.21500
12319441;-0.22500
12322219;-0.22500
12324997;-0.23000
12327774;-0.23500
12330552;-0.22000
12333330;-0.21500
12336108;-0.21500
12338885;-0.23500
12341663;-0.25000
12344441;-0.23500
12347219;-0.23500
12349997;-0.22000
12352774;-0.24000
12355552;-0.23000
12358330;-0.24000
12361108;-0.24500
12363885;-0.23500
12366663;-0.22500
12369441;-0.22500
12372219;-0.23000
12374997;-0.25000
12377774;-0.26500
12380552;-0.26000
12383330;-0.24500
12386108;-0.25000
12388885;-0.25000
12391663;-0.26000
12394441;-0.26000
12397219;-0.25500
12399997;-0.25000
12402774;-0.24000
12405552;-0.25500
12408330;-0.25500
12411108;-0.25500
12413885;-0.24500
12416663;-0.23500
12419441;-0.24500
12422219;-0.24500
12424997;-0.24500
12427774;-0.24500
12430552;-0.24500
12433330;-0.23500
12436108;-0.24500
12438885;-0.24000
12441663;-0.24500
12444441;-0.26000
12447219;-0.23500
12449997;-0.23000
12452774;-0.23500
12455552;-0.23500
12458330;-0.24000
12461108;-0.25500
12463885;-0.23500
12466663;-0.21500
12469441;-0.21000
12472219;-0.20500
12474997;-0.21000
12477774;-0.20500
12480552;-0.18500
12483330;-0.16500
12486108;-0.16500
12488885;-0.17000
12491663;-0.17000
12494441;-0.16500
12497219;-0.15500
12499996;-0.14000
12502774;-0.13500
12505552;-0.12500
12508330;-0.13500
12511108;-0.12500
12513885;-0.11500
12516663;-0.11000
12519441;-0.12000
12522219;-0.14500
12524996;-0.14500
12527774;-0.15000
12530552;-0.13000
12533330;-0.11500
12536108;-0.11500
12538885;-0.10000
12541663;-0.08000
12544441;-0.10000
12547219;-0.13000
12549996;-0.14500
12552774;-0.16500
12555552;-0.18000
12558330;-0.18500
12561108;-0.19000
12563885;-0.21000
12566663;-0.21500
12569441;-0.23000
12572219;-0.23000
12574996;-0.25000
12577774;-0.26500
12580552;-0.26500
12583330;-0.26000
12586108;-0.26000
12588885;-0.26000
12591663;-0.28000
12594441;-0.27000
12597219;-0.27000
12599996;-0.27000
12602774;-0.26500
12605552;-0.28000
12608330;-0.29000
12611108;-0.29000
12613885;-0.28500
12616663;-0.26500
12619441;-0.28500
12622219;-0.27500
12624996;-0.29000
12627774;-0.29500
12630552;-0.28000
12633330;-0.26000
12636108;-0.27500
12638885;-0.28500
12641663;-0.28500
12644441;-0.32000
12647219;-0.33000
12649996;-0.38000
12652774;-0.40000
12655552;-0.44500
12658330;-0.49000
12661108;-0.50500
12663885;-0.44000
12666663;-0.32000
12669441;-0.18000
12672219;-0.02500
12674996;0.19000
12677774;0.46500
12680552;0.72500
12683330;0.88000
12686108;0.89500
12688885;0.73500
12691663;0.40000
12694441;-0.01500
12697219;-0.29000
12699996;-0.41000
12702774;-0.40500
12705552;-0.37000
12708330;-0.34000
12711108;-0.31500
12713885;-0.31000
12716663;-0.30000
12719441;-0.31000
12722219;-0.32000
12724996;-0.31500
12727774;-0.33500
12730552;-0.32000
12733330;-0.30500
12736108;-0.31000
12738885;-0.31000
12741663;-0.32000
12744441;-0.32500
12747219;-0.30500
12749996;-0.30500
12752774;-0.31000
12755552;-0.31500
12758330;-0.31500
12761108;-0.32000
12763885;-0.30000
12766663;-0.31000
12769441;-0.31000
12772219;-0.31000
12774996;-0.31500
12777774;-0.32000
12780552;-0.30500
12783330;-0.29500
12786108;-0.30500
12788885;-0.30500
12791663;-0.32500
12794441;-0.31500
12797219;-0.31500
12799996;-0.31000
12802774;-0.30500
12805552;-0.31500
12808330;-0.31500
12811108;-0.31000
12813885;-0.30000
12816663;-0.29000
12819441;-0.30500
12822219;-0.31500
12824996;-0.31500
12827774;-0.31000
12830552;-0.30000
12833330;-0.29500
12836108;-0.29000
12838885;-0.30000
12841663;-0.31500
12844441;-0.31000
12847219;-0.30000
12849996;-0.29500
12852774;-0.30000
12855552;-0.31000
12858330;-0.32000
12861108;-0.32000
12863885;-0.29500
12866663;-0.29500
12869441;-0.30000
12872219;-0.30000
12874996;-0.31000
12877774;-0.31000
12880552;-0.29000
12883330;-0.28000
12886108;-0.28500
12888885;-0.29500
12891663;-0.30500
12894441;-0.30500
12897219;-0.30000
12899996;-0.28000
12902774;-0.28500
12905552;-0.29500
12908330;-0.30000
12911107;-0.30000
12913885;-0.29000
12916663;-0.28500
12919441;-0.30000
12922219;-0.29500
12924996;-0.32000
12927774;-0.31500
12930552;-0.31000
12933330;-0.31000
12936107;-0.30500
12938885;-0.31000
12941663;-0.31500
12944441;-0.32000
12947219;-0.31000
12949996;-0.30500
12952774;-0.30500
12955552;-0.31500
12958330;-0.31000
12961107;-0.31000
12963885;-0.29000
12966663;-0.28000
12969441;-0.27500
12972219;-0.27500
12974996;-0.27500
12977774;-0.28000
12980552;-0.25000
12983330;-0.25000
12986107;-0.23500
12988885;-0.24000
12991663;-0.24000
12994441;-0.23500
12997219;-0.21500
12999996;-0.20500
13002774;-0.20500
13005552;-0.21000
13008330;-0.21500
13011107;-0.21500
13013885;-0.20500
13016663;-0.20000
13019441;-0.20500
13022219;-0.20500
13024996;-0.21500
13027774;-0.21500
13030552;-0.21500
13033330;-0.20500
13036107;-0.21000
13038885;-0.21000
13041663;-0.21500
13044441;-0.21500
13047219;-0.21500
13049996;-0.19500
13052774;-0.20500
13055552;-0.21000
13058330;-0.21500
13061107;-0.22000
13063885;-0.20500
13066663;-0.19000
13069441;-0.20500
13072219;-0.21000
13074996;-0.22500
13077774;-0.23000
13080552;-0.22000
13083330;-0.21500
13086107;-0.21000
13088885;-0.22500
13091663;-0.22500
13094441;-0.23500
13097219;-0.23000
13099996;-0.22500
13102774;-0.23000
13105552;-0.22000
13108330;-0.23500
13111107;-0.24000
13113885;-0.23500
13116663;-0.22500
13119441;-0.22500
13122219;-0.24500
13124996;-0.24500
13127774;-0.24500
13130552;-0.24500
13133330;-0.23000
13136107;-0.23500
13138885;-0.25500
13141663;-0.26000
13144441;-0.26500
13147219;-0.25000
13149996;-0.24500
13152774;-0.24500
13155552;-0.25500
13158330;-0.26000
13161107;-0.25000
13163885;-0.25500
13166663;-0.24000
13169441;-0.24000
13172219;-0.26000
13174996;-0.26500
13177774;-0.26000
13180552;-0.24500
13183330;-0.24000
13186107;-0.23500
13188885;-0.25000
13191663;-0.26000
13194441;-0.26500
13197219;-0.25500
13199996;-0.24000
13202774;-0.24500
13205552;-0.25500
13208330;-0.26000
13211107;-0.26500
13213885;-0.25000
13216663;-0.25000
13219441;-0.25000
13222219;-0.25000
13224996;-0.26500
13227774;-0.26000
13230552;-0.25000
13233330;-0.23000
13236107;-0.23000
13238885;-0.24500
13241663;-0.24000
13244441;-0.23000
13247219;-0.21000
13249996;-0.19000
13252774;-0.19000
13255552;-0.18500
13258330;-0.18500
13261107;-0.19000
13263885;-0.19500
13266663;-0.17500
13269441;-0.16000
13272219;-0.15500
13274996;-0.16500
13277774;-0.14500
13280552;-0.13500
13283330;-0.12500
13286107;-0.13500
13288885;-0.15500
13291663;-0.17000
13294441;-0.17000
13297218;-0.15500
13299996;-0.14000
13302774;-0.14000
13305552;-0.15000
13308330;-0.13000
13311107;-0.12000
13313885;-0.12000
13316663;-0.15000
13319441;-0.19000
13322218;-0.21000
13324996;-0.23000
13327774;-0.24500
13330552;-0.25500
13333330;-0.26000
13336107;-0.26000
13338885;-0.27500
13341663;-0.28000
13344441;-0.30000
13347218;-0.30000
13349996;-0.28000
13352774;-0.28500
13355552;-0.28500
13358330;-0.28500
13361107;-0.30500
13363885;-0.29000
13366663;-0.29000
13369441;-0.28500
13372218;-0.29500
13374996;-0.30500
13377774;-0.32000
13380552;-0.30500
13383330;-0.29000
13386107;-0.30500
13388885;-0.30500
13391663;-0.32000
13394441;-0.32000
13397218;-0.30500
13399996;-0.31500
13402774;-0.30500
13405552;-0.32500
13408330;-0.34500
13411107;-0.37500
13413885;-0.41000
13416663;-0.43000
13419441;-0.44500
13422218;-0.50000
13424996;-0.55500
13427774;-0.54500
13430552;-0.45500
13433330;-0.34000
13436107;-0.20000
13438885;-0.02000
13441663;0.21500
13444441;0.50500
13447218;0.71500
13449996;0.84000
13452774;0.82000
13455552;0.62500
13458330;0.27000
13461107;-0.11500
13463885;-0.38500
13466663;-0.51000
13469441;-0.52500
13472218;-0.49000
13474996;-0.46500
13477774;-0.42500
13480552;-0.38000
13483330;-0.38000
13486107;-0.38000
13488885;-0.39000
13491663;-0.40000
13494441;-0.38500
13497218;-0.38000
13499996;-0.37000
13502774;-0.38500
13505552;-0.38500
13508330;-0.40500
13511107;-0.41500
13513885;-0.39500
13516663;-0.38000
13519441;-0.37000
13522218;-0.36000
13524996;-0.38500
13527774;-0.39000
13530552;-0.38000
13533330;-0.37000
13536107;-0.37000
13538885;-0.37000
13541663;-0.38500
13544441;-0.37500
13547218;-0.38000
13549996;-0.37500
13552774;-0.38500
13555552;-0.39000
13558330;-0.40500
13561107;-0.40000
13563885;-0.39500
13566663;-0.37500
13569441;-0.37500
13572218;-0.38500
13574996;-0.38000
13577774;-0.38500
13580552;-0.37000
13583330;-0.37500
13586107;-0.38500
13588885;-0.38500
13591663;-0.39000
13594441;-0.40500
13597218;-0.39500
13599996;-0.39000
13602774;-0.37500
13605552;-0.39000
13608330;-0.39500
13611107;-0.40000
13613885;-0.39000
13616663;-0.38500
13619441;-0.38500
13622218;-0.40000
13624996;-0.40500
13627774;-0.41000
13630552;-0.39000
13633330;-0.39000
13636107;-0.38500
13638885;-0.38500
13641663;-0.39000
13644441;-0.40500
13647218;-0.38500
13649996;-0.38000
13652774;-0.38500
13655552;-0.39000
13658330;-0.40000
13661107;-0.40000
13663885;-0.39000
13666663;-0.38000
13669441;-0.38500
13672218;-0.40500
13674996;-0.40500
13677774;-0.40000
13680552;-0.39500
13683330;-0.40000
13686107;-0.40000
13688885;-0.41000
13691663;-0.43500
13694441;-0.43000
13697218;-0.43000
13699996;-0.41500
13702774;-0.41500
13705552;-0.41500
13708329;-0.41000
13711107;-0.42000
13713885;-0.41500
13716663;-0.41500
13719441;-0.41000
13722218;-0.43000
13724996;-0.43000
13727774;-0.42500
13730552;-0.40000
13733329;-0.38000
13736107;-0.38000
13738885;-0.36500
13741663;-0.37500
13744441;-0.37500
13747218;-0.36500
13749996;-0.34500
13752774;-0.33500
13755552;-0.34000
13758329;-0.34000
13761107;-0.32000
13763885;-0.32500
13766663;-0.31000
13769441;-0.31500
13772218;-0.32500
13774996;-0.33500
13777774;-0.33000
13780552;-0.31500
13783329;-0.29000
13786107;-0.29500
13788885;-0.29500
13791663;-0.32500
13794441;-0.32000
13797218;-0.31000
13799996;-0.30000
13802774;-0.30000
13805552;-0.30000
13808329;-0.32000
13811107;-0.32500
13813885;-0.32000
13816663;-0.30500
13819441;-0.30000
13822218;-0.31000
13824996;-0.30500
13827774;-0.31500
13830552;-0.30500
13833329;-0.31500
13836107;-0.32000
13838885;-0.32000
13841663;-0.32500
13844441;-0.33000
13847218;-0.32500
13849996;-0.31000
13852774;-0.31500
13855552;-0.33500
13858329;-0.34000
13861107;-0.35500
13863885;-0.34500
13866663;-0.31500
13869441;-0.32000
13872218;-0.34000
13874996;-0.33500
13877774;-0.34500
13880552;-0.33000
13883329;-0.32500
13886107;-0.33500
13888885;-0.35000
13891663;-0.36000
13894441;-0.36000
13897218;-0.36000
13899996;-0.35000
13902774;-0.33500
13905552;-0.34000
13908329;-0.35500
13911107;-0.36500
13913885;-0.35000
13916663;-0.34500
13919441;-0.34500
13922218;-0.35000
13924996;-0.37000
13927774;-0.36000
13930552;-0.35000
13933329;-0.35000
13936107;-0.35500
13938885;-0.35000
13941663;-0.36000
13944441;-0.36000
13947218;-0.35500
13949996;-0.36000
13952774;-0.35500
13955552;-0.36500
13958329;-0.37000
13961107;-0.36000
13963885;-0.34500
13966663;-0.35500
13969441;-0.35500
13972218;-0.36500
13974996;-0.36000
13977774;-0.38000
13980552;-0.36000
13983329;-0.36000
13986107;-0.35500
13988885;-0.36000
13991663;-0.37000
13994441;-0.36500
13997218;-0.36000
13999996;-0.35000
14002774;-0.34000
14005552;-0.34500
14008329;-0.35000
14011107;-0.35500
14013885;-0.35500
14016663;-0.35000
14019441;-0.35000
14022218;-0.35500
14024996;-0.35500
14027774;-0.34500
14030552;-0.32000
14033329;-0.30000
14036107;-0.31000
14038885;-0.32000
14041663;-0.32000
14044441;-0.32500
14047218;-0.31000
14049996;-0.28500
14052774;-0.27000
14055552;-0.28000
14058329;-0.27000
14061107;-0.27000
14063885;-0.26000
14066663;-0.23000
14069441;-0.23000
14072218;-0.24000
14074996;-0.24500
14077774;-0.26500
14080552;-0.26500
14083329;-0.24500
14086107;-0.23000
14088885;-0.25000
14091663;-0.25000
14094440;-0.26500
14097218;-0.25000
14099996;-0.23000
14102774;-0.23000
14105552;-0.22500
14108329;-0.21500
14111107;-0.22500
14113885;-0.24000
14116663;-0.26500
14119440;-0.28000
14122218;-0.30500
14124996;-0.33000
14127774;-0.35000
14130552;-0.35500
14133329;-0.36500
14136107;-0.37500
14138885;-0.38500
14141663;-0.38500
14144440;-0.40000
14147218;-0.39000
14149996;-0.38500
14152774;-0.38500
14155552;-0.40500
14158329;-0.41000
14161107;-0.41000
14163885;-0.38500
14166663;-0.38500
14169440;-0.38000
14172218;-0.40500
14174996;-0.41000
14177774;-0.41500
14180552;-0.41000
14183329;-0.39500
14186107;-0.39500
14188885;-0.40500
14191663;-0.41000
14194440;-0.41500
14197218;-0.42000
14199996;-0.42000
14202774;-0.44500
14205552;-0.49000
14208329;-0.51500
14211107;-0.54000
14213885;-0.56000
14216663;-0.59000
14219440;-0.59500
14222218;-0.54500
14224996;-0.44000
14227774;-0.30000
14230552;-0.13500
14233329;0.07000
14236107;0.34000
14238885;0.59500
14241663;0.78000
14244440;0.85500
14247218;0.79000
14249996;0.56000
14252774;0.21000
14255552;-0.11000
14258329;-0.34000
14261107;-0.46500
14263885;-0.54000
14266663;-0.56500
14269440;-0.57000
14272218;-0.54000
14274996;-0.51000
14277774;-0.47500
14280552;-0.46000
14283329;-0.44500
14286107;-0.45000
14288885;-0.45000
14291663;-0.46500
14294440;-0.46000
14297218;-0.44500
14299996;-0.44500
14302774;-0.43500
14305552;-0.45000
14308329;-0.46000
14311107;-0.45000
14313885;-0.44500
14316663;-0.44000
14319440;-0.45000
14322218;-0.45000
14324996;-0.47000
14327774;-0.47000
14330552;-0.46000
14333329;-0.44500
14336107;-0.45500
14338885;-0.47000
14341663;-0.46500
14344440;-0.47000
14347218;-0.46000
14349996;-0.45000
14352774;-0.45000
14355552;-0.46000
14358329;-0.47000
14361107;-0.47000
14363885;-0.46500
14366663;-0.46500
14369440;-0.45000
14372218;-0.46000
14374996;-0.47000
14377774;-0.47000
14380552;-0.46500
14383329;-0.45000
14386107;-0.46000
14388885;-0.46000
14391663;-0.46000
14394440;-0.47000
14397218;-0.46500
14399996;-0.43500
14402774;-0.45500
14405552;-0.46500
14408329;-0.47500
14411107;-0.47500
14413885;-0.46500
14416663;-0.46000
14419440;-0.46000
14422218;-0.46500
14424996;-0.46500
14427774;-0.47000
14430552;-0.46500
14433329;-0.45500
14436107;-0.46000
14438885;-0.45500
14441663;-0.46500
14444440;-0.46500
14447218;-0.46000
14449996;-0.44500
14452774;-0.44500
14455552;-0.46500
14458329;-0.47000
14461107;-0.46500
14463885;-0.47000
14466663;-0.45000
14469440;-0.46000
14472218;-0.46500
14474996;-0.48000
14477774;-0.48500
14480552;-0.47500
14483329;-0.47000
14486107;-0.48000
14488885;-0.48500
14491663;-0.50000
14494440;-0.50500
14497218;-0.49500
14499996;-0.49000
14502774;-0.49000
14505551;-0.49500
14508329;-0.50000
14511107;-0.50000
14513885;-0.49000
14516663;-0.48500
14519440;-0.48000
14522218;-0.49500
14524996;-0.50500
14527774;-0.50000
14530551;-0.49500
14533329;-0.49000
14536107;-0.48500
14538885;-0.48500
14541663;-0.48500
14544440;-0.48000
14547218;-0.45000
14549996;-0.44000
14552774;-0.43000
14555551;-0.42500
14558329;-0.42000
14561107;-0.40500
14563885;-0.39500
14566663;-0.37000
14569440;-0.37500
14572218;-0.37000
14574996;-0.37500
14577774;-0.37000
14580551;-0.35000
14583329;-0.34500
14586107;-0.33000
14588885;-0.33500
14591663;-0.34000
14594440;-0.33000
14597218;-0.33000
14599996;-0.31500
14602774;-0.32000
14605551;-0.31500
14608329;-0.32500
14611107;-0.33000
14613885;-0.31500
14616663;-0.31500
14619440;-0.31500
14622218;-0.32000
14624996;-0.32500
14627774;-0.33000
14630551;-0.32000
14633329;-0.32000
14636107;-0.30500
14638885;-0.32000
14641663;-0.32500
14644440;-0.33500
14647218;-0.31500
14649996;-0.30500
14652774;-0.31500
14655551;-0.31500
14658329;-0.32000
14661107;-0.31500
14663885;-0.30500
14666663;-0.29000
14669440;-0.29500
14672218;-0.30000
14674996;-0.31000
14677774;-0.31500
14680551;-0.30000
14683329;-0.30500
14686107;-0.30500
14688885;-0.31500
14691663;-0.32000
14694440;-0.33000
14697218;-0.32500
14699996;-0.31500
14702774;-0.31000
14705551;-0.32000
14708329;-0.33000
14711107;-0.33000
14713885;-0.33000
14716663;-0.30000
14719440;-0.32000
14722218;-0.31500
14724996;-0.32000
14727774;-0.32500
14730551;-0.31500
14733329;-0.31000
14736107;-0.31000
14738885;-0.30500
14741663;-0.32000
14744440;-0.32500
14747218;-0.33000
14749996;-0.31500
14752774;-0.31000
14755551;-0.32000
14758329;-0.32500
14761107;-0.33500
14763885;-0.32000
14766663;-0.31500
14769440;-0.32000
14772218;-0.33000
14774996;-0.33500
14777774;-0.33000
14780551;-0.32000
14783329;-0.31000
14786107;-0.30500
14788885;-0.30500
14791663;-0.32000
14794440;-0.31500
14797218;-0.31000
14799996;-0.29500
14802774;-0.29500
14805551;-0.30000
14808329;-0.30500
14811107;-0.31000
14813885;-0.30000
14816663;-0.29500
14819440;-0.29000
14822218;-0.30000
14824996;-0.30500
14827774;-0.30000
14830551;-0.28500
14833329;-0.28000
14836107;-0.26500
14838885;-0.27000
14841663;-0.26500
14844440;-0.27000
14847218;-0.24500
14849996;-0.24500
14852774;-0.23000
14855551;-0.24500
14858329;-0.24000
14861107;-0.24000
14863885;-0.23000
14866663;-0.21000
14869440;-0.20000
14872218;-0.20000
14874996;-0.20500
14877774;-0.20000
14880551;-0.18500
14883329;-0.17000
14886107;-0.17000
14888885;-0.17500
14891662;-0.18000
14894440;-0.18500
14897218;-0.18000
14899996;-0.18000
14902774;-0.18000
14905551;-0.19500
14908329;-0.20000
14911107;-0.20000
14913885;-0.18500
14916662;-0.17500
14919440;-0.17000
14922218;-0.17000
14924996;-0.16000
14927774;-0.16500
14930551;-0.19000
14933329;-0.21500
14936107;-0.24000
14938885;-0.25000
14941662;-0.27000
14944440;-0.28500
14947218;-0.28500
14949996;-0.29500
14952774;-0.30000
14955551;-0.32000
14958329;-0.33000
14961107;-0.31500
14963885;-0.31000
14966662;-0.30500
14969440;-0.31500
14972218;-0.32500
14974996;-0.32000
14977774;-0.33000
14980551;-0.32500
14983329;-0.31500
14986107;-0.33000
14988885;-0.33000
14991662;-0.33500
14994440;-0.34000
14997218;-0.33500
14999996;-0.32000
15002774;-0.34000
15005551;-0.33500
15008329;-0.33500
15011107;-0.34500
15013885;-0.33500
15016662;-0.32500
15019440;-0.34000
15022218;-0.37500
15024996;-0.42000
15027774;-0.45500
15030551;-0.45500
15033329;-0.48000
15036107;-0.51000
15038885;-0.53500
15041662;-0.49000
15044440;-0.40000
15047218;-0.26000
15049996;-0.12000
15052774;0.06500
15055551;0.29500
15058329;0.55500
15061107;0.74500
15063885;0.87500
15066662;0.96000
15069440;1.01500
