time_ms;ecg_value
0;1.15500
2778;1.19000
5556;1.13000
8333;0.96000
11111;0.69500
13889;0.36000
16667;0.03000
19444;-0.25000
22222;-0.43000
25000;-0.50000
27778;-0.49000
30556;-0.45000
33333;-0.40500
36111;-0.38500
38889;-0.39500
41667;-0.40000
44444;-0.39500
47222;-0.38500
50000;-0.39500
52778;-0.39000
55556;-0.39000
58333;-0.38500
61111;-0.38500
63889;-0.39000
66667;-0.39500
69444;-0.40500
72222;-0.42500
75000;-0.41500
77778;-0.40000
80556;-0.39500
83333;-0.40000
86111;-0.41500
88889;-0.41500
91667;-0.41000
94444;-0.40000
97222;-0.39000
100000;-0.39000
102778;-0.38000
105556;-0.41000
108333;-0.41500
111111;-0.41000
113889;-0.40500
116667;-0.41000
119444;-0.41500
122222;-0.42000
125000;-0.42500
127778;-0.42500
130556;-0.41000
133333;-0.41500
136111;-0.42000
138889;-0.42500
141667;-0.42000
144444;-0.41000
147222;-0.41500
150000;-0.41500
152778;-0.43000
155556;-0.44000
158333;-0.42500
161111;-0.41000
163889;-0.40000
166667;-0.41500
169444;-0.42000
172222;-0.42500
175000;-0.43000
177778;-0.42000
180556;-0.42500
183333;-0.42500
186111;-0.42000
188889;-0.43500
191667;-0.42500
194444;-0.41000
197222;-0.41500
200000;-0.41000
202778;-0.41500
205555;-0.42500
208333;-0.42500
211111;-0.42000
213889;-0.42000
216667;-0.42500
219444;-0.43500
222222;-0.44000
225000;-0.45000
227778;-0.44500
230555;-0.45000
233333;-0.45500
236111;-0.45000
238889;-0.46500
241667;-0.44000
244444;-0.44000
247222;-0.45500
250000;-0.47500
252778;-0.48000
255555;-0.49000
258333;-0.47000
261111;-0.47000
263889;-0.47000
266667;-0.47500
269444;-0.48500
272222;-0.48000
275000;-0.47000
277778;-0.45500
280555;-0.45000
283333;-0.43500
286111;-0.43000
288889;-0.42000
291667;-0.39000
294444;-0.38000
297222;-0.36500
300000;-0.34500
302778;-0.35000
305555;-0.33000
308333;-0.32000
311111;-0.30000
313889;-0.29000
316667;-0.28500
319444;-0.28500
322222;-0.29000
325000;-0.28500
327778;-0.26500
330555;-0.28000
333333;-0.27000
336111;-0.27000
338889;-0.28000
341667;-0.27000
344444;-0.27000
347222;-0.26500
350000;-0.25500
352778;-0.27500
355555;-0.28500
358333;-0.28000
361111;-0.27000
363889;-0.27000
366667;-0.27000
369444;-0.27500
372222;-0.28000
375000;-0.27000
377778;-0.26500
380555;-0.26000
383333;-0.27500
386111;-0.28000
388889;-0.27500
391667;-0.27000
394444;-0.26500
397222;-0.26000
400000;-0.26500
402778;-0.27500
405555;-0.28500
408333;-0.28000
411111;-0.27500
413889;-0.27500
416667;-0.27000
419444;-0.27500
422222;-0.29500
425000;-0.29000
427778;-0.29000
430555;-0.29500
433333;-0.29500
436111;-0.30000
438889;-0.29500
441667;-0.29500
444444;-0.29000
447222;-0.29000
450000;-0.28000
452778;-0.29000
455555;-0.30500
458333;-0.29500
461111;-0.29000
463889;-0.28500
466667;-0.29500
469444;-0.30500
472222;-0.30000
475000;-0.30000
477778;-0.28500
480555;-0.28500
483333;-0.29500
486111;-0.29500
488889;-0.30000
491667;-0.29500
494444;-0.28500
497222;-0.27500
500000;-0.28500
502778;-0.28500
505555;-0.29000
508333;-0.28500
511111;-0.28000
513889;-0.27000
516667;-0.27500
519444;-0.28500
522222;-0.29000
525000;-0.28000
527778;-0.26500
530555;-0.26500
533333;-0.27000
536111;-0.28000
538889;-0.28000
541667;-0.28500
544444;-0.27500
547222;-0.27000
550000;-0.27000
552778;-0.27000
555555;-0.27000
558333;-0.24500
561111;-0.22000
563889;-0.21000
566667;-0.20500
569444;-0.20500
572222;-0.22000
575000;-0.20500
577778;-0.18000
580555;-0.18500
583333;-0.17000
586111;-0.17000
588889;-0.17500
591667;-0.15500
594444;-0.15500
597222;-0.15000
600000;-0.15500
602778;-0.17500
605555;-0.19000
608333;-0.19500
611111;-0.17500
613889;-0.17500
616666;-0.18000
619444;-0.21000
622222;-0.21500
625000;-0.18000
627778;-0.15000
630555;-0.14000
633333;-0.16000
636111;-0.20500
638889;-0.22000
641666;-0.22500
644444;-0.23000
647222;-0.24500
650000;-0.26500
652778;-0.28000
655555;-0.27500
658333;-0.29500
661111;-0.28500
663889;-0.28500
666666;-0.28500
669444;-0.28500
672222;-0.29000
675000;-0.28000
677778;-0.27500
680555;-0.28500
683333;-0.29500
686111;-0.29000
688889;-0.31000
691666;-0.29500
694444;-0.29000
697222;-0.28000
700000;-0.30500
702778;-0.29500
705555;-0.30500
708333;-0.30500
711111;-0.29500
713889;-0.30000
716666;-0.29000
719444;-0.31000
722222;-0.34500
725000;-0.38500
727778;-0.40500
730555;-0.42500
733333;-0.46000
736111;-0.48500
738889;-0.45500
741666;-0.32500
744444;-0.13000
747222;0.09000
750000;0.32000
752778;0.58000
755555;0.85500
758333;1.11000
761111;1.25000
763889;1.21500
766666;0.99000
769444;0.56000
772222;0.10000
775000;-0.24500
777778;-0.41000
780555;-0.45500
783333;-0.45000
786111;-0.40500
788889;-0.37500
791666;-0.33000
794444;-0.31000
797222;-0.32500
800000;-0.33000
802778;-0.35000
805555;-0.34000
808333;-0.34000
811111;-0.33000
813889;-0.34000
816666;-0.34000
819444;-0.33500
822222;-0.36500
825000;-0.36000
827778;-0.35500
830555;-0.34500
833333;-0.35000
836111;-0.35500
838889;-0.36000
841666;-0.35000
844444;-0.35000
847222;-0.35000
850000;-0.35500
852778;-0.36000
855555;-0.37000
858333;-0.36000
861111;-0.36000
863889;-0.34500
866666;-0.36000
869444;-0.36000
872222;-0.37000
875000;-0.35000
877778;-0.35000
880555;-0.34000
883333;-0.34500
886111;-0.35500
888889;-0.36500
891666;-0.35500
894444;-0.35000
897222;-0.34000
900000;-0.35000
902778;-0.37000
905555;-0.37000
908333;-0.36500
911111;-0.35000
913889;-0.35000
916666;-0.35000
919444;-0.36500
922222;-0.37500
925000;-0.37000
927778;-0.35500
930555;-0.36000
933333;-0.36500
936111;-0.37500
938889;-0.38000
941666;-0.38000
944444;-0.37500
947222;-0.36000
950000;-0.35500
952778;-0.38000
955555;-0.38500
958333;-0.37500
961111;-0.36000
963889;-0.36500
966666;-0.36000
969444;-0.38000
972222;-0.38000
975000;-0.38500
977778;-0.37500
980555;-0.37000
983333;-0.37500
986111;-0.39500
988889;-0.40000
991666;-0.40500
994444;-0.38000
997222;-0.38000
1000000;-0.39500
1002777;-0.39500
1005555;-0.40000
1008333;-0.39500
1011111;-0.38500
1013889;-0.37500
1016666;-0.38500
1019444;-0.40000
1022222;-0.39500
1025000;-0.39500
1027777;-0.38000
1030555;-0.37000
1033333;-0.37500
1036111;-0.37500
1038889;-0.38500
1041666;-0.36000
1044444;-0.34500
1047222;-0.34000
1050000;-0.32500
1052777;-0.33000
1055555;-0.32500
1058333;-0.30000
1061111;-0.27500
1063889;-0.26500
1066666;-0.26500
1069444;-0.25500
1072222;-0.25500
1075000;-0.23500
1077777;-0.22500
1080555;-0.21500
1083333;-0.22000
1086111;-0.22500
1088889;-0.23500
1091666;-0.23000
1094444;-0.21500
1097222;-0.21500
1100000;-0.21500
1102777;-0.22000
1105555;-0.22500
1108333;-0.21500
1111111;-0.21000
1113889;-0.20500
1116666;-0.21500
1119444;-0.21500
1122222;-0.22000
1125000;-0.21500
1127777;-0.22000
1130555;-0.20500
1133333;-0.21500
1136111;-0.22000
1138889;-0.23000
1141666;-0.21500
1144444;-0.20000
1147222;-0.21500
1150000;-0.21000
1152777;-0.23000
1155555;-0.24000
1158333;-0.22000
1161111;-0.22500
1163889;-0.22500
1166666;-0.24500
1169444;-0.24000
1172222;-0.24500
1175000;-0.24000
1177777;-0.24500
1180555;-0.23000
1183333;-0.23500
1186111;-0.26000
1188889;-0.26500
1191666;-0.26000
1194444;-0.24000
1197222;-0.24000
1200000;-0.26000
1202777;-0.25000
1205555;-0.27500
1208333;-0.26000
1211111;-0.26000
1213889;-0.25500
1216666;-0.26000
1219444;-0.27000
1222222;-0.27500
1225000;-0.27000
1227777;-0.27000
1230555;-0.27000
1233333;-0.27500
1236111;-0.28500
1238889;-0.27500
1241666;-0.27500
1244444;-0.26500
1247222;-0.27000
1250000;-0.27500
1252777;-0.29000
1255555;-0.29500
1258333;-0.29000
1261111;-0.28500
1263889;-0.28000
1266666;-0.29000
1269444;-0.28000
1272222;-0.29000
1275000;-0.28500
1277777;-0.27500
1280555;-0.26500
1283333;-0.27000
1286111;-0.28000
1288889;-0.28500
1291666;-0.27000
1294444;-0.25500
1297222;-0.26000
1300000;-0.26500
1302777;-0.25500
1305555;-0.27000
1308333;-0.26000
1311111;-0.26500
1313889;-0.25500
1316666;-0.26500
1319444;-0.26500
1322222;-0.27500
1325000;-0.26500
1327777;-0.24500
1330555;-0.23500
1333333;-0.23000
1336111;-0.21000
1338889;-0.21000
1341666;-0.20000
1344444;-0.19000
1347222;-0.18000
1350000;-0.18500
1352777;-0.19000
1355555;-0.18000
1358333;-0.16500
1361111;-0.15000
1363889;-0.13500
1366666;-0.14500
1369444;-0.15000
1372222;-0.16000
1375000;-0.16000
1377777;-0.15500
1380555;-0.17000
1383333;-0.17000
1386111;-0.18000
1388888;-0.18500
1391666;-0.17000
1394444;-0.17500
1397222;-0.18500
1400000;-0.18500
1402777;-0.18500
1405555;-0.18500
1408333;-0.15000
1411111;-0.14000
1413888;-0.13500
1416666;-0.17500
1419444;-0.21000
1422222;-0.23000
1425000;-0.23000
1427777;-0.25500
1430555;-0.26500
1433333;-0.26000
1436111;-0.28500
1438888;-0.29500
1441666;-0.29000
1444444;-0.29500
1447222;-0.28000
1450000;-0.28500
1452777;-0.28500
1455555;-0.30000
1458333;-0.29000
1461111;-0.28000
1463888;-0.28500
1466666;-0.29500
1469444;-0.29000
1472222;-0.31000
1475000;-0.30000
1477777;-0.29000
1480555;-0.30000
1483333;-0.28500
1486111;-0.30500
1488888;-0.31000
1491666;-0.30000
1494444;-0.30500
1497222;-0.32000
1500000;-0.36500
1502777;-0.40500
1505555;-0.44000
1508333;-0.45500
1511111;-0.47000
1513888;-0.49000
1516666;-0.46500
1519444;-0.39500
1522222;-0.22500
1525000;-0.03000
1527777;0.16000
1530555;0.40000
1533333;0.68000
1536111;0.96500
1538888;1.15500
1541666;1.24000
1544444;1.19000
1547222;0.93000
1550000;0.47500
1552777;-0.01000
1555555;-0.34000
1558333;-0.45000
1561111;-0.44500
1563888;-0.41000
1566666;-0.38500
1569444;-0.35500
1572222;-0.33000
1575000;-0.31500
1577777;-0.30500
1580555;-0.31500
1583333;-0.31500
1586111;-0.33000
1588888;-0.35000
1591666;-0.34500
1594444;-0.34000
1597222;-0.35000
1600000;-0.34000
1602777;-0.35500
1605555;-0.37000
1608333;-0.36000
1611111;-0.37000
1613888;-0.36000
1616666;-0.35000
1619444;-0.36500
1622222;-0.37000
1625000;-0.37500
1627777;-0.35500
1630555;-0.35000
1633333;-0.35000
1636111;-0.36000
1638888;-0.36000
1641666;-0.36000
1644444;-0.35000
1647222;-0.34500
1650000;-0.34500
1652777;-0.36000
1655555;-0.37000
1658333;-0.36000
1661111;-0.35000
1663888;-0.34500
1666666;-0.35000
1669444;-0.35500
1672222;-0.37000
1675000;-0.36000
1677777;-0.34500
1680555;-0.34000
1683333;-0.35500
1686111;-0.36500
1688888;-0.36500
1691666;-0.36500
1694444;-0.36000
1697222;-0.35500
1700000;-0.35000
1702777;-0.37000
1705555;-0.36500
1708333;-0.35500
1711111;-0.35000
1713888;-0.34500
1716666;-0.36000
1719444;-0.36500
1722222;-0.36500
1725000;-0.35500
1727777;-0.34500
1730555;-0.34500
1733333;-0.34000
1736111;-0.36500
1738888;-0.36500
1741666;-0.36000
1744444;-0.36000
1747222;-0.35000
1750000;-0.36000
1752777;-0.37500
1755555;-0.37000
1758333;-0.37000
1761111;-0.35000
1763888;-0.36500
1766666;-0.36500
1769444;-0.37500
1772222;-0.38000
1775000;-0.37500
1777777;-0.37000
1780555;-0.35500
1783333;-0.36500
1786111;-0.37500
1788888;-0.38500
1791666;-0.37000
1794444;-0.38000
1797222;-0.36500
1799999;-0.37000
1802777;-0.37000
1805555;-0.39000
1808333;-0.38000
1811111;-0.37000
1813888;-0.36000
1816666;-0.36500
1819444;-0.37000
1822222;-0.37000
1824999;-0.36500
1827777;-0.34500
1830555;-0.34500
1833333;-0.34500
1836111;-0.35000
1838888;-0.35000
1841666;-0.34500
1844444;-0.32500
1847222;-0.31000
1849999;-0.30500
1852777;-0.30500
1855555;-0.30500
1858333;-0.28500
1861111;-0.27000
1863888;-0.25500
1866666;-0.25500
1869444;-0.25500
1872222;-0.25000
1874999;-0.24500
1877777;-0.22500
1880555;-0.21500
1883333;-0.21500
1886111;-0.23000
1888888;-0.23500
1891666;-0.23000
1894444;-0.21500
1897222;-0.20500
1899999;-0.22000
1902777;-0.22500
1905555;-0.23000
1908333;-0.21500
1911111;-0.22000
1913888;-0.20500
1916666;-0.21000
1919444;-0.23000
1922222;-0.23500
1924999;-0.23000
1927777;-0.22500
1930555;-0.21500
1933333;-0.21500
1936111;-0.23000
1938888;-0.23500
1941666;-0.23000
1944444;-0.22000
1947222;-0.22000
1949999;-0.22500
1952777;-0.23500
1955555;-0.24500
1958333;-0.23500
1961111;-0.23500
1963888;-0.23500
1966666;-0.23500
1969444;-0.25000
1972222;-0.26000
1974999;-0.25500
1977777;-0.25000
1980555;-0.25500
1983333;-0.25000
1986111;-0.25000
1988888;-0.26000
1991666;-0.25000
1994444;-0.24500
1997222;-0.24000
1999999;-0.25500
2002777;-0.27500
2005555;-0.26500
2008333;-0.26500
2011111;-0.27000
2013888;-0.24500
2016666;-0.26500
2019444;-0.28000
2022222;-0.28500
2024999;-0.27500
2027777;-0.27500
2030555;-0.27000
2033333;-0.26500
2036111;-0.28000
2038888;-0.27500
2041666;-0.28000
2044444;-0.27500
2047222;-0.27500
2049999;-0.27000
2052777;-0.28500
2055555;-0.29000
2058333;-0.27500
2061111;-0.27000
2063888;-0.28000
2066666;-0.29000
2069444;-0.28500
2072222;-0.29500
2074999;-0.28500
2077777;-0.29500
2080555;-0.26000
2083333;-0.27000
2086111;-0.27500
2088888;-0.29000
2091666;-0.28500
2094444;-0.27500
2097222;-0.27000
2099999;-0.28000
2102777;-0.28500
2105555;-0.29000
2108333;-0.28000
2111111;-0.26500
2113888;-0.26000
2116666;-0.26000
2119444;-0.27000
2122222;-0.27500
2124999;-0.26000
2127777;-0.25500
2130555;-0.24500
2133333;-0.24000
2136111;-0.23000
2138888;-0.22000
2141666;-0.21000
2144444;-0.20500
2147222;-0.19000
2149999;-0.19000
2152777;-0.19000
2155555;-0.19000
2158333;-0.17500
2161111;-0.16500
2163888;-0.14500
2166666;-0.13500
2169444;-0.14000
2172222;-0.16000
2174999;-0.16000
2177777;-0.16000
2180555;-0.16000
2183333;-0.16500
2186110;-0.16500
2188888;-0.18000
2191666;-0.18500
2194444;-0.18500
2197222;-0.17000
2199999;-0.17000
2202777;-0.16500
2205555;-0.18000
2208333;-0.20000
2211110;-0.18000
2213888;-0.15500
2216666;-0.15000
2219444;-0.15500
2222222;-0.18500
2224999;-0.20000
2227777;-0.21000
2230555;-0.22500
2233333;-0.26000
2236110;-0.27000
2238888;-0.28000
2241666;-0.28500
2244444;-0.27500
2247222;-0.28000
2249999;-0.27000
2252777;-0.29500
2255555;-0.29500
2258333;-0.28500
2261110;-0.29000
2263888;-0.28500
2266666;-0.29000
2269444;-0.30000
2272222;-0.30000
2274999;-0.29500
2277777;-0.29000
2280555;-0.28500
2283333;-0.30000
2286110;-0.30000
2288888;-0.32000
2291666;-0.30500
2294444;-0.31000
2297222;-0.29500
2299999;-0.30000
2302777;-0.33000
2305555;-0.36000
2308333;-0.39500
2311110;-0.43500
2313888;-0.44500
2316666;-0.48000
2319444;-0.52000
2322222;-0.51500
2324999;-0.41000
2327777;-0.26000
2330555;-0.10000
2333333;0.07000
2336110;0.27500
2338888;0.54000
2341666;0.85000
2344444;1.08500
2347222;1.23000
2349999;1.31000
2352777;1.31000
2355555;1.18000
2358333;0.91500
2361110;0.55000
2363888;0.15500
2366666;-0.19500
2369444;-0.38500
2372222;-0.45500
2374999;-0.44000
2377777;-0.39000
2380555;-0.35500
2383333;-0.33000
2386110;-0.34000
2388888;-0.35000
2391666;-0.34000
2394444;-0.33500
2397222;-0.33000
2399999;-0.33000
2402777;-0.35000
2405555;-0.36000
2408333;-0.36000
2411110;-0.34500
2413888;-0.35000
2416666;-0.35000
2419444;-0.37000
2422222;-0.37500
2424999;-0.37000
2427777;-0.36500
2430555;-0.35500
2433333;-0.36500
2436110;-0.37000
2438888;-0.38500
2441666;-0.39000
2444444;-0.37000
2447222;-0.37000
2449999;-0.37000
2452777;-0.37000
2455555;-0.37500
2458333;-0.37500
2461110;-0.35500
2463888;-0.35000
2466666;-0.35500
2469444;-0.37500
2472222;-0.36500
2474999;-0.37000
2477777;-0.36500
2480555;-0.35500
2483333;-0.36000
2486110;-0.36500
2488888;-0.37500
2491666;-0.36000
2494444;-0.36000
2497222;-0.35000
2499999;-0.35000
2502777;-0.35500
2505555;-0.37000
2508333;-0.36500
2511110;-0.37500
2513888;-0.37500
2516666;-0.36500
2519444;-0.37000
2522222;-0.37000
2524999;-0.37000
2527777;-0.37000
2530555;-0.37000
2533333;-0.37000
2536110;-0.37500
2538888;-0.39500
2541666;-0.37500
2544444;-0.36500
2547222;-0.35000
2549999;-0.35000
2552777;-0.36500
2555555;-0.37500
2558333;-0.37500
2561110;-0.37000
2563888;-0.36000
2566666;-0.37000
2569444;-0.38000
2572222;-0.39500
2574999;-0.38000
2577777;-0.38000
2580555;-0.36500
2583333;-0.38500
2586110;-0.40000
2588888;-0.40500
2591666;-0.39500
2594444;-0.40000
2597221;-0.39000
2599999;-0.38500
2602777;-0.39000
2605555;-0.40000
2608333;-0.41000
2611110;-0.39500
2613888;-0.38500
2616666;-0.38500
2619444;-0.40000
2622221;-0.42000
2624999;-0.40500
2627777;-0.38000
2630555;-0.36500
2633333;-0.37500
2636110;-0.38000
2638888;-0.39500
2641666;-0.37500
2644444;-0.36000
2647221;-0.33500
2649999;-0.33500
2652777;-0.34000
2655555;-0.32500
2658333;-0.31500
2661110;-0.30000
2663888;-0.29500
2666666;-0.28000
2669444;-0.28000
2672221;-0.29500
2674999;-0.27500
2677777;-0.27000
2680555;-0.27000
2683333;-0.27000
2686110;-0.27000
2688888;-0.27500
2691666;-0.26500
2694444;-0.25500
2697221;-0.25000
2699999;-0.25500
2702777;-0.26000
2705555;-0.26500
2708333;-0.26500
2711110;-0.26000
2713888;-0.24500
2716666;-0.25000
2719444;-0.25500
2722221;-0.26000
2724999;-0.26500
2727777;-0.24500
2730555;-0.25500
2733333;-0.25000
2736110;-0.26500
2738888;-0.27000
2741666;-0.26500
2744444;-0.25500
2747221;-0.25500
2749999;-0.26000
2752777;-0.27000
2755555;-0.28500
2758333;-0.27000
2761110;-0.27000
2763888;-0.26500
2766666;-0.27000
2769444;-0.27500
2772221;-0.28500
2774999;-0.28500
2777777;-0.28000
2780555;-0.27500
2783333;-0.28000
2786110;-0.29500
2788888;-0.30000
2791666;-0.31000
2794444;-0.29500
2797221;-0.29000
2799999;-0.29500
2802777;-0.30500
2805555;-0.30500
2808333;-0.30000
2811110;-0.28500
2813888;-0.29500
2816666;-0.29000
2819444;-0.32000
2822221;-0.33000
2824999;-0.32000
2827777;-0.31500
2830555;-0.33000
2833333;-0.31500
2836110;-0.32500
2838888;-0.33500
2841666;-0.34000
2844444;-0.32500
2847221;-0.31500
2849999;-0.32000
2852777;-0.33500
2855555;-0.34000
2858333;-0.35500
2861110;-0.34500
2863888;-0.33500
2866666;-0.34000
2869444;-0.32500
2872221;-0.35500
2874999;-0.34000
2877777;-0.32000
2880555;-0.32500
2883333;-0.34000
2886110;-0.35000
2888888;-0.35500
2891666;-0.35000
2894444;-0.34500
2897221;-0.33000
2899999;-0.32500
2902777;-0.33000
2905555;-0.35000
2908333;-0.33000
2911110;-0.33000
2913888;-0.31500
2916666;-0.31500
2919444;-0.32500
2922221;-0.32500
2924999;-0.33000
2927777;-0.32500
2930555;-0.33000
2933333;-0.32500
2936110;-0.32500
2938888;-0.32000
2941666;-0.30000
2944444;-0.27500
2947221;-0.27500
2949999;-0.27000
2952777;-0.26500
2955555;-0.26000
2958333;-0.25500
2961110;-0.25000
2963888;-0.23500
2966666;-0.23500
2969444;-0.24000
2972221;-0.24500
2974999;-0.23500
2977777;-0.22000
2980555;-0.21500
2983332;-0.22000
2986110;-0.23000
2988888;-0.25500
2991666;-0.24500
2994444;-0.23000
2997221;-0.23000
2999999;-0.22500
3002777;-0.23500
3005555;-0.24500
3008332;-0.25000
3011110;-0.24500
3013888;-0.25500
3016666;-0.26000
3019444;-0.24000
3022221;-0.23000
3024999;-0.23000
3027777;-0.23000
3030555;-0.26000
3033332;-0.27500
3036110;-0.31000
3038888;-0.33000
3041666;-0.35000
3044444;-0.35000
3047221;-0.35000
3049999;-0.35500
3052777;-0.36500
3055555;-0.36000
3058332;-0.35000
3061110;-0.35000
3063888;-0.35500
3066666;-0.35500
3069444;-0.36000
3072221;-0.39000
3074999;-0.39000
3077777;-0.37000
3080555;-0.36500
3083332;-0.36500
3086110;-0.38500
3088888;-0.37500
3091666;-0.36500
3094444;-0.36000
3097221;-0.36000
3099999;-0.36000
3102777;-0.37500
3105555;-0.38000
3108332;-0.38000
3111110;-0.38000
3113888;-0.41500
3116666;-0.45500
3119444;-0.47000
3122221;-0.49500
3124999;-0.52500
3127777;-0.56500
3130555;-0.60500
3133332;-0.59500
3136110;-0.54500
3138888;-0.45500
3141666;-0.33500
3144444;-0.21500
3147221;-0.09500
3149999;0.08000
3152777;0.30000
3155555;0.54500
3158332;0.77500
3161110;0.92500
3163888;0.96500
3166666;0.82000
3169444;0.48000
3172221;0.05500
3174999;-0.29000
3177777;-0.46500
3180555;-0.49500
3183332;-0.48500
3186110;-0.45000
3188888;-0.43000
3191666;-0.42000
3194444;-0.40000
3197221;-0.38000
3199999;-0.38500
3202777;-0.38000
3205555;-0.38500
3208332;-0.41500
3211110;-0.42000
3213888;-0.40500
3216666;-0.41000
3219444;-0.42500
3222221;-0.43000
3224999;-0.42000
3227777;-0.41000
3230555;-0.38000
3233332;-0.38500
3236110;-0.40000
3238888;-0.41000
3241666;-0.41500
3244444;-0.42000
3247221;-0.41000
3249999;-0.41500
3252777;-0.41500
3255555;-0.44000
3258332;-0.44000
3261110;-0.43000
3263888;-0.43000
3266666;-0.42000
3269444;-0.43500
3272221;-0.43500
3274999;-0.43000
3277777;-0.42500
3280555;-0.42500
3283332;-0.41000
3286110;-0.42000
3288888;-0.44000
3291666;-0.43500
3294444;-0.42000
3297221;-0.41500
3299999;-0.41000
3302777;-0.42500
3305555;-0.43000
3308332;-0.42500
3311110;-0.41500
3313888;-0.42500
3316666;-0.42500
3319444;-0.44000
3322221;-0.45000
3324999;-0.44500
3327777;-0.44500
3330555;-0.43500
3333332;-0.44000
3336110;-0.45000
3338888;-0.46000
3341666;-0.46500
3344444;-0.45500
3347221;-0.43000
3349999;-0.41000
3352777;-0.41500
3355555;-0.43000
3358332;-0.43000
3361110;-0.43500
3363888;-0.43000
3366666;-0.44000
3369444;-0.46000
3372221;-0.45500
3374999;-0.44500
3377777;-0.45000
3380555;-0.44500
3383332;-0.44500
3386110;-0.46000
3388888;-0.48500
3391666;-0.48500
3394443;-0.47000
3397221;-0.47000
3399999;-0.47500
3402777;-0.47500
3405555;-0.48500
3408332;-0.48500
3411110;-0.48500
3413888;-0.48500
3416666;-0.50000
3419443;-0.49500
3422221;-0.50500
3424999;-0.51500
3427777;-0.49500
3430555;-0.48500
3433332;-0.48000
3436110;-0.48500
3438888;-0.48000
3441666;-0.47000
3444443;-0.45000
3447221;-0.43000
3449999;-0.42000
3452777;-0.41500
3455555;-0.42500
3458332;-0.41000
3461110;-0.40000
3463888;-0.37500
3466666;-0.36000
3469443;-0.35000
3472221;-0.35000
3474999;-0.34500
3477777;-0.32500
3480555;-0.32000
3483332;-0.31500
3486110;-0.33000
3488888;-0.34000
3491666;-0.32500
3494443;-0.29500
3497221;-0.27500
3499999;-0.28500
3502777;-0.30500
3505555;-0.32500
3508332;-0.31500
3511110;-0.31000
3513888;-0.29500
3516666;-0.30500
3519443;-0.31500
3522221;-0.32500
3524999;-0.31500
3527777;-0.31500
3530555;-0.31500
3533332;-0.31500
3536110;-0.31000
3538888;-0.32000
3541666;-0.31000
3544443;-0.30000
3547221;-0.29500
3549999;-0.30000
3552777;-0.30500
3555555;-0.31000
3558332;-0.30500
3561110;-0.31000
3563888;-0.31000
3566666;-0.30500
3569443;-0.32500
3572221;-0.33500
3574999;-0.35000
3577777;-0.34000
3580555;-0.32000
3583332;-0.31000
3586110;-0.33000
3588888;-0.34500
3591666;-0.34500
3594443;-0.34000
3597221;-0.33000
3599999;-0.32500
3602777;-0.33000
3605555;-0.35000
3608332;-0.36000
3611110;-0.34000
3613888;-0.35000
3616666;-0.34500
3619443;-0.35500
3622221;-0.35500
3624999;-0.35500
3627777;-0.34500
3630555;-0.34500
3633332;-0.35000
3636110;-0.35500
3638888;-0.37000
3641666;-0.35000
3644443;-0.35000
3647221;-0.35500
3649999;-0.36000
3652777;-0.36500
3655555;-0.38000
3658332;-0.37000
3661110;-0.35500
3663888;-0.35500
3666666;-0.35000
3669443;-0.35500
3672221;-0.37000
3674999;-0.36000
3677777;-0.35500
3680555;-0.33500
3683332;-0.33500
3686110;-0.34000
3688888;-0.36000
3691666;-0.35500
3694443;-0.35500
3697221;-0.34000
3699999;-0.34000
3702777;-0.35500
3705555;-0.37000
3708332;-0.36500
3711110;-0.34500
3713888;-0.33500
3716666;-0.33500
3719443;-0.33500
3722221;-0.35000
3724999;-0.35000
3727777;-0.34000
3730555;-0.32500
3733332;-0.34000
3736110;-0.34000
3738888;-0.34500
3741666;-0.33500
3744443;-0.33000
3747221;-0.31500
3749999;-0.29000
3752777;-0.30000
3755555;-0.29500
3758332;-0.29500
3761110;-0.28500
3763888;-0.26500
3766666;-0.25500
3769443;-0.25000
3772221;-0.25500
3774999;-0.24500
3777777;-0.22500
3780554;-0.22000
3783332;-0.22500
3786110;-0.22000
3788888;-0.24000
3791666;-0.24000
3794443;-0.23500
3797221;-0.23000
3799999;-0.23500
3802777;-0.23500
3805554;-0.23500
3808332;-0.25000
3811110;-0.24000
3813888;-0.24000
3816666;-0.23000
3819443;-0.23000
3822221;-0.22000
3824999;-0.22500
3827777;-0.24000
3830554;-0.25500
3833332;-0.26500
3836110;-0.29500
3838888;-0.32500
3841666;-0.32000
3844443;-0.31500
3847221;-0.31500
3849999;-0.31500
3852777;-0.32500
3855554;-0.34000
3858332;-0.34000
3861110;-0.33500
3863888;-0.34000
3866666;-0.34000
3869443;-0.35500
3872221;-0.36000
3874999;-0.36000
3877777;-0.34000
3880554;-0.33500
3883332;-0.34500
3886110;-0.35000
3888888;-0.36500
3891666;-0.36500
3894443;-0.35000
3897221;-0.34000
3899999;-0.34000
3902777;-0.35000
3905554;-0.36500
3908332;-0.36000
3911110;-0.35500
3913888;-0.35000
3916666;-0.35000
3919443;-0.36000
3922221;-0.37500
3924999;-0.40500
3927777;-0.44500
3930554;-0.47500
3933332;-0.48500
3936110;-0.52000
3938888;-0.54500
3941666;-0.50000
3944443;-0.37000
3947221;-0.20000
3949999;-0.02000
3952777;0.18000
3955554;0.43500
3958332;0.72500
3961110;0.96000
3963888;1.07500
3966666;1.02000
3969443;0.74500
3972221;0.31000
3974999;-0.15000
3977777;-0.42000
3980554;-0.49500
3983332;-0.47500
3986110;-0.43500
3988888;-0.40000
3991666;-0.39000
3994443;-0.38000
3997221;-0.38000
3999999;-0.38000
4002777;-0.38000
4005554;-0.38500
4008332;-0.37500
4011110;-0.37500
4013888;-0.37000
4016666;-0.37500
4019443;-0.38000
4022221;-0.38500
4024999;-0.39000
4027777;-0.38000
4030554;-0.37000
4033332;-0.38000
4036110;-0.39000
4038888;-0.40000
4041666;-0.39000
4044443;-0.38500
4047221;-0.38500
4049999;-0.38000
4052777;-0.39500
4055554;-0.40500
4058332;-0.39500
4061110;-0.39000
4063888;-0.38500
4066666;-0.39000
4069443;-0.40000
4072221;-0.40000
4074999;-0.39500
4077777;-0.39000
4080554;-0.39000
4083332;-0.38000
4086110;-0.39500
4088888;-0.39500
4091666;-0.39500
4094443;-0.38000
4097221;-0.38000
4099999;-0.37000
4102777;-0.39500
4105554;-0.40000
4108332;-0.40000
4111110;-0.38500
4113888;-0.37500
4116666;-0.37500
4119443;-0.38000
4122221;-0.40000
4124999;-0.40000
4127777;-0.39000
4130554;-0.39000
4133332;-0.39500
4136110;-0.39000
4138888;-0.41000
4141666;-0.40500
4144443;-0.40500
4147221;-0.39500
4149999;-0.39000
4152777;-0.39000
4155554;-0.40500
4158332;-0.40000
4161110;-0.39500
4163888;-0.39000
4166666;-0.38500
4169443;-0.39000
4172221;-0.40500
4174999;-0.40000
4177777;-0.38500
4180554;-0.39500
4183332;-0.40000
4186110;-0.40000
4188888;-0.40500
4191665;-0.40000
4194443;-0.40000
4197221;-0.39000
4199999;-0.40500
4202777;-0.39500
4205554;-0.42000
4208332;-0.41000
4211110;-0.41000
4213888;-0.41500
4216665;-0.42500
4219443;-0.43000
4222221;-0.44000
4224999;-0.43500
4227777;-0.41500
4230554;-0.42000
4233332;-0.42000
4236110;-0.43000
4238888;-0.43500
4241665;-0.43500
4244443;-0.42000
4247221;-0.41000
4249999;-0.41000
4252777;-0.41500
4255554;-0.41000
4258332;-0.40500
4261110;-0.38000
4263888;-0.35500
4266665;-0.35000
4269443;-0.35000
4272221;-0.34500
4274999;-0.33000
4277777;-0.31500
4280554;-0.30000
4283332;-0.28500
4286110;-0.29500
4288888;-0.29500
4291665;-0.27500
4294443;-0.25000
4297221;-0.24000
4299999;-0.25000
4302777;-0.26000
4305554;-0.26500
4308332;-0.26500
4311110;-0.24500
4313888;-0.23000
4316665;-0.24500
4319443;-0.26000
4322221;-0.27000
4324999;-0.25000
4327777;-0.24000
4330554;-0.23000
4333332;-0.23000
4336110;-0.24000
4338888;-0.26000
4341665;-0.25500
4344443;-0.24500
4347221;-0.25000
4349999;-0.24500
4352777;-0.24500
4355554;-0.26000
4358332;-0.26000
4361110;-0.25500
4363888;-0.25500
4366665;-0.24500
4369443;-0.26000
4372221;-0.27500
4374999;-0.26000
4377777;-0.26500
4380554;-0.25500
4383332;-0.26500
4386110;-0.27000
4388888;-0.27500
4391665;-0.27500
4394443;-0.26000
4397221;-0.27000
4399999;-0.27500
4402777;-0.27500
4405554;-0.28000
4408332;-0.28500
4411110;-0.27000
4413888;-0.27000
4416665;-0.27000
4419443;-0.28000
4422221;-0.31000
4424999;-0.30000
4427777;-0.29500
4430554;-0.29000
4433332;-0.30000
4436110;-0.30000
4438888;-0.31000
4441665;-0.31000
4444443;-0.30500
4447221;-0.29500
4449999;-0.30500
4452777;-0.30500
4455554;-0.31500
4458332;-0.32000
4461110;-0.30500
4463888;-0.30000
4466665;-0.31000
4469443;-0.32000
4472221;-0.32000
4474999;-0.31000
4477777;-0.30500
4480554;-0.30000
4483332;-0.29500
4486110;-0.31500
4488888;-0.31000
4491665;-0.31500
4494443;-0.30000
4497221;-0.30500
4499999;-0.31500
4502777;-0.32000
4505554;-0.32500
4508332;-0.33000
4511110;-0.33000
4513888;-0.30500
4516665;-0.30000
4519443;-0.32000
4522221;-0.32000
4524999;-0.31500
4527777;-0.31000
4530554;-0.30000
4533332;-0.30500
4536110;-0.30500
4538888;-0.32000
4541665;-0.31500
4544443;-0.30000
4547221;-0.29500
4549999;-0.29500
4552777;-0.30500
4555554;-0.32000
4558332;-0.30500
4561110;-0.30000
4563888;-0.29500
4566665;-0.30500
4569443;-0.30000
4572221;-0.30000
4574999;-0.31000
4577776;-0.28500
4580554;-0.26500
4583332;-0.24500
4586110;-0.24000
4588888;-0.24500
4591665;-0.23500
4594443;-0.23000
4597221;-0.22500
4599999;-0.22500
4602776;-0.22500
4605554;-0.23500
4608332;-0.22000
4611110;-0.20500
4613888;-0.19000
4616665;-0.17500
4619443;-0.18500
4622221;-0.20000
4624999;-0.20500
4627776;-0.18000
4630554;-0.19000
4633332;-0.20500
4636110;-0.21500
4638888;-0.22500
4641665;-0.22500
4644443;-0.19500
4647221;-0.20000
4649999;-0.21500
4652776;-0.21500
4655554;-0.21500
4658332;-0.18500
4661110;-0.16500
4663888;-0.17500
4666665;-0.20500
4669443;-0.24500
4672221;-0.27000
4674999;-0.27000
4677776;-0.28000
4680554;-0.28000
4683332;-0.31000
4686110;-0.31500
4688888;-0.33000
4691665;-0.32500
4694443;-0.31500
4697221;-0.30000
4699999;-0.30500
4702776;-0.33000
4705554;-0.32000
4708332;-0.33000
4711110;-0.32500
4713888;-0.32000
4716665;-0.32500
4719443;-0.33500
4722221;-0.35000
4724999;-0.34500
4727776;-0.33000
4730554;-0.31500
4733332;-0.32500
4736110;-0.33500
4738888;-0.33000
4741665;-0.34000
4744443;-0.32000
4747221;-0.32500
4749999;-0.34000
4752776;-0.38000
4755554;-0.44000
4758332;-0.46500
4761110;-0.48500
4763888;-0.50000
4766665;-0.52000
4769443;-0.50500
4772221;-0.41000
4774999;-0.23000
4777776;-0.03500
4780554;0.18500
4783332;0.43000
4786110;0.73000
4788888;0.98500
4791665;1.16500
4794443;1.21500
4797221;1.06500
4799999;0.67000
4802776;0.15500
4805554;-0.27000
4808332;-0.45000
4811110;-0.43000
4813888;-0.36000
4816665;-0.33000
4819443;-0.33000
4822221;-0.35000
4824999;-0.35500
4827776;-0.34500
4830554;-0.35000
4833332;-0.35500
4836110;-0.36500
4838888;-0.37000
4841665;-0.36500
4844443;-0.36500
4847221;-0.35000
4849999;-0.36000
4852776;-0.36500
4855554;-0.38000
4858332;-0.37000
4861110;-0.37500
4863888;-0.37000
4866665;-0.38500
4869443;-0.39000
4872221;-0.38500
4874999;-0.39500
4877776;-0.38000
4880554;-0.38500
4883332;-0.38500
4886110;-0.39000
4888888;-0.41000
4891665;-0.39500
4894443;-0.40000
4897221;-0.37500
4899999;-0.38000
4902776;-0.38500
4905554;-0.40500
4908332;-0.39500
4911110;-0.38500
4913888;-0.38000
4916665;-0.37500
4919443;-0.38500
4922221;-0.39000
4924999;-0.39500
4927776;-0.38500
4930554;-0.38500
4933332;-0.38500
4936110;-0.39000
4938888;-0.40000
4941665;-0.39000
4944443;-0.38500
4947221;-0.39000
4949999;-0.39000
4952776;-0.39500
4955554;-0.41500
4958332;-0.40000
4961110;-0.39000
4963887;-0.38500
4966665;-0.39000
4969443;-0.39000
4972221;-0.40000
4974999;-0.40000
4977776;-0.39000
4980554;-0.39000
4983332;-0.39000
4986110;-0.39000
4988887;-0.40000
4991665;-0.41000
4994443;-0.39500
4997221;-0.38500
4999999;-0.39000
5002776;-0.40000
5005554;-0.42500
5008332;-0.41500
5011110;-0.40500
5013887;-0.39000
5016665;-0.40000
5019443;-0.40500
5022221;-0.42000
5024999;-0.41500
5027776;-0.39500
5030554;-0.40000
5033332;-0.41000
5036110;-0.41500
5038887;-0.41500
5041665;-0.41000
5044443;-0.40000
5047221;-0.39500
5049999;-0.40500
5052776;-0.41000
5055554;-0.42000
5058332;-0.41500
5061110;-0.40500
5063887;-0.39500
5066665;-0.40000
5069443;-0.39500
5072221;-0.41000
5074999;-0.39000
5077776;-0.35500
5080554;-0.35000
5083332;-0.35500
5086110;-0.34000
5088887;-0.34500
5091665;-0.33000
5094443;-0.31500
5097221;-0.30000
5099999;-0.30000
5102776;-0.29000
5105554;-0.29000
5108332;-0.29000
5111110;-0.28000
5113887;-0.27000
5116665;-0.26500
5119443;-0.27000
5122221;-0.27000
5124999;-0.25500
5127776;-0.25500
5130554;-0.24000
5133332;-0.25000
5136110;-0.25000
5138887;-0.26000
5141665;-0.25500
5144443;-0.24500
5147221;-0.24500
5149999;-0.23500
5152776;-0.25000
5155554;-0.26000
5158332;-0.25500
5161110;-0.24500
5163887;-0.24000
5166665;-0.25000
5169443;-0.26000
5172221;-0.27000
5174999;-0.26000
5177776;-0.25500
5180554;-0.24500
5183332;-0.25000
5186110;-0.26500
5188887;-0.27000
5191665;-0.26500
5194443;-0.25500
5197221;-0.25500
5199999;-0.25500
5202776;-0.26000
5205554;-0.26500
5208332;-0.27000
5211110;-0.27000
5213887;-0.26000
5216665;-0.26000
5219443;-0.27500
5222221;-0.28000
5224999;-0.28500
5227776;-0.28000
5230554;-0.28000
5233332;-0.28000
5236110;-0.27500
5238887;-0.29500
5241665;-0.29000
5244443;-0.28500
5247221;-0.28500
5249999;-0.28500
5252776;-0.29000
5255554;-0.30000
5258332;-0.29500
5261110;-0.29000
5263887;-0.29000
5266665;-0.29500
5269443;-0.30000
5272221;-0.31000
5274999;-0.30000
5277776;-0.29000
5280554;-0.29500
5283332;-0.29500
5286110;-0.31000
5288887;-0.31500
5291665;-0.30500
5294443;-0.31000
5297221;-0.29500
5299999;-0.30000
5302776;-0.30000
5305554;-0.31500
5308332;-0.32000
5311110;-0.30500
5313887;-0.29000
5316665;-0.29500
5319443;-0.30500
5322221;-0.30500
5324999;-0.30500
5327776;-0.28500
5330554;-0.29000
5333332;-0.28000
5336110;-0.29500
5338887;-0.29500
5341665;-0.29500
5344443;-0.29000
5347221;-0.28500
5349999;-0.28000
5352776;-0.29000
5355554;-0.29000
5358332;-0.29500
5361110;-0.28000
5363887;-0.27500
5366665;-0.28000
5369443;-0.28500
5372221;-0.30000
5374998;-0.27500
5377776;-0.25500
5380554;-0.25000
5383332;-0.23500
5386110;-0.23000
5388887;-0.22500
5391665;-0.22500
5394443;-0.22500
5397221;-0.22000
5399998;-0.20000
5402776;-0.20500
5405554;-0.20500
5408332;-0.20500
5411110;-0.18000
5413887;-0.16000
5416665;-0.15500
5419443;-0.16000
5422221;-0.17500
5424998;-0.19000
5427776;-0.17500
5430554;-0.18000
5433332;-0.18000
5436110;-0.19500
5438887;-0.19500
5441665;-0.20000
5444443;-0.20000
5447221;-0.19500
5449998;-0.19000
5452776;-0.16000
5455554;-0.16000
5458332;-0.16500
5461110;-0.19500
5463887;-0.23000
5466665;-0.22000
5469443;-0.24000
5472221;-0.26500
5474998;-0.27500
5477776;-0.28000
5480554;-0.28000
5483332;-0.29000
5486110;-0.30500
5488887;-0.31000
5491665;-0.30500
5494443;-0.29500
5497221;-0.28000
5499998;-0.29000
5502776;-0.29500
5505554;-0.30500
5508332;-0.31000
5511110;-0.30000
5513887;-0.30000
5516665;-0.30000
5519443;-0.30500
5522221;-0.31500
5524998;-0.30500
5527776;-0.30000
5530554;-0.29500
5533332;-0.28500
5536110;-0.30500
5538887;-0.31500
5541665;-0.31500
5544443;-0.31500
5547221;-0.32000
5549998;-0.35500
5552776;-0.40000
5555554;-0.44500
5558332;-0.45500
5561110;-0.47500
5563887;-0.50500
5566665;-0.53500
5569443;-0.47000
5572221;-0.36000
5574998;-0.18500
5577776;-0.03000
5580554;0.14000
5583332;0.36500
5586110;0.64500
5588887;0.89000
5591665;1.08000
5594443;1.16000
5597221;1.06500
5599998;0.71500
5602776;0.21500
5605554;-0.20000
5608332;-0.42000
5611110;-0.43000
5613887;-0.35500
5616665;-0.31000
5619443;-0.30000
5622221;-0.32000
5624998;-0.33000
5627776;-0.32000
5630554;-0.31500
5633332;-0.33500
5636110;-0.34500
5638887;-0.34000
5641665;-0.33500
5644443;-0.34000
5647221;-0.32000
5649998;-0.32500
5652776;-0.32500
5655554;-0.33500
5658332;-0.34500
5661110;-0.33500
5663887;-0.32000
5666665;-0.34000
5669443;-0.35000
5672221;-0.36000
5674998;-0.36000
5677776;-0.35500
5680554;-0.34500
5683332;-0.33500
5686110;-0.35500
5688887;-0.36000
5691665;-0.36000
5694443;-0.35500
5697221;-0.34000
5699998;-0.33000
5702776;-0.34000
5705554;-0.35000
5708332;-0.35500
5711110;-0.32500
5713887;-0.32000
5716665;-0.32500
5719443;-0.33000
5722221;-0.34500
5724998;-0.33500
5727776;-0.33000
5730554;-0.32000
5733332;-0.32500
5736110;-0.33500
5738887;-0.34500
5741665;-0.35000
5744443;-0.35500
5747221;-0.35000
5749998;-0.35500
5752776;-0.35500
5755554;-0.36000
5758332;-0.37000
5761109;-0.36000
5763887;-0.35000
5766665;-0.35500
5769443;-0.36500
5772221;-0.37500
5774998;-0.36000
5777776;-0.35000
5780554;-0.34500
5783332;-0.34500
5786109;-0.36500
5788887;-0.36000
5791665;-0.37500
5794443;-0.36000
5797221;-0.36500
5799998;-0.35500
5802776;-0.37000
5805554;-0.39000
5808332;-0.37000
5811109;-0.35500
5813887;-0.34500
5816665;-0.35000
5819443;-0.36500
5822221;-0.38000
5824998;-0.37000
5827776;-0.37000
5830554;-0.36000
5833332;-0.37500
5836109;-0.38500
5838887;-0.40000
5841665;-0.39000
5844443;-0.37500
5847221;-0.36500
5849998;-0.36500
5852776;-0.38000
5855554;-0.38500
5858332;-0.38000
5861109;-0.37000
5863887;-0.34500
5866665;-0.34000
5869443;-0.35000
5872221;-0.34500
5874998;-0.33500
5877776;-0.31000
5880554;-0.29000
5883332;-0.28500
5886109;-0.28500
5888887;-0.29000
5891665;-0.27000
5894443;-0.25000
5897221;-0.25500
5899998;-0.24500
5902776;-0.26000
5905554;-0.27500
5908332;-0.27000
5911109;-0.23500
5913887;-0.23500
5916665;-0.23500
5919443;-0.23000
5922221;-0.23000
5924998;-0.24000
5927776;-0.22000
5930554;-0.23000
5933332;-0.21000
5936109;-0.22000
5938887;-0.24000
5941665;-0.23500
5944443;-0.21500
5947221;-0.22000
5949998;-0.21500
5952776;-0.22500
5955554;-0.24000
5958332;-0.24500
5961109;-0.23000
5963887;-0.23500
5966665;-0.23000
5969443;-0.25000
5972221;-0.23500
5974998;-0.23500
5977776;-0.23000
5980554;-0.22500
5983332;-0.22500
5986109;-0.23500
5988887;-0.25000
5991665;-0.25000
5994443;-0.25000
5997221;-0.24500
5999998;-0.24000
6002776;-0.25500
6005554;-0.26000
6008332;-0.26000
6011109;-0.26500
6013887;-0.28500
6016665;-0.26500
6019443;-0.27500
6022221;-0.28000
6024998;-0.27000
6027776;-0.26000
6030554;-0.26000
6033332;-0.26000
6036109;-0.27500
6038887;-0.28000
6041665;-0.28500
6044443;-0.27500
6047221;-0.27500
6049998;-0.28500
6052776;-0.29000
6055554;-0.30500
6058332;-0.29500
6061109;-0.29500
6063887;-0.28500
6066665;-0.29500
6069443;-0.29500
6072221;-0.31500
6074998;-0.31500
6077776;-0.32000
6080554;-0.30000
6083332;-0.31500
6086109;-0.30000
6088887;-0.29500
6091665;-0.28500
6094443;-0.29000
6097221;-0.27000
6099998;-0.28000
6102776;-0.29000
6105554;-0.29500
6108332;-0.28000
6111109;-0.27000
6113887;-0.28500
6116665;-0.27500
6119443;-0.28000
6122221;-0.30500
6124998;-0.29000
6127776;-0.28500
6130554;-0.27500
6133332;-0.28500
6136109;-0.28500
6138887;-0.28500
6141665;-0.27500
6144443;-0.27000
6147221;-0.25000
6149998;-0.24000
6152776;-0.23500
6155554;-0.24000
6158332;-0.23000
6161109;-0.22000
6163887;-0.20500
6166665;-0.21000
6169443;-0.21000
6172220;-0.21000
6174998;-0.20500
6177776;-0.19000
6180554;-0.17000
6183332;-0.17500
6186109;-0.19000
6188887;-0.20000
6191665;-0.20500
6194443;-0.20000
6197220;-0.17500
6199998;-0.18000
6202776;-0.19500
6205554;-0.20500
6208332;-0.22000
6211109;-0.21000
6213887;-0.19500
6216665;-0.18000
6219443;-0.18000
6222220;-0.21000
6224998;-0.24500
6227776;-0.25000
6230554;-0.24500
6233332;-0.24500
6236109;-0.27500
6238887;-0.29000
6241665;-0.30000
6244443;-0.28500
6247220;-0.29000
6249998;-0.30000
6252776;-0.32000
6255554;-0.33000
6258332;-0.32000
6261109;-0.30500
6263887;-0.29500
6266665;-0.31500
6269443;-0.31500
6272220;-0.35000
6274998;-0.34000
6277776;-0.32000
6280554;-0.29500
6283332;-0.29500
6286109;-0.30500
6288887;-0.33500
6291665;-0.33000
6294443;-0.33500
6297220;-0.33500
6299998;-0.33500
6302776;-0.33000
6305554;-0.34000
6308332;-0.32500
6311109;-0.32500
6313887;-0.34500
6316665;-0.38500
6319443;-0.42000
6322220;-0.46000
6324998;-0.48000
6327776;-0.51500
6330554;-0.52500
6333332;-0.45500
6336109;-0.31500
6338887;-0.16000
6341665;0.03500
6344443;0.24500
6347220;0.52000
6349998;0.79000
6352776;0.97000
6355554;1.03000
6358332;0.95000
6361109;0.66000
6363887;0.24000
6366665;-0.13000
6369443;-0.35500
6372220;-0.45500
6374998;-0.47000
6377776;-0.46500
6380554;-0.44500
6383332;-0.41500
6386109;-0.40000
6388887;-0.39500
6391665;-0.38500
6394443;-0.38000
6397220;-0.36500
6399998;-0.35500
6402776;-0.36000
6405554;-0.36500
6408332;-0.37000
6411109;-0.37000
6413887;-0.37000
6416665;-0.38000
6419443;-0.39000
6422220;-0.38000
6424998;-0.38500
6427776;-0.36500
6430554;-0.36500
6433332;-0.37500
6436109;-0.37500
6438887;-0.38000
6441665;-0.37000
6444443;-0.37000
6447220;-0.36500
6449998;-0.36500
6452776;-0.37000
6455554;-0.38000
6458332;-0.37500
6461109;-0.36500
6463887;-0.35000
6466665;-0.36000
6469443;-0.37500
6472220;-0.38500
6474998;-0.37500
6477776;-0.36500
6480554;-0.36000
6483332;-0.36500
6486109;-0.38500
6488887;-0.39500
6491665;-0.38500
6494443;-0.38000
6497220;-0.37500
6499998;-0.38000
6502776;-0.39000
6505554;-0.39000
6508332;-0.38500
6511109;-0.38500
6513887;-0.37000
6516665;-0.37000
6519443;-0.38500
6522220;-0.38500
6524998;-0.39000
6527776;-0.37500
6530554;-0.36500
6533332;-0.35500
6536109;-0.37500
6538887;-0.38500
6541665;-0.38000
6544443;-0.37500
6547220;-0.36000
6549998;-0.37000
6552776;-0.37000
6555554;-0.38500
6558331;-0.39000
6561109;-0.38500
6563887;-0.38000
6566665;-0.38000
6569443;-0.39000
6572220;-0.40500
6574998;-0.40500
6577776;-0.40500
6580554;-0.39500
6583331;-0.40000
6586109;-0.41500
6588887;-0.42500
6591665;-0.42500
6594443;-0.41500
6597220;-0.41000
6599998;-0.42000
6602776;-0.43500
6605554;-0.43000
6608331;-0.43500
6611109;-0.42500
6613887;-0.41500
6616665;-0.42000
6619443;-0.43500
6622220;-0.43000
6624998;-0.42500
6627776;-0.41000
6630554;-0.40000
6633331;-0.39500
6636109;-0.38000
6638887;-0.37500
6641665;-0.36500
6644443;-0.33000
6647220;-0.32000
6649998;-0.30500
6652776;-0.30000
6655554;-0.31000
6658331;-0.29500
6661109;-0.27000
6663887;-0.25000
6666665;-0.24500
6669443;-0.24000
6672220;-0.25000
6674998;-0.24000
6677776;-0.22500
6680554;-0.21500
6683331;-0.22000
6686109;-0.22000
6688887;-0.23500
6691665;-0.24500
6694443;-0.23000
6697220;-0.22000
6699998;-0.21500
6702776;-0.21500
6705554;-0.22000
6708331;-0.22000
6711109;-0.22000
6713887;-0.21000
6716665;-0.21000
6719443;-0.22000
6722220;-0.23000
6724998;-0.24000
6727776;-0.22000
6730554;-0.21500
6733331;-0.22000
6736109;-0.23000
6738887;-0.23500
6741665;-0.23000
6744443;-0.23500
6747220;-0.21000
6749998;-0.20500
6752776;-0.23000
6755554;-0.24000
6758331;-0.24000
6761109;-0.25000
6763887;-0.22500
6766665;-0.22500
6769443;-0.23500
6772220;-0.25000
6774998;-0.24500
6777776;-0.24500
6780554;-0.23500
6783331;-0.23000
6786109;-0.24500
6788887;-0.25000
6791665;-0.24000
6794443;-0.24000
6797220;-0.22500
6799998;-0.23500
6802776;-0.24500
6805554;-0.24500
6808331;-0.27000
6811109;-0.25000
6813887;-0.24000
6816665;-0.24000
6819443;-0.24500
6822220;-0.25500
6824998;-0.25000
6827776;-0.25000
6830554;-0.25500
6833331;-0.24000
6836109;-0.25000
6838887;-0.25500
6841665;-0.26000
6844443;-0.25000
6847220;-0.24000
6849998;-0.24000
6852776;-0.25000
6855554;-0.25000
6858331;-0.25000
6861109;-0.23000
6863887;-0.23000
6866665;-0.23000
6869443;-0.23500
6872220;-0.24500
6874998;-0.23000
6877776;-0.23000
6880554;-0.23000
6883331;-0.22000
6886109;-0.24000
6888887;-0.25000
6891665;-0.23500
6894443;-0.23000
6897220;-0.22000
6899998;-0.22000
6902776;-0.23500
6905554;-0.25000
6908331;-0.24000
6911109;-0.23000
6913887;-0.21500
6916665;-0.21000
6919443;-0.20000
6922220;-0.21000
6924998;-0.18500
6927776;-0.16500
6930554;-0.15000
6933331;-0.15500
6936109;-0.16000
6938887;-0.16000
6941665;-0.14000
6944442;-0.13000
6947220;-0.11000
6949998;-0.10000
6952776;-0.11500
6955554;-0.13000
6958331;-0.14000
6961109;-0.13000
6963887;-0.12000
6966665;-0.13000
6969442;-0.15500
6972220;-0.15000
6974998;-0.15500
6977776;-0.15000
6980554;-0.16000
6983331;-0.13500
6986109;-0.12000
6988887;-0.11500
6991665;-0.11500
6994442;-0.14500
6997220;-0.17000
6999998;-0.18000
7002776;-0.19500
7005554;-0.22500
7008331;-0.24000
7011109;-0.22000
7013887;-0.22500
7016665;-0.23000
7019442;-0.24500
7022220;-0.25500
7024998;-0.25000
7027776;-0.24500
7030554;-0.23000
7033331;-0.25000
7036109;-0.24500
7038887;-0.26500
7041665;-0.26000
7044442;-0.25500
7047220;-0.24500
7049998;-0.25000
7052776;-0.25000
7055554;-0.27000
7058331;-0.26500
7061109;-0.25500
7063887;-0.25000
7066665;-0.25000
7069442;-0.25000
7072220;-0.27000
7074998;-0.27500
7077776;-0.26000
7080554;-0.25500
7083331;-0.26500
7086109;-0.26500
7088887;-0.28000
7091665;-0.30000
7094442;-0.33500
7097220;-0.37000
7099998;-0.39500
7102776;-0.43000
7105554;-0.47000
7108331;-0.44500
7111109;-0.33500
7113887;-0.16500
7116665;0.02500
7119442;0.20500
7122220;0.43500
7124998;0.72500
7127776;0.98500
7130554;1.16000
7133331;1.22000
7136109;1.15500
7138887;0.85000
7141665;0.36000
7144442;-0.09000
7147220;-0.33500
7149998;-0.39000
7152776;-0.35000
7155554;-0.29500
7158331;-0.28000
7161109;-0.27500
7163887;-0.27500
7166665;-0.28000
7169442;-0.28500
7172220;-0.30500
7174998;-0.30500
7177776;-0.30000
7180554;-0.28500
7183331;-0.30000
7186109;-0.31000
7188887;-0.31000
7191665;-0.30500
7194442;-0.30000
7197220;-0.29000
7199998;-0.29000
7202776;-0.30000
7205554;-0.31000
7208331;-0.32500
7211109;-0.30000
7213887;-0.30500
7216665;-0.30000
7219442;-0.31500
7222220;-0.32000
7224998;-0.31500
7227776;-0.30000
7230554;-0.29500
7233331;-0.30000
7236109;-0.30500
7238887;-0.32000
7241665;-0.31000
7244442;-0.31000
7247220;-0.29500
7249998;-0.32000
7252776;-0.32000
7255554;-0.32500
7258331;-0.32000
7261109;-0.32500
7263887;-0.31500
7266665;-0.31000
7269442;-0.32000
7272220;-0.34000
7274998;-0.32500
7277776;-0.32000
7280554;-0.31500
7283331;-0.31500
7286109;-0.33000
7288887;-0.33000
7291665;-0.33500
7294442;-0.33000
7297220;-0.32000
7299998;-0.31500
7302776;-0.32500
7305554;-0.33500
7308331;-0.33500
7311109;-0.32500
7313887;-0.32000
7316665;-0.31500
7319442;-0.33000
7322220;-0.34500
7324998;-0.34500
7327776;-0.32500
7330554;-0.32000
7333331;-0.31500
7336109;-0.32000
7338887;-0.33500
7341665;-0.33000
7344442;-0.34500
7347220;-0.32500
7349998;-0.33000
7352776;-0.34000
7355553;-0.35000
7358331;-0.34000
7361109;-0.34000
7363887;-0.34000
7366665;-0.33500
7369442;-0.34000
7372220;-0.35000
7374998;-0.35000
7377776;-0.33000
7380553;-0.32500
7383331;-0.33500
7386109;-0.34000
7388887;-0.37000
7391665;-0.36000
7394442;-0.35000
7397220;-0.34000
7399998;-0.33000
7402776;-0.34000
7405553;-0.34000
7408331;-0.33500
7411109;-0.32000
7413887;-0.30000
7416665;-0.30000
7419442;-0.28000
7422220;-0.27500
7424998;-0.27000
7427776;-0.25500
7430553;-0.24500
7433331;-0.22500
7436109;-0.22500
7438887;-0.23500
7441665;-0.23000
7444442;-0.20500
7447220;-0.19000
7449998;-0.19000
7452776;-0.18500
7455553;-0.19500
7458331;-0.19500
7461109;-0.18500
7463887;-0.17500
7466665;-0.18500
7469442;-0.19000
7472220;-0.19000
7474998;-0.19000
7477776;-0.18000
7480553;-0.18000
7483331;-0.18000
7486109;-0.18000
7488887;-0.18500
7491665;-0.20000
7494442;-0.19500
7497220;-0.18500
7499998;-0.18000
7502776;-0.19000
7505553;-0.20000
7508331;-0.20500
7511109;-0.19000
7513887;-0.18000
7516665;-0.19000
7519442;-0.19500
7522220;-0.21000
7524998;-0.21000
7527776;-0.19500
7530553;-0.18500
7533331;-0.20000
7536109;-0.22000
7538887;-0.22000
7541665;-0.20500
7544442;-0.20500
7547220;-0.20500
7549998;-0.22000
7552776;-0.22000
7555553;-0.22500
7558331;-0.23000
7561109;-0.23000
7563887;-0.23000
7566665;-0.22500
7569442;-0.23000
7572220;-0.23000
7574998;-0.23500
7577776;-0.23000
7580553;-0.24000
7583331;-0.24000
7586109;-0.25000
7588887;-0.24500
7591665;-0.25500
7594442;-0.23500
7597220;-0.24000
7599998;-0.23500
7602776;-0.24500
7605553;-0.25000
7608331;-0.25500
7611109;-0.24500
7613887;-0.23000
7616665;-0.23000
7619442;-0.25000
7622220;-0.25000
7624998;-0.25000
7627776;-0.25000
7630553;-0.23000
7633331;-0.25000
7636109;-0.26500
7638887;-0.26000
7641665;-0.25500
7644442;-0.25000
7647220;-0.23000
7649998;-0.24000
7652776;-0.24500
7655553;-0.24000
7658331;-0.25000
7661109;-0.23500
7663887;-0.23000
7666665;-0.22500
7669442;-0.22500
7672220;-0.22000
7674998;-0.21500
7677776;-0.20000
7680553;-0.16500
7683331;-0.16000
7686109;-0.15500
7688887;-0.18000
7691665;-0.16000
7694442;-0.14500
7697220;-0.12000
7699998;-0.13500
7702776;-0.13000
7705553;-0.13500
7708331;-0.13500
7711109;-0.11500
7713887;-0.10500
7716665;-0.09000
7719442;-0.11500
7722220;-0.12500
7724998;-0.13000
7727776;-0.13500
7730553;-0.13000
7733331;-0.13500
7736109;-0.14500
7738887;-0.16000
7741664;-0.13500
7744442;-0.13000
7747220;-0.13500
7749998;-0.13500
7752776;-0.11500
7755553;-0.12500
7758331;-0.12000
7761109;-0.13000
7763887;-0.14500
7766664;-0.18500
7769442;-0.20000
7772220;-0.21500
7774998;-0.23500
7777776;-0.23000
7780553;-0.23000
7783331;-0.24000
7786109;-0.25000
7788887;-0.26000
7791664;-0.25500
7794442;-0.26000
7797220;-0.24500
7799998;-0.25000
7802776;-0.26500
7805553;-0.27500
7808331;-0.27500
7811109;-0.26500
7813887;-0.25500
7816664;-0.26000
7819442;-0.26500
7822220;-0.26500
7824998;-0.26500
7827776;-0.25500
7830553;-0.25500
7833331;-0.24500
7836109;-0.26500
7838887;-0.29500
7841664;-0.31500
7844442;-0.35500
7847220;-0.37500
7849998;-0.39500
7852776;-0.43500
7855553;-0.47000
7858331;-0.45500
7861109;-0.36000
7863887;-0.21500
7866664;-0.06500
7869442;0.08000
7872220;0.23000
7874998;0.44000
7877776;0.69000
7880553;0.91500
7883331;1.09000
7886109;1.18500
7888887;1.25000
7891664;1.27000
7894442;1.14500
7897220;0.83000
7899998;0.38500
7902776;-0.05000
7905553;-0.31500
7908331;-0.39500
7911109;-0.34000
7913887;-0.27500
7916664;-0.26000
7919442;-0.28000
7922220;-0.30500
7924998;-0.31000
7927776;-0.30000
7930553;-0.29000
7933331;-0.29000
7936109;-0.31500
7938887;-0.32000
7941664;-0.32500
7944442;-0.31000
7947220;-0.29500
7949998;-0.29500
7952776;-0.30000
7955553;-0.32000
7958331;-0.32500
7961109;-0.31500
7963887;-0.30000
7966664;-0.30500
7969442;-0.31000
7972220;-0.32500
7974998;-0.32500
7977776;-0.31500
7980553;-0.31000
7983331;-0.32000
7986109;-0.32000
7988887;-0.32500
7991664;-0.32500
7994442;-0.32000
7997220;-0.30500
7999998;-0.30500
8002776;-0.32500
8005553;-0.34000
8008331;-0.34000
8011109;-0.33000
8013887;-0.32000
8016664;-0.31500
8019442;-0.33000
8022220;-0.33500
8024998;-0.34000
8027776;-0.32500
8030553;-0.31000
8033331;-0.33000
8036109;-0.32000
8038887;-0.33500
8041664;-0.34000
8044442;-0.32500
8047220;-0.32500
8049998;-0.32500
8052776;-0.34500
8055553;-0.34500
8058331;-0.33500
8061109;-0.34500
8063887;-0.32500
8066664;-0.32500
8069442;-0.33000
8072220;-0.34000
8074998;-0.34000
8077776;-0.34500
8080553;-0.34000
8083331;-0.33500
8086109;-0.33500
8088887;-0.35000
8091664;-0.34500
8094442;-0.34500
8097220;-0.33000
8099998;-0.33500
8102776;-0.33500
8105553;-0.35000
8108331;-0.35500
8111109;-0.35500
8113887;-0.33000
8116664;-0.34000
8119442;-0.34000
8122220;-0.35500
8124998;-0.35500
8127776;-0.35500
8130553;-0.34000
8133331;-0.35000
8136109;-0.34500
8138887;-0.35000
8141664;-0.35000
8144442;-0.35000
8147220;-0.33000
8149998;-0.33500
8152775;-0.33500
8155553;-0.33500
8158331;-0.33500
8161109;-0.32000
8163887;-0.30000
8166664;-0.29500
8169442;-0.29000
8172220;-0.30000
8174998;-0.29000
8177775;-0.26500
8180553;-0.24000
8183331;-0.24000
8186109;-0.24000
8188887;-0.24000
8191664;-0.24500
8194442;-0.22500
8197220;-0.21500
8199998;-0.21000
8202775;-0.21500
8205553;-0.22500
8208331;-0.21500
8211109;-0.20000
8213887;-0.19500
8216664;-0.20500
8219442;-0.21500
8222220;-0.22500
8224998;-0.23000
8227775;-0.23000
8230553;-0.20500
8233331;-0.21000
8236109;-0.21000
8238887;-0.21500
8241664;-0.22500
8244442;-0.22000
8247220;-0.21500
8249998;-0.21500
8252775;-0.21500
8255553;-0.22500
8258331;-0.22500
8261109;-0.23000
8263887;-0.22000
8266664;-0.22000
8269442;-0.23000
8272220;-0.23000
8274998;-0.21500
8277775;-0.22500
8280553;-0.22000
8283331;-0.22500
8286109;-0.23000
8288887;-0.24500
8291664;-0.24500
8294442;-0.24000
8297220;-0.23500
8299998;-0.24500
8302775;-0.25500
8305553;-0.27000
8308331;-0.26500
8311109;-0.26000
8313887;-0.25500
8316664;-0.26000
8319442;-0.27000
8322220;-0.28500
8324998;-0.28000
8327775;-0.27500
8330553;-0.26500
8333331;-0.25000
8336109;-0.26500
8338887;-0.27500
8341664;-0.28500
8344442;-0.27500
8347220;-0.26500
8349998;-0.26500
8352775;-0.27000
8355553;-0.28500
8358331;-0.29500
8361109;-0.29500
8363887;-0.29500
8366664;-0.29000
8369442;-0.28500
8372220;-0.29500
8374998;-0.30000
8377775;-0.29500
8380553;-0.28000
8383331;-0.28500
8386109;-0.28500
8388887;-0.29500
8391664;-0.29500
8394442;-0.28500
8397220;-0.28000
8399998;-0.27500
8402775;-0.27500
8405553;-0.27000
8408331;-0.27500
8411109;-0.27000
8413887;-0.27000
8416664;-0.26000
8419442;-0.28500
8422220;-0.28500
8424998;-0.28500
8427775;-0.28500
8430553;-0.28000
8433331;-0.28000
8436109;-0.28500
8438887;-0.29000
8441664;-0.28000
8444442;-0.27500
8447220;-0.27000
8449998;-0.26000
8452775;-0.26000
8455553;-0.26000
8458331;-0.24500
8461109;-0.23000
8463887;-0.19500
8466664;-0.20000
8469442;-0.20500
8472220;-0.20500
8474998;-0.22000
8477775;-0.19500
8480553;-0.17500
8483331;-0.17500
8486109;-0.17000
8488887;-0.17000
8491664;-0.17000
8494442;-0.16000
8497220;-0.14000
8499998;-0.14500
8502775;-0.15500
8505553;-0.16000
8508331;-0.16500
8511109;-0.16000
8513887;-0.15000
8516664;-0.17000
8519442;-0.18000
8522220;-0.20000
8524998;-0.19500
8527775;-0.18500
8530553;-0.17500
8533331;-0.19500
8536109;-0.20000
8538886;-0.20000
8541664;-0.18500
8544442;-0.14500
8547220;-0.13000
8549998;-0.16000
8552775;-0.18500
8555553;-0.22500
8558331;-0.24000
8561109;-0.24000
8563886;-0.24000
8566664;-0.25500
8569442;-0.27500
8572220;-0.28000
8574998;-0.29000
8577775;-0.28500
8580553;-0.28000
8583331;-0.29000
8586109;-0.29500
8588886;-0.30000
8591664;-0.29500
8594442;-0.30000
8597220;-0.30000
8599998;-0.29500
8602775;-0.29500
8605553;-0.31500
8608331;-0.32000
8611109;-0.31000
8613886;-0.31500
8616664;-0.30500
8619442;-0.31500
8622220;-0.31500
8624998;-0.31000
8627775;-0.30000
8630553;-0.29000
8633331;-0.30000
8636109;-0.30500
8638886;-0.34500
8641664;-0.39000
8644442;-0.40000
8647220;-0.41000
8649998;-0.45000
8652775;-0.50500
8655553;-0.52000
8658331;-0.49500
8661109;-0.36500
8663886;-0.23000
8666664;-0.12000
8669442;0.00000
8672220;0.14500
8674998;0.34500
8677775;0.56000
8680553;0.74500
8683331;0.84500
8686109;0.91500
8688886;0.99000
8691664;1.07000
8694442;1.14500
8697220;1.18000
8699998;1.12000
8702775;0.92500
8705553;0.58000
8708331;0.16500
8711109;-0.18500
8713886;-0.37500
8716664;-0.44000
8719442;-0.40500
8722220;-0.38000
8724998;-0.36000
8727775;-0.34000
8730553;-0.33000
8733331;-0.34000
8736109;-0.34000
8738886;-0.35000
8741664;-0.35500
8744442;-0.35000
8747220;-0.35000
8749998;-0.35500
8752775;-0.36500
8755553;-0.37000
8758331;-0.37500
8761109;-0.36500
8763886;-0.36000
8766664;-0.36500
8769442;-0.37000
8772220;-0.38500
8774998;-0.39500
8777775;-0.38000
8780553;-0.36000
8783331;-0.36500
8786109;-0.37000
8788886;-0.37500
8791664;-0.38500
8794442;-0.39000
8797220;-0.37500
8799998;-0.37000
8802775;-0.37500
8805553;-0.39000
8808331;-0.39000
8811109;-0.38000
8813886;-0.38000
8816664;-0.38000
8819442;-0.39000
8822220;-0.39000
8824998;-0.40000
8827775;-0.39000
8830553;-0.37500
8833331;-0.39000
8836109;-0.40000
8838886;-0.40500
8841664;-0.40500
8844442;-0.39500
8847220;-0.39000
8849998;-0.39500
8852775;-0.39000
8855553;-0.40500
8858331;-0.41500
8861109;-0.41000
8863886;-0.39500
8866664;-0.39000
8869442;-0.39500
8872220;-0.40500
8874998;-0.39500
8877775;-0.38500
8880553;-0.38000
8883331;-0.39000
8886109;-0.38500
8888886;-0.39500
8891664;-0.40000
8894442;-0.39500
8897220;-0.37500
8899998;-0.38500
8902775;-0.39500
8905553;-0.39500
8908331;-0.40000
8911109;-0.39500
8913886;-0.38000
8916664;-0.39500
8919442;-0.39000
8922220;-0.41000
8924998;-0.41500
8927775;-0.41000
8930553;-0.40500
8933331;-0.41500
8936109;-0.42000
8938886;-0.41500
8941664;-0.41000
8944442;-0.40000
8947220;-0.40000
8949997;-0.40500
8952775;-0.40500
8955553;-0.43000
8958331;-0.44000
8961109;-0.43000
8963886;-0.42500
8966664;-0.41000
8969442;-0.41000
8972220;-0.42000
8974997;-0.42500
8977775;-0.42500
8980553;-0.42000
8983331;-0.42000
8986109;-0.42000
8988886;-0.41500
8991664;-0.40500
8994442;-0.40000
8997220;-0.39000
8999997;-0.37500
9002775;-0.38000
9005553;-0.36000
9008331;-0.36000
9011109;-0.33000
9013886;-0.32000
9016664;-0.31500
9019442;-0.31500
9022220;-0.32000
9024997;-0.33000
9027775;-0.31500
9030553;-0.29500
9033331;-0.30500
9036109;-0.30500
9038886;-0.30000
9041664;-0.30500
9044442;-0.29000
9047220;-0.27500
9049997;-0.29500
9052775;-0.30000
9055553;-0.30500
9058331;-0.30500
9061109;-0.28500
9063886;-0.28000
9066664;-0.29000
9069442;-0.29000
9072220;-0.29000
9074997;-0.30000
9077775;-0.28000
9080553;-0.28000
9083331;-0.27500
9086109;-0.28500
9088886;-0.30000
9091664;-0.30500
9094442;-0.30500
9097220;-0.29000
9099997;-0.29500
9102775;-0.29500
9105553;-0.30000
9108331;-0.30500
9111109;-0.30000
9113886;-0.29500
9116664;-0.30500
9119442;-0.30000
9122220;-0.29500
9124997;-0.30500
9127775;-0.31000
9130553;-0.30000
9133331;-0.31500
9136109;-0.32500
9138886;-0.32500
9141664;-0.33000
9144442;-0.31500
9147220;-0.31000
9149997;-0.31500
9152775;-0.33500
9155553;-0.33500
9158331;-0.34500
9161109;-0.33000
9163886;-0.32000
9166664;-0.34500
9169442;-0.34000
9172220;-0.35000
9174997;-0.35500
9177775;-0.35000
9180553;-0.34000
9183331;-0.35000
9186109;-0.35000
9188886;-0.36000
9191664;-0.36000
9194442;-0.36000
9197220;-0.35500
9199997;-0.35500
9202775;-0.36000
9205553;-0.36500
9208331;-0.36000
9211109;-0.34500
9213886;-0.35000
9216664;-0.34500
9219442;-0.35500
9222220;-0.37000
9224997;-0.38000
9227775;-0.38500
9230553;-0.36000
9233331;-0.34500
9236109;-0.35000
9238886;-0.36500
9241664;-0.37500
9244442;-0.36000
9247220;-0.35000
9249997;-0.35000
9252775;-0.35500
9255553;-0.35000
9258331;-0.37500
9261109;-0.37500
9263886;-0.37000
9266664;-0.39000
9269442;-0.38000
9272220;-0.38500
9274997;-0.38500
9277775;-0.35500
9280553;-0.34500
9283331;-0.35500
9286109;-0.35000
9288886;-0.35000
9291664;-0.35000
9294442;-0.33500
9297220;-0.31000
9299997;-0.31500
9302775;-0.30000
9305553;-0.31000
9308331;-0.31000
9311109;-0.29500
9313886;-0.28500
9316664;-0.28000
9319442;-0.29000
9322220;-0.29000
9324997;-0.28500
9327775;-0.26500
9330553;-0.25000
9333331;-0.26000
9336108;-0.27500
9338886;-0.28000
9341664;-0.28000
9344442;-0.26000
9347220;-0.25500
9349997;-0.27000
9352775;-0.27000
9355553;-0.29000
9358331;-0.31000
9361108;-0.30000
9363886;-0.27000
9366664;-0.25500
9369442;-0.23500
9372220;-0.25500
9374997;-0.29000
9377775;-0.31500
9380553;-0.33500
9383331;-0.34000
9386108;-0.35000
9388886;-0.36500
9391664;-0.39500
9394442;-0.39500
9397220;-0.39500
9399997;-0.40500
9402775;-0.38500
9405553;-0.39500
9408331;-0.39500
9411108;-0.40500
9413886;-0.39000
9416664;-0.40500
9419442;-0.41000
9422220;-0.42000
9424997;-0.41500
9427775;-0.40500
9430553;-0.38500
9433331;-0.38500
9436108;-0.39000
9438886;-0.38500
9441664;-0.41000
9444442;-0.41500
9447220;-0.40000
9449997;-0.40000
9452775;-0.40000
9455553;-0.41500
9458331;-0.41000
9461108;-0.40500
9463886;-0.40000
9466664;-0.42500
9469442;-0.47500
9472220;-0.53000
9474997;-0.54500
9477775;-0.55000
9480553;-0.58000
9483331;-0.58500
9486108;-0.53000
9488886;-0.45000
9491664;-0.32500
9494442;-0.15000
9497220;0.06000
9499997;0.29000
9502775;0.55500
9505553;0.75500
9508331;0.89000
9511108;0.93000
9513886;0.78500
9516664;0.41500
9519442;-0.01500
9522220;-0.33000
9524997;-0.49500
9527775;-0.53500
9530553;-0.49500
9533331;-0.48000
9536108;-0.45500
9538886;-0.44500
9541664;-0.46500
9544442;-0.45500
9547220;-0.45000
9549997;-0.44500
9552775;-0.45500
9555553;-0.44500
9558331;-0.44000
9561108;-0.43500
9563886;-0.43000
9566664;-0.43000
9569442;-0.44000
9572220;-0.44500
9574997;-0.45000
9577775;-0.44000
9580553;-0.43000
9583331;-0.44000
9586108;-0.44500
9588886;-0.46500
9591664;-0.45000
9594442;-0.44500
9597220;-0.44500
9599997;-0.44500
9602775;-0.46000
9605553;-0.45500
9608331;-0.47000
9611108;-0.44500
9613886;-0.44500
9616664;-0.44500
9619442;-0.44500
9622220;-0.45500
9624997;-0.46000
9627775;-0.46500
9630553;-0.45000
9633331;-0.44500
9636108;-0.45500
9638886;-0.45500
9641664;-0.45500
9644442;-0.45000
9647220;-0.43000
9649997;-0.44000
9652775;-0.45500
9655553;-0.46500
9658331;-0.47000
9661108;-0.45500
9663886;-0.45000
9666664;-0.45500
9669442;-0.44500
9672220;-0.45000
9674997;-0.45500
9677775;-0.45500
9680553;-0.43500
9683331;-0.44000
9686108;-0.45000
9688886;-0.46500
9691664;-0.46000
9694442;-0.45500
9697220;-0.44500
9699997;-0.45000
9702775;-0.45000
9705553;-0.45500
9708331;-0.45500
9711108;-0.44000
9713886;-0.43000
9716664;-0.43500
9719442;-0.43500
9722220;-0.46000
9724997;-0.46000
9727775;-0.45500
9730553;-0.43500
9733331;-0.43500
9736108;-0.45000
9738886;-0.45000
9741664;-0.46000
9744442;-0.45000
9747219;-0.45500
9749997;-0.46000
9752775;-0.48500
9755553;-0.47500
9758331;-0.48000
9761108;-0.48000
9763886;-0.47000
9766664;-0.48000
9769442;-0.48000
9772219;-0.49000
9774997;-0.49500
9777775;-0.48500
9780553;-0.47500
9783331;-0.47500
9786108;-0.49000
9788886;-0.50000
9791664;-0.49500
9794442;-0.47500
9797219;-0.47500
9799997;-0.47000
9802775;-0.46500
9805553;-0.45000
9808331;-0.44500
9811108;-0.43000
9813886;-0.41000
9816664;-0.39500
9819442;-0.39500
9822219;-0.38500
9824997;-0.38000
9827775;-0.36500
9830553;-0.34000
9833331;-0.33500
9836108;-0.33500
9838886;-0.34000
9841664;-0.34000
9844442;-0.32000
9847219;-0.31000
9849997;-0.30500
9852775;-0.30500
9855553;-0.30000
9858331;-0.31000
9861108;-0.30000
9863886;-0.29500
9866664;-0.28500
9869442;-0.28500
9872219;-0.30500
9874997;-0.30500
9877775;-0.30000
9880553;-0.27500
9883331;-0.27000
9886108;-0.28000
9888886;-0.29500
9891664;-0.30000
9894442;-0.29000
9897219;-0.27000
9899997;-0.27500
9902775;-0.27500
9905553;-0.28500
9908331;-0.28000
9911108;-0.27000
9913886;-0.27000
9916664;-0.26500
9919442;-0.28000
9922219;-0.28000
9924997;-0.29500
9927775;-0.27500
9930553;-0.26500
9933331;-0.26500
9936108;-0.28500
9938886;-0.29000
9941664;-0.29500
9944442;-0.29000
9947219;-0.28500
9949997;-0.28000
9952775;-0.30000
9955553;-0.29000
9958331;-0.30500
9961108;-0.29500
9963886;-0.28500
9966664;-0.28500
9969442;-0.28500
9972219;-0.30000
9974997;-0.30500
9977775;-0.30000
9980553;-0.28500
9983331;-0.29000
9986108;-0.30000
9988886;-0.31000
9991664;-0.31000
9994442;-0.31500
9997219;-0.29000
9999997;-0.29500
10002775;-0.30500
10005553;-0.31500
10008331;-0.31000
10011108;-0.30500
10013886;-0.30500
10016664;-0.29500
10019442;-0.31000
10022219;-0.31000
10024997;-0.31500
10027775;-0.30500
10030553;-0.29500
10033331;-0.30000
10036108;-0.31000
10038886;-0.30500
10041664;-0.32000
10044442;-0.30500
10047219;-0.29000
10049997;-0.30500
10052775;-0.30000
10055553;-0.30000
10058331;-0.31500
10061108;-0.30000
10063886;-0.28000
10066664;-0.28000
10069442;-0.29500
10072219;-0.29500
10074997;-0.31000
10077775;-0.30000
10080553;-0.29500
10083331;-0.28500
10086108;-0.30000
10088886;-0.30000
10091664;-0.30500
10094442;-0.29000
10097219;-0.28500
10099997;-0.29500
10102775;-0.29500
10105553;-0.30000
10108331;-0.29500
10111108;-0.28500
10113886;-0.28000
10116664;-0.27500
10119442;-0.27000
10122219;-0.26500
10124997;-0.25500
10127775;-0.24500
10130553;-0.21500
10133330;-0.21500
10136108;-0.20500
10138886;-0.21500
10141664;-0.21500
10144442;-0.20500
10147219;-0.19000
10149997;-0.18000
10152775;-0.18500
10155553;-0.17500
10158330;-0.18500
10161108;-0.16500
10163886;-0.17000
10166664;-0.17500
10169442;-0.18000
10172219;-0.19000
10174997;-0.21000
10177775;-0.19500
10180553;-0.18500
10183330;-0.19000
10186108;-0.19000
10188886;-0.21000
10191664;-0.20500
10194442;-0.18000
10197219;-0.15000
10199997;-0.14000
10202775;-0.15500
10205553;-0.18500
10208330;-0.21000
10211108;-0.23000
10213886;-0.22000
10216664;-0.22500
10219442;-0.24500
10222219;-0.26000
10224997;-0.28500
10227775;-0.28500
10230553;-0.28000
10233330;-0.29000
10236108;-0.28500
10238886;-0.29500
10241664;-0.30500
10244442;-0.29500
10247219;-0.29000
10249997;-0.30000
10252775;-0.30500
10255553;-0.30500
10258330;-0.31500
10261108;-0.29000
10263886;-0.28500
10266664;-0.29500
10269442;-0.29500
10272219;-0.30500
10274997;-0.30500
10277775;-0.30000
10280553;-0.28500
10283330;-0.28500
10286108;-0.29000
10288886;-0.31500
10291664;-0.32000
10294442;-0.32500
10297219;-0.35500
10299997;-0.40500
10302775;-0.43500
10305553;-0.46500
10308330;-0.49000
10311108;-0.50000
10313886;-0.45500
10316664;-0.33000
10319442;-0.17000
10322219;0.01000
10324997;0.20500
10327775;0.45000
10330553;0.70500
10333330;0.94000
10336108;1.08500
10338886;1.18500
10341664;1.25000
10344442;1.29000
10347219;1.23500
10349997;0.96000
10352775;0.50500
10355553;0.04000
10358330;-0.28500
10361108;-0.40500
10363886;-0.38000
10366664;-0.33000
10369442;-0.29000
10372219;-0.30000
10374997;-0.31000
10377775;-0.30500
10380553;-0.29500
10383330;-0.31000
10386108;-0.32000
10388886;-0.32500
10391664;-0.33500
10394442;-0.33000
10397219;-0.32500
10399997;-0.33500
10402775;-0.33500
10405553;-0.34000
10408330;-0.34000
10411108;-0.34000
10413886;-0.33000
10416664;-0.33500
10419442;-0.33500
10422219;-0.34500
10424997;-0.35000
10427775;-0.34000
10430553;-0.33500
10433330;-0.33500
10436108;-0.34000
10438886;-0.33500
10441664;-0.33500
10444442;-0.33000
10447219;-0.32500
10449997;-0.32500
10452775;-0.33000
10455553;-0.34500
10458330;-0.35000
10461108;-0.34500
10463886;-0.33000
10466664;-0.34500
10469442;-0.35000
10472219;-0.35500
10474997;-0.36000
10477775;-0.35000
10480553;-0.33500
10483330;-0.35000
10486108;-0.34500
10488886;-0.36000
10491664;-0.38000
10494442;-0.35500
10497219;-0.34000
10499997;-0.34000
10502775;-0.34500
10505553;-0.35500
10508330;-0.35000
10511108;-0.34500
10513886;-0.34000
10516664;-0.34500
10519441;-0.34500
10522219;-0.34500
10524997;-0.35500
10527775;-0.33500
10530553;-0.34500
10533330;-0.34000
10536108;-0.35000
10538886;-0.35500
10541664;-0.36000
10544441;-0.35000
10547219;-0.34000
10549997;-0.34500
10552775;-0.34500
10555553;-0.36000
10558330;-0.36500
10561108;-0.36500
10563886;-0.35000
10566664;-0.36000
10569441;-0.36000
10572219;-0.36000
10574997;-0.37000
10577775;-0.36000
10580553;-0.35500
10583330;-0.35000
10586108;-0.37000
10588886;-0.37000
10591664;-0.38000
10594441;-0.36500
10597219;-0.36000
10599997;-0.35500
10602775;-0.36500
10605553;-0.37500
10608330;-0.38000
10611108;-0.36500
10613886;-0.35000
10616664;-0.35000
10619441;-0.33500
10622219;-0.34000
10624997;-0.33000
10627775;-0.31000
10630553;-0.30000
10633330;-0.28500
10636108;-0.28500
10638886;-0.28000
10641664;-0.28000
10644441;-0.27500
10647219;-0.26000
10649997;-0.24500
10652775;-0.24500
10655553;-0.25000
10658330;-0.24500
10661108;-0.22500
10663886;-0.21000
10666664;-0.21000
10669441;-0.22000
10672219;-0.21500
10674997;-0.23000
10677775;-0.21500
10680553;-0.20000
10683330;-0.20500
10686108;-0.21000
10688886;-0.21500
10691664;-0.23000
10694441;-0.21000
10697219;-0.20000
10699997;-0.20500
10702775;-0.20500
10705553;-0.22000
10708330;-0.22500
10711108;-0.21500
10713886;-0.20500
10716664;-0.21000
10719441;-0.20500
10722219;-0.23000
10724997;-0.23000
10727775;-0.22500
10730553;-0.22000
10733330;-0.21000
10736108;-0.22500
10738886;-0.22500
10741664;-0.23500
10744441;-0.22500
10747219;-0.22500
10749997;-0.23000
10752775;-0.23000
10755553;-0.24500
10758330;-0.23500
10761108;-0.23000
10763886;-0.23500
10766664;-0.23500
10769441;-0.23000
10772219;-0.24000
10774997;-0.25000
10777775;-0.24500
10780553;-0.23500
10783330;-0.24500
10786108;-0.26000
10788886;-0.26000
10791664;-0.26000
10794441;-0.25000
10797219;-0.25000
10799997;-0.25000
10802775;-0.25500
10805553;-0.27000
10808330;-0.28000
10811108;-0.27000
10813886;-0.26000
10816664;-0.27000
10819441;-0.27500
10822219;-0.27000
10824997;-0.27000
10827775;-0.28000
10830553;-0.26000
10833330;-0.26500
10836108;-0.28000
10838886;-0.28500
10841664;-0.28000
10844441;-0.27000
10847219;-0.26000
10849997;-0.26500
10852775;-0.27500
10855553;-0.27500
10858330;-0.28500
10861108;-0.27000
10863886;-0.26500
10866664;-0.27000
10869441;-0.27000
10872219;-0.28500
10874997;-0.28500
10877775;-0.26500
10880553;-0.26000
10883330;-0.25500
10886108;-0.27500
10888886;-0.28500
10891664;-0.28500
10894441;-0.28500
10897219;-0.27000
10899997;-0.26500
10902775;-0.27000
10905553;-0.27500
10908330;-0.28000
10911108;-0.27000
10913886;-0.25500
10916664;-0.25500
10919441;-0.25000
10922219;-0.25500
10924997;-0.24000
10927775;-0.22000
10930552;-0.20500
10933330;-0.19500
10936108;-0.18500
10938886;-0.20000
10941664;-0.20000
10944441;-0.19500
10947219;-0.16500
10949997;-0.16000
10952775;-0.15500
10955552;-0.16500
10958330;-0.16000
10961108;-0.15500
10963886;-0.16000
10966664;-0.17000
10969441;-0.17000
10972219;-0.18500
10974997;-0.18500
10977775;-0.18000
10980552;-0.17000
10983330;-0.17500
10986108;-0.18500
10988886;-0.19000
10991664;-0.18500
10994441;-0.16000
10997219;-0.13000
10999997;-0.12500
11002775;-0.15500
11005552;-0.20000
11008330;-0.23000
11011108;-0.23500
11013886;-0.24000
11016664;-0.24500
11019441;-0.26500
11022219;-0.27000
11024997;-0.28000
11027775;-0.28000
11030552;-0.26500
11033330;-0.27000
11036108;-0.27500
11038886;-0.28500
11041664;-0.30000
11044441;-0.28500
11047219;-0.28000
11049997;-0.28500
11052775;-0.28500
11055552;-0.28500
11058330;-0.28500
11061108;-0.27500
11063886;-0.28500
11066664;-0.27500
11069441;-0.29000
11072219;-0.29500
11074997;-0.30000
11077775;-0.30000
11080552;-0.28000
11083330;-0.28500
11086108;-0.28500
11088886;-0.29500
11091664;-0.30000
11094441;-0.29500
11097219;-0.30500
11099997;-0.33500
11102775;-0.37000
11105552;-0.42000
11108330;-0.44500
11111108;-0.47000
11113886;-0.50000
11116664;-0.47000
11119441;-0.37500
11122219;-0.22000
11124997;-0.02000
11127775;0.19000
11130552;0.45500
11133330;0.76000
11136108;0.99500
11138886;1.12000
11141664;1.09500
11144441;0.88000
11147219;0.46000
11149997;-0.00500
11152775;-0.32500
11155552;-0.43500
11158330;-0.41000
11161108;-0.35500
11163886;-0.29500
11166664;-0.29000
11169441;-0.31500
11172219;-0.32000
11174997;-0.32500
11177775;-0.32500
11180552;-0.32000
11183330;-0.33000
11186108;-0.34500
11188886;-0.35000
11191664;-0.35500
11194441;-0.33500
11197219;-0.33000
11199997;-0.33000
11202775;-0.32500
11205552;-0.34500
11208330;-0.34000
11211108;-0.33500
11213886;-0.32500
11216664;-0.32500
11219441;-0.34000
11222219;-0.34500
11224997;-0.33500
11227775;-0.33000
11230552;-0.31500
11233330;-0.30500
11236108;-0.31000
11238886;-0.33000
11241664;-0.33500
11244441;-0.32500
11247219;-0.33000
11249997;-0.32500
11252775;-0.34000
11255552;-0.33500
11258330;-0.34000
11261108;-0.33500
11263886;-0.32500
11266664;-0.32500
11269441;-0.34000
11272219;-0.34500
11274997;-0.34500
11277775;-0.33500
11280552;-0.33000
11283330;-0.33500
11286108;-0.34500
11288886;-0.34000
11291664;-0.35000
11294441;-0.33500
11297219;-0.33000
11299997;-0.33500
11302775;-0.34500
11305552;-0.34000
11308330;-0.35000
11311108;-0.34500
11313886;-0.32500
11316663;-0.33500
11319441;-0.33500
11322219;-0.34500
11324997;-0.35000
11327775;-0.33500
11330552;-0.33000
11333330;-0.33500
11336108;-0.33500
11338886;-0.34500
11341663;-0.35500
11344441;-0.33500
11347219;-0.34500
11349997;-0.33500
11352775;-0.33500
11355552;-0.35000
11358330;-0.35500
11361108;-0.34000
11363886;-0.33500
11366663;-0.33500
11369441;-0.33500
11372219;-0.34500
11374997;-0.35500
11377775;-0.34500
11380552;-0.34500
11383330;-0.33500
11386108;-0.34500
11388886;-0.35000
11391663;-0.36000
11394441;-0.34500
11397219;-0.35000
11399997;-0.33500
11402775;-0.34000
11405552;-0.34500
11408330;-0.34500
11411108;-0.33000
11413886;-0.33500
11416663;-0.32500
11419441;-0.33000
11422219;-0.33000
11424997;-0.32500
11427775;-0.31000
11430552;-0.29000
11433330;-0.29000
11436108;-0.28500
11438886;-0.26500
11441663;-0.27500
11444441;-0.25000
11447219;-0.23000
11449997;-0.22500
11452775;-0.23000
11455552;-0.23500
11458330;-0.23500
11461108;-0.22500
11463886;-0.21000
11466663;-0.22500
11469441;-0.22500
11472219;-0.23500
11474997;-0.23500
11477775;-0.22500
11480552;-0.20000
11483330;-0.20500
11486108;-0.21500
11488886;-0.21500
11491663;-0.22500
11494441;-0.22500
11497219;-0.20500
11499997;-0.21500
11502775;-0.22500
11505552;-0.22500
11508330;-0.22000
11511108;-0.22000
11513886;-0.21500
11516663;-0.22500
11519441;-0.23000
11522219;-0.24500
11524997;-0.25000
11527775;-0.23500
11530552;-0.24000
11533330;-0.23500
11536108;-0.23500
11538886;-0.24500
11541663;-0.24500
11544441;-0.24500
11547219;-0.23500
11549997;-0.23500
11552775;-0.24500
11555552;-0.24500
11558330;-0.26500
11561108;-0.25000
11563886;-0.24000
11566663;-0.24000
11569441;-0.24000
11572219;-0.24500
11574997;-0.26000
11577775;-0.25000
11580552;-0.25000
11583330;-0.24000
11586108;-0.26000
11588886;-0.27500
11591663;-0.27500
11594441;-0.26500
11597219;-0.26500
11599997;-0.26500
11602775;-0.27500
11605552;-0.29500
11608330;-0.29500
11611108;-0.29500
11613886;-0.29000
11616663;-0.28500
11619441;-0.28000
11622219;-0.28500
11624997;-0.29500
11627775;-0.28500
11630552;-0.28000
11633330;-0.27500
11636108;-0.28000
11638886;-0.29000
11641663;-0.29000
11644441;-0.27000
11647219;-0.27500
11649997;-0.27500
11652775;-0.28500
11655552;-0.29500
11658330;-0.28500
11661108;-0.28500
11663886;-0.28000
11666663;-0.27000
11669441;-0.28500
11672219;-0.28500
11674997;-0.29000
11677775;-0.29500
11680552;-0.28500
11683330;-0.27000
11686108;-0.28000
11688886;-0.28500
11691663;-0.28500
11694441;-0.28000
11697219;-0.27500
11699997;-0.27000
11702775;-0.28000
11705552;-0.28500
11708330;-0.28000
11711108;-0.26000
11713886;-0.25500
11716663;-0.25500
11719441;-0.24500
11722219;-0.24000
11724997;-0.23500
11727774;-0.22000
11730552;-0.21500
11733330;-0.20500
11736108;-0.21000
11738886;-0.22000
11741663;-0.22000
11744441;-0.20500
11747219;-0.19000
11749997;-0.17500
11752774;-0.18000
11755552;-0.17000
11758330;-0.17000
11761108;-0.16500
11763886;-0.15000
11766663;-0.15500
11769441;-0.16500
11772219;-0.18000
11774997;-0.19000
11777774;-0.17500
11780552;-0.18000
11783330;-0.18000
11786108;-0.17500
11788886;-0.19500
11791663;-0.21000
11794441;-0.20000
11797219;-0.16500
11799997;-0.15500
11802774;-0.15000
11805552;-0.17500
11808330;-0.21000
11811108;-0.22000
11813886;-0.22000
11816663;-0.24500
11819441;-0.26000
11822219;-0.28500
11824997;-0.29500
11827774;-0.29500
11830552;-0.28000
11833330;-0.29500
11836108;-0.28500
11838886;-0.29500
11841663;-0.30000
11844441;-0.30500
11847219;-0.29500
11849997;-0.30000
11852774;-0.30000
11855552;-0.32000
11858330;-0.31500
11861108;-0.32500
11863886;-0.32500
11866663;-0.30000
11869441;-0.31500
11872219;-0.32000
11874997;-0.31500
11877774;-0.30500
11880552;-0.30000
11883330;-0.30000
11886108;-0.30500
11888886;-0.34000
11891663;-0.34500
11894441;-0.35500
11897219;-0.37500
11899997;-0.39500
11902774;-0.43500
11905552;-0.44000
11908330;-0.45000
11911108;-0.47000
11913886;-0.52000
11916663;-0.51500
11919441;-0.46000
11922219;-0.32500
11924997;-0.17000
11927774;0.04000
11930552;0.29000
11933330;0.57000
11936108;0.81500
11938886;0.97000
11941663;0.96000
11944441;0.74000
11947219;0.33000
11949997;-0.10500
11952774;-0.39000
11955552;-0.46500
11958330;-0.42500
11961108;-0.34500
11963886;-0.33000
11966663;-0.33000
11969441;-0.36000
11972219;-0.35500
11974997;-0.35500
11977774;-0.34000
11980552;-0.33000
11983330;-0.34000
11986108;-0.35500
11988886;-0.37500
11991663;-0.38500
11994441;-0.36000
11997219;-0.34500
11999997;-0.34000
12002774;-0.34000
12005552;-0.36000
12008330;-0.35500
12011108;-0.35000
12013886;-0.35000
12016663;-0.35500
12019441;-0.36500
12022219;-0.37000
12024997;-0.37500
12027774;-0.36500
12030552;-0.36000
12033330;-0.35500
12036108;-0.35500
12038886;-0.36500
12041663;-0.38000
12044441;-0.37500
12047219;-0.36500
12049997;-0.36000
12052774;-0.36500
12055552;-0.39000
12058330;-0.39000
12061108;-0.38000
12063886;-0.36500
12066663;-0.36500
12069441;-0.36500
12072219;-0.37000
12074997;-0.38000
12077774;-0.38500
12080552;-0.37000
12083330;-0.36000
12086108;-0.37000
12088886;-0.37500
12091663;-0.38000
12094441;-0.38000
12097219;-0.37500
12099997;-0.36500
12102774;-0.37500
12105552;-0.39000
12108330;-0.39500
12111108;-0.37500
12113885;-0.36500
12116663;-0.37000
12119441;-0.37000
12122219;-0.37500
12124997;-0.39000
12127774;-0.38000
12130552;-0.37000
12133330;-0.37500
12136108;-0.38000
12138885;-0.38500
12141663;-0.40000
12144441;-0.39000
12147219;-0.38000
12149997;-0.38000
12152774;-0.38000
12155552;-0.38000
12158330;-0.39000
12161108;-0.39000
12163885;-0.38500
12166663;-0.39000
12169441;-0.39500
12172219;-0.40000
12174997;-0.41500
12177774;-0.41500
12180552;-0.40500
12183330;-0.41000
12186108;-0.41000
12188885;-0.40500
12191663;-0.42000
12194441;-0.42500
12197219;-0.41500
12199997;-0.39000
12202774;-0.39500
12205552;-0.39500
12208330;-0.39000
12211108;-0.38000
12213885;-0.38000
12216663;-0.36000
12219441;-0.36000
12222219;-0.36000
12224997;-0.36000
12227774;-0.33500
12230552;-0.32000
12233330;-0.30000
12236108;-0.29500
12238885;-0.30000
12241663;-0.30500
12244441;-0.29500
12247219;-0.29500
12249997;-0.29500
12252774;-0.30000
12255552;-0.31000
12258330;-0.30000
12261108;-0.27000
12263885;-0.26000
12266663;-0.26000
12269441;-0.27500
12272219;-0.29000
12274997;-0.30500
12277774;-0.29500
12280552;-0.28500
12283330;-0.29500
12286108;-0.29000
12288885;-0.29000
12291663;-0.29500
12294441;-0.30000
12297219;-0.27500
12299997;-0.27000
12302774;-0.28000
12305552;-0.29500
12308330;-0.30500
12311108;-0.30000
12313885;-0.29500
12316663;-0.29000
12319441;-0.30000
12322219;-0.30000
12324997;-0.31500
12327774;-0.31000
12330552;-0.30500
12333330;-0.31500
12336108;-0.31500
12338885;-0.32000
12341663;-0.32000
12344441;-0.31000
12347219;-0.31000
12349997;-0.31500
12352774;-0.33500
12355552;-0.33000
12358330;-0.34500
12361108;-0.33000
12363885;-0.31000
12366663;-0.32000
12369441;-0.32000
12372219;-0.33500
12374997;-0.35000
12377774;-0.35000
12380552;-0.34000
12383330;-0.34000
12386108;-0.36500
12388885;-0.37000
12391663;-0.38000
12394441;-0.35000
12397219;-0.33500
12399997;-0.33000
12402774;-0.34000
12405552;-0.34000
12408330;-0.35000
12411108;-0.35000
12413885;-0.34000
12416663;-0.33000
12419441;-0.34500
12422219;-0.37500
12424997;-0.37000
12427774;-0.36000
12430552;-0.36000
12433330;-0.36000
12436108;-0.37000
12438885;-0.36500
12441663;-0.36000
12444441;-0.34500
12447219;-0.33500
12449997;-0.35000
12452774;-0.35500
12455552;-0.36500
12458330;-0.37000
12461108;-0.35000
12463885;-0.35000
12466663;-0.35500
12469441;-0.34000
12472219;-0.35000
12474997;-0.36500
12477774;-0.34000
12480552;-0.31500
12483330;-0.29000
12486108;-0.28500
12488885;-0.28500
12491663;-0.30500
12494441;-0.28500
12497219;-0.27000
12499996;-0.25500
12502774;-0.26500
12505552;-0.25500
12508330;-0.25500
12511108;-0.25000
12513885;-0.24000
12516663;-0.24000
12519441;-0.25500
12522219;-0.26500
12524996;-0.27500
12527774;-0.26000
12530552;-0.26000
12533330;-0.27500
12536108;-0.28500
12538885;-0.29000
12541663;-0.29000
12544441;-0.29000
12547219;-0.28000
12549996;-0.28000
12552774;-0.28000
12555552;-0.27000
12558330;-0.27000
12561108;-0.28000
12563885;-0.30000
12566663;-0.29500
12569441;-0.33000
12572219;-0.34000
12574996;-0.36500
12577774;-0.37500
12580552;-0.38500
12583330;-0.37500
12586108;-0.39000
12588885;-0.39000
12591663;-0.41000
12594441;-0.39500
12597219;-0.38500
12599996;-0.39000
12602774;-0.39000
12605552;-0.40000
12608330;-0.40500
12611108;-0.41500
12613885;-0.40500
12616663;-0.39000
12619441;-0.40000
12622219;-0.39000
12624996;-0.39500
12627774;-0.39500
12630552;-0.39500
12633330;-0.39000
12636108;-0.39000
12638885;-0.39000
12641663;-0.40000
12644441;-0.40500
12647219;-0.43000
12649996;-0.45500
12652774;-0.48500
12655552;-0.52500
12658330;-0.53500
12661108;-0.57500
12663885;-0.61500
12666663;-0.62000
12669441;-0.62000
12672219;-0.60000
12674996;-0.58000
12677774;-0.52500
12680552;-0.44000
12683330;-0.34000
12686108;-0.19500
12688885;-0.03000
12691663;0.18000
12694441;0.46500
12697219;0.73000
12699996;0.87000
12702774;0.92000
12705552;0.76000
12708330;0.41000
12711108;-0.02000
12713885;-0.32000
12716663;-0.46500
12719441;-0.51000
12722219;-0.49500
12724996;-0.45500
12727774;-0.42000
12730552;-0.41500
12733330;-0.41500
12736108;-0.41500
12738885;-0.42500
12741663;-0.42500
12744441;-0.42000
12747219;-0.41500
12749996;-0.41500
12752774;-0.43000
12755552;-0.43500
12758330;-0.43500
12761108;-0.43500
12763885;-0.42000
12766663;-0.42500
12769441;-0.43000
12772219;-0.43500
12774996;-0.43500
12777774;-0.43000
12780552;-0.43000
12783330;-0.42500
12786108;-0.43500
12788885;-0.45000
12791663;-0.46000
12794441;-0.44000
12797219;-0.43000
12799996;-0.42000
12802774;-0.43000
12805552;-0.42500
12808330;-0.43500
12811108;-0.44500
12813885;-0.43000
12816663;-0.44500
12819441;-0.45000
12822219;-0.45500
12824996;-0.47000
12827774;-0.45500
12830552;-0.45000
12833330;-0.44500
12836108;-0.45000
12838885;-0.45000
12841663;-0.45000
12844441;-0.43500
12847219;-0.43000
12849996;-0.44000
12852774;-0.45000
12855552;-0.45500
12858330;-0.46000
12861108;-0.45000
12863885;-0.45000
12866663;-0.43500
12869441;-0.44500
12872219;-0.45000
12874996;-0.45000
12877774;-0.44000
12880552;-0.44000
12883330;-0.44500
12886108;-0.42500
12888885;-0.43000
12891663;-0.44500
12894441;-0.44500
12897219;-0.43000
12899996;-0.44000
12902774;-0.44500
12905552;-0.44500
12908330;-0.45000
12911107;-0.45500
12913885;-0.45000
12916663;-0.44500
12919441;-0.45000
12922219;-0.45500
12924996;-0.47000
12927774;-0.47500
12930552;-0.45500
12933330;-0.46500
12936107;-0.48000
12938885;-0.50000
12941663;-0.50000
12944441;-0.50500
12947219;-0.48000
12949996;-0.49000
12952774;-0.49500
12955552;-0.50000
12958330;-0.50000
12961107;-0.48500
12963885;-0.46500
12966663;-0.45500
12969441;-0.45000
12972219;-0.44000
12974996;-0.43000
12977774;-0.41500
12980552;-0.38500
12983330;-0.37000
12986107;-0.36500
12988885;-0.36000
12991663;-0.36500
12994441;-0.34000
12997219;-0.32500
12999996;-0.31500
13002774;-0.32000
13005552;-0.31500
13008330;-0.32000
13011107;-0.31000
13013885;-0.30000
13016663;-0.30000
13019441;-0.30000
13022219;-0.30500
13024996;-0.31000
13027774;-0.30000
13030552;-0.29000
13033330;-0.28000
13036107;-0.28500
13038885;-0.30000
13041663;-0.30000
13044441;-0.28500
13047219;-0.28500
13049996;-0.28000
13052774;-0.28500
13055552;-0.28500
13058330;-0.29000
13061107;-0.29000
13063885;-0.27500
13066663;-0.28000
13069441;-0.28000
13072219;-0.30000
13074996;-0.31000
13077774;-0.29500
13080552;-0.29000
13083330;-0.29000
13086107;-0.30000
13088885;-0.30000
13091663;-0.30500
13094441;-0.31000
13097219;-0.30500
13099996;-0.31000
13102774;-0.32500
13105552;-0.33000
13108330;-0.32500
13111107;-0.32000
13113885;-0.32000
13116663;-0.31500
13119441;-0.32500
13122219;-0.33000
13124996;-0.33500
13127774;-0.32000
13130552;-0.32500
13133330;-0.31500
13136107;-0.32000
13138885;-0.32500
13141663;-0.33000
13144441;-0.32500
13147219;-0.33000
13149996;-0.31500
13152774;-0.32000
13155552;-0.33500
13158330;-0.33000
13161107;-0.33500
13163885;-0.32000
13166663;-0.32000
13169441;-0.33000
13172219;-0.35000
13174996;-0.34000
13177774;-0.34000
13180552;-0.34000
13183330;-0.32000
13186107;-0.33000
13188885;-0.35000
13191663;-0.34000
13194441;-0.34500
13197219;-0.33500
13199996;-0.33500
13202774;-0.33000
13205552;-0.34500
13208330;-0.35500
13211107;-0.33500
13213885;-0.32500
13216663;-0.32000
13219441;-0.32500
13222219;-0.33500
13224996;-0.35000
13227774;-0.33500
13230552;-0.32000
13233330;-0.32000
13236107;-0.33000
13238885;-0.33500
13241663;-0.33500
13244441;-0.33000
13247219;-0.31500
13249996;-0.31500
13252774;-0.33000
13255552;-0.33000
13258330;-0.33500
13261107;-0.34000
13263885;-0.31500
13266663;-0.31500
13269441;-0.31500
13272219;-0.32500
13274996;-0.31500
13277774;-0.29000
13280552;-0.26500
13283330;-0.25000
13286107;-0.25500
13288885;-0.26000
13291663;-0.26500
13294441;-0.25000
13297218;-0.23000
13299996;-0.22000
13302774;-0.22000
13305552;-0.22000
13308330;-0.21000
13311107;-0.19500
13313885;-0.20500
13316663;-0.21500
13319441;-0.22500
13322218;-0.24500
13324996;-0.25500
13327774;-0.25500
13330552;-0.25000
13333330;-0.23500
13336107;-0.25000
13338885;-0.25000
13341663;-0.26500
13344441;-0.26000
13347218;-0.24500
13349996;-0.22500
13352774;-0.20500
13355552;-0.20500
13358330;-0.23500
13361107;-0.26000
13363885;-0.26500
13366663;-0.27500
13369441;-0.29000
13372218;-0.31000
13374996;-0.33500
13377774;-0.33000
13380552;-0.33500
13383330;-0.33500
13386107;-0.34500
13388885;-0.35000
13391663;-0.35000
13394441;-0.35000
13397218;-0.34000
13399996;-0.34000
13402774;-0.35000
13405552;-0.36000
13408330;-0.36500
13411107;-0.35500
13413885;-0.35000
13416663;-0.34500
13419441;-0.35000
13422218;-0.35500
13424996;-0.37000
13427774;-0.35500
13430552;-0.34500
13433330;-0.35000
13436107;-0.35500
13438885;-0.36500
13441663;-0.37000
13444441;-0.38500
13447218;-0.39500
13449996;-0.42500
13452774;-0.46000
13455552;-0.48500
13458330;-0.50000
13461107;-0.48000
13463885;-0.48000
13466663;-0.51500
13469441;-0.55500
13472218;-0.53500
13474996;-0.43500
13477774;-0.27000
13480552;-0.09500
13483330;0.11500
13486107;0.37000
13488885;0.63500
13491663;0.89000
13494441;1.07000
13497218;1.11000
13499996;0.96500
13502774;0.61500
13505552;0.15000
13508330;-0.25000
13511107;-0.44500
13513885;-0.46500
13516663;-0.41000
13519441;-0.36500
13522218;-0.36500
13524996;-0.37000
13527774;-0.39000
13530552;-0.37500
13533330;-0.37500
13536107;-0.38000
13538885;-0.40500
13541663;-0.40000
13544441;-0.40000
13547218;-0.38500
13549996;-0.37000
13552774;-0.37500
13555552;-0.40500
13558330;-0.40000
13561107;-0.39500
13563885;-0.37000
13566663;-0.37500
13569441;-0.39000
13572218;-0.40000
13574996;-0.40000
13577774;-0.40000
13580552;-0.38500
13583330;-0.38000
13586107;-0.38500
13588885;-0.40000
13591663;-0.39500
13594441;-0.39500
13597218;-0.38000
13599996;-0.38000
13602774;-0.38500
13605552;-0.39500
13608330;-0.41000
13611107;-0.40500
13613885;-0.38500
13616663;-0.40000
13619441;-0.39000
13622218;-0.41500
13624996;-0.40000
13627774;-0.40000
13630552;-0.39000
13633330;-0.38500
13636107;-0.37500
13638885;-0.40000
13641663;-0.40000
13644441;-0.39000
13647218;-0.37500
13649996;-0.38500
13652774;-0.38500
13655552;-0.40000
13658330;-0.41000
13661107;-0.39500
13663885;-0.38500
13666663;-0.38000
13669441;-0.38000
13672218;-0.37500
13674996;-0.39000
13677774;-0.40000
13680552;-0.39000
13683330;-0.38500
13686107;-0.39500
13688885;-0.40500
13691663;-0.41500
13694441;-0.41500
13697218;-0.41000
13699996;-0.41000
13702774;-0.41500
13705552;-0.41500
13708329;-0.42000
13711107;-0.41500
13713885;-0.39500
13716663;-0.39000
13719441;-0.40500
13722218;-0.41500
13724996;-0.41000
13727774;-0.41500
13730552;-0.41000
13733329;-0.40000
13736107;-0.40500
13738885;-0.42500
13741663;-0.43000
13744441;-0.41500
13747218;-0.41000
13749996;-0.39500
13752774;-0.41000
13755552;-0.42000
13758329;-0.42000
13761107;-0.40500
13763885;-0.39000
13766663;-0.39500
13769441;-0.39500
13772218;-0.40000
13774996;-0.40500
13777774;-0.38500
13780552;-0.35500
13783329;-0.34500
13786107;-0.35000
13788885;-0.33500
13791663;-0.33000
13794441;-0.31000
13797218;-0.29000
13799996;-0.27500
13802774;-0.27500
13805552;-0.27500
13808329;-0.27000
13811107;-0.26000
13813885;-0.26500
13816663;-0.25000
13819441;-0.26000
13822218;-0.27500
13824996;-0.27500
13827774;-0.26000
13830552;-0.25500
13833329;-0.25000
13836107;-0.26000
13838885;-0.27000
13841663;-0.28000
13844441;-0.27000
13847218;-0.26500
13849996;-0.27000
13852774;-0.27000
13855552;-0.28500
13858329;-0.28500
13861107;-0.27500
13863885;-0.26500
13866663;-0.25500
13869441;-0.26500
13872218;-0.27500
13874996;-0.28500
13877774;-0.27000
13880552;-0.26500
13883329;-0.26000
13886107;-0.26500
13888885;-0.27500
13891663;-0.28500
13894441;-0.27500
13897218;-0.27500
13899996;-0.26500
13902774;-0.27500
13905552;-0.29000
13908329;-0.29000
13911107;-0.30000
13913885;-0.27500
13916663;-0.27500
13919441;-0.28500
13922218;-0.30500
13924996;-0.31500
13927774;-0.31000
13930552;-0.30000
13933329;-0.30000
13936107;-0.30000
13938885;-0.31000
13941663;-0.32500
13944441;-0.32000
13947218;-0.30000
13949996;-0.30500
13952774;-0.31000
13955552;-0.31500
13958329;-0.33000
13961107;-0.32500
13963885;-0.30500
13966663;-0.30000
13969441;-0.32000
13972218;-0.31500
13974996;-0.32500
13977774;-0.32500
13980552;-0.32000
13983329;-0.31500
13986107;-0.32500
13988885;-0.33000
13991663;-0.32500
13994441;-0.32500
13997218;-0.31000
13999996;-0.30500
14002774;-0.30000
14005552;-0.31500
14008329;-0.32500
14011107;-0.32000
14013885;-0.30500
14016663;-0.30000
14019441;-0.30500
14022218;-0.31500
14024996;-0.32000
14027774;-0.31000
14030552;-0.30500
14033329;-0.30500
14036107;-0.30500
14038885;-0.30500
14041663;-0.32000
14044441;-0.30000
14047218;-0.31000
14049996;-0.30000
14052774;-0.30500
14055552;-0.30500
14058329;-0.31000
14061107;-0.30000
14063885;-0.29000
14066663;-0.28500
14069441;-0.25500
14072218;-0.24500
14074996;-0.25500
14077774;-0.23500
14080552;-0.21500
14083329;-0.21000
14086107;-0.22000
14088885;-0.21500
14091663;-0.22000
14094440;-0.20000
14097218;-0.17000
14099996;-0.18000
14102774;-0.18500
14105552;-0.19500
14108329;-0.21000
14111107;-0.21500
14113885;-0.21000
14116663;-0.21500
14119440;-0.21500
14122218;-0.22000
14124996;-0.23000
14127774;-0.22000
14130552;-0.22000
14133329;-0.20000
14136107;-0.18000
14138885;-0.17000
14141663;-0.19000
14144440;-0.22000
14147218;-0.24000
14149996;-0.24500
14152774;-0.26000
14155552;-0.28000
14158329;-0.30000
14161107;-0.31000
14163885;-0.30000
14166663;-0.31500
14169440;-0.30500
14172218;-0.31500
14174996;-0.31000
14177774;-0.31500
14180552;-0.31000
14183329;-0.31500
14186107;-0.31500
14188885;-0.33500
14191663;-0.34000
14194440;-0.34500
14197218;-0.33000
14199996;-0.33000
14202774;-0.33500
14205552;-0.34500
14208329;-0.35000
14211107;-0.35000
14213885;-0.34000
14216663;-0.32500
14219440;-0.33500
14222218;-0.34000
14224996;-0.34500
14227774;-0.33500
14230552;-0.33000
14233329;-0.33000
14236107;-0.33000
14238885;-0.34000
14241663;-0.35500
14244440;-0.38000
14247218;-0.41000
14249996;-0.44000
14252774;-0.46500
14255552;-0.49500
14258329;-0.51500
14261107;-0.49000
14263885;-0.39000
14266663;-0.22500
14269440;-0.04500
14272218;0.14000
14274996;0.39500
14277774;0.69500
14280552;0.92000
14283329;1.04500
14286107;1.05000
14288885;0.84000
14291663;0.43500
14294440;-0.02000
14297218;-0.33000
14299996;-0.44500
14302774;-0.43000
14305552;-0.38500
14308329;-0.35000
14311107;-0.34500
14313885;-0.35000
14316663;-0.34000
14319440;-0.35500
14322218;-0.36000
14324996;-0.36500
14327774;-0.37500
14330552;-0.37500
14333329;-0.36500
14336107;-0.36500
14338885;-0.38000
14341663;-0.38000
14344440;-0.37500
14347218;-0.37000
14349996;-0.37500
14352774;-0.37000
14355552;-0.37000
14358329;-0.38000
14361107;-0.37000
14363885;-0.36000
14366663;-0.36500
14369440;-0.37000
14372218;-0.36500
14374996;-0.37000
14377774;-0.36000
14380552;-0.35500
14383329;-0.35500
14386107;-0.35500
14388885;-0.37500
14391663;-0.39000
14394440;-0.37500
14397218;-0.36000
14399996;-0.35500
14402774;-0.36500
14405552;-0.38000
14408329;-0.38500
14411107;-0.37500
14413885;-0.36500
14416663;-0.37000
14419440;-0.37500
14422218;-0.37000
14424996;-0.38000
14427774;-0.36500
14430552;-0.35000
14433329;-0.35000
14436107;-0.36000
14438885;-0.36000
14441663;-0.37500
14444440;-0.36000
14447218;-0.35500
14449996;-0.35000
14452774;-0.35500
14455552;-0.36500
14458329;-0.37500
14461107;-0.37000
14463885;-0.36000
14466663;-0.37000
14469440;-0.37000
14472218;-0.37500
14474996;-0.37500
14477774;-0.37500
14480552;-0.36500
14483329;-0.36000
14486107;-0.36000
14488885;-0.36500
14491663;-0.36000
14494440;-0.36500
14497218;-0.34000
14499996;-0.34000
14502774;-0.36000
14505551;-0.36500
14508329;-0.37500
14511107;-0.37500
14513885;-0.37000
14516663;-0.36000
14519440;-0.36000
14522218;-0.37500
14524996;-0.38000
14527774;-0.37000
14530551;-0.37000
14533329;-0.36500
14536107;-0.37500
14538885;-0.38500
14541663;-0.39000
14544440;-0.38500
14547218;-0.37000
14549996;-0.37500
14552774;-0.37000
14555551;-0.38500
14558329;-0.37500
14561107;-0.37000
14563885;-0.35500
14566663;-0.35000
14569440;-0.35000
14572218;-0.35000
14574996;-0.34000
14577774;-0.32000
14580551;-0.31500
14583329;-0.30500
14586107;-0.28500
14588885;-0.29500
14591663;-0.30500
14594440;-0.29000
14597218;-0.27000
14599996;-0.25000
14602774;-0.25000
14605551;-0.25500
14608329;-0.26000
14611107;-0.25500
14613885;-0.25000
14616663;-0.24000
14619440;-0.25500
14622218;-0.25500
14624996;-0.26000
14627774;-0.25500
14630551;-0.23500
14633329;-0.23500
14636107;-0.22500
14638885;-0.23000
14641663;-0.24000
14644440;-0.22500
14647218;-0.22500
14649996;-0.22000
14652774;-0.22500
14655551;-0.23500
14658329;-0.24000
14661107;-0.24500
14663885;-0.24000
14666663;-0.22500
14669440;-0.24000
14672218;-0.23500
14674996;-0.25000
14677774;-0.25500
14680551;-0.24500
14683329;-0.26000
14686107;-0.26000
14688885;-0.27000
14691663;-0.27500
14694440;-0.26500
14697218;-0.26000
14699996;-0.25500
14702774;-0.26000
14705551;-0.27000
14708329;-0.28000
14711107;-0.27000
14713885;-0.26000
14716663;-0.26500
14719440;-0.27000
14722218;-0.27500
14724996;-0.28500
14727774;-0.28500
14730551;-0.26500
14733329;-0.27500
14736107;-0.27000
14738885;-0.29500
14741663;-0.29000
14744440;-0.28500
14747218;-0.27500
14749996;-0.27000
14752774;-0.28000
14755551;-0.28500
14758329;-0.29500
14761107;-0.28500
14763885;-0.28500
14766663;-0.28500
14769440;-0.29500
14772218;-0.29500
14774996;-0.31000
14777774;-0.31000
14780551;-0.30000
14783329;-0.29000
14786107;-0.28000
14788885;-0.30000
14791663;-0.30500
14794440;-0.29000
14797218;-0.29000
14799996;-0.29000
14802774;-0.28500
14805551;-0.29000
14808329;-0.30500
14811107;-0.28000
14813885;-0.28000
14816663;-0.28500
14819440;-0.29000
14822218;-0.29500
14824996;-0.29500
14827774;-0.30000
14830551;-0.29500
14833329;-0.29500
14836107;-0.29500
14838885;-0.28500
14841663;-0.30500
14844440;-0.30000
14847218;-0.29000
14849996;-0.28000
14852774;-0.29000
14855551;-0.29000
14858329;-0.28000
14861107;-0.27500
14863885;-0.27000
14866663;-0.25000
14869440;-0.24500
14872218;-0.24500
14874996;-0.23500
14877774;-0.22000
14880551;-0.20500
14883329;-0.20000
14886107;-0.20000
14888885;-0.21500
14891662;-0.21500
14894440;-0.20000
14897218;-0.18000
14899996;-0.17000
14902774;-0.16500
14905551;-0.17000
14908329;-0.18500
14911107;-0.18000
14913885;-0.19000
14916662;-0.18500
14919440;-0.19000
14922218;-0.21000
14924996;-0.22500
14927774;-0.21500
14930551;-0.20500
14933329;-0.20000
14936107;-0.20500
14938885;-0.23000
14941662;-0.23000
14944440;-0.20500
14947218;-0.18000
14949996;-0.16500
14952774;-0.18000
14955551;-0.22500
14958329;-0.25500
14961107;-0.25000
14963885;-0.26000
14966662;-0.27000
14969440;-0.29500
14972218;-0.30000
14974996;-0.32000
14977774;-0.32000
14980551;-0.30500
14983329;-0.30500
14986107;-0.31000
14988885;-0.32000
14991662;-0.33000
14994440;-0.33000
14997218;-0.32500
14999996;-0.31500
15002774;-0.33000
15005551;-0.34000
15008329;-0.36500
15011107;-0.36000
15013885;-0.35000
15016662;-0.33000
15019440;-0.34000
15022218;-0.33500
15024996;-0.33500
15027774;-0.33000
15030551;-0.32500
15033329;-0.34000
15036107;-0.32500
15038885;-0.35500
15041662;-0.38500
15044440;-0.42000
15047218;-0.44000
15049996;-0.44500
15052774;-0.47500
15055551;-0.51500
15058329;-0.55500
15061107;-0.54500
15063885;-0.46500
15066662;-0.34000
15069440;-0.21000
15072218;-0.07000
15074996;0.07500
15077774;0.29000
15080551;0.54500
15083329;0.78500
15086107;0.94000
15088885;1.02000
