time_ms;ecg_value
0;-0.49000
2778;-0.51500
5556;-0.50000
8333;-0.51000
11111;-0.49500
13889;-0.49500
16667;-0.50000
19444;-0.51000
22222;-0.50500
25000;-0.49000
27778;-0.48500
30556;-0.48500
33333;-0.50500
36111;-0.51000
38889;-0.52000
41667;-0.51000
44444;-0.49500
47222;-0.47000
50000;-0.46500
52778;-0.47500
55556;-0.44500
58333;-0.43500
61111;-0.42500
63889;-0.41500
66667;-0.41000
69444;-0.42500
72222;-0.42000
75000;-0.40500
77778;-0.39000
80556;-0.39000
83333;-0.38500
86111;-0.39500
88889;-0.37000
91667;-0.36500
94444;-0.36000
97222;-0.37000
100000;-0.37000
102778;-0.38000
105556;-0.37500
108333;-0.37000
111111;-0.36500
113889;-0.36000
116667;-0.38000
119444;-0.39500
122222;-0.39000
125000;-0.38500
127778;-0.37500
130556;-0.38500
133333;-0.40500
136111;-0.40500
138889;-0.41000
141667;-0.40000
144444;-0.38500
147222;-0.39000
150000;-0.39000
152778;-0.40000
155556;-0.39000
158333;-0.38000
161111;-0.38000
163889;-0.38500
166667;-0.39000
169444;-0.41000
172222;-0.40500
175000;-0.40500
177778;-0.39000
180556;-0.39500
183333;-0.40500
186111;-0.41000
188889;-0.41000
191667;-0.41500
194444;-0.40500
197222;-0.40000
200000;-0.42000
202778;-0.42000
205555;-0.42000
208333;-0.42500
211111;-0.41500
213889;-0.41500
216667;-0.41500
219444;-0.41500
222222;-0.42000
225000;-0.41500
227778;-0.41000
230555;-0.42500
233333;-0.43000
236111;-0.43000
238889;-0.43000
241667;-0.42000
244444;-0.42000
247222;-0.41500
250000;-0.42500
252778;-0.43500
255555;-0.44500
258333;-0.43000
261111;-0.41500
263889;-0.41000
266667;-0.43000
269444;-0.44000
272222;-0.44000
275000;-0.42500
277778;-0.41000
280555;-0.42000
283333;-0.42000
286111;-0.43000
288889;-0.42500
291667;-0.43000
294444;-0.42000
297222;-0.42000
300000;-0.44000
302778;-0.43000
305555;-0.43000
308333;-0.41000
311111;-0.41000
313889;-0.40000
316667;-0.40500
319444;-0.41000
322222;-0.39500
325000;-0.38500
327778;-0.37500
330555;-0.37000
333333;-0.37500
336111;-0.37500
338889;-0.37500
341667;-0.36000
344444;-0.34500
347222;-0.34000
350000;-0.34000
352778;-0.33500
355555;-0.32000
358333;-0.31500
361111;-0.30500
363889;-0.32000
366667;-0.33000
369444;-0.35000
372222;-0.33500
375000;-0.32500
377778;-0.32500
380555;-0.30500
383333;-0.31000
386111;-0.31500
388889;-0.31000
391667;-0.29500
394444;-0.28000
397222;-0.28000
400000;-0.31500
402778;-0.34500
405555;-0.36000
408333;-0.36500
411111;-0.36000
413889;-0.37000
416667;-0.38500
419444;-0.41000
422222;-0.41500
425000;-0.41500
427778;-0.41000
430555;-0.42500
433333;-0.43000
436111;-0.46000
438889;-0.44500
441667;-0.45000
444444;-0.44500
447222;-0.44500
450000;-0.46000
452778;-0.47500
455555;-0.47000
458333;-0.47000
461111;-0.46000
463889;-0.46000
466667;-0.48000
469444;-0.47500
472222;-0.48500
475000;-0.47000
477778;-0.47500
480555;-0.47500
483333;-0.48000
486111;-0.48500
488889;-0.48000
491667;-0.46500
494444;-0.46000
497222;-0.47000
500000;-0.47000
502778;-0.50000
505555;-0.50000
508333;-0.52500
511111;-0.55000
513889;-0.57500
516667;-0.60500
519444;-0.64500
522222;-0.69000
525000;-0.68500
527778;-0.60500
530555;-0.50000
533333;-0.37500
536111;-0.23500
538889;-0.02000
541667;0.24000
544444;0.49500
547222;0.68500
550000;0.77500
552778;0.73000
555555;0.53500
558333;0.18000
561111;-0.17000
563889;-0.45000
566667;-0.59000
569444;-0.64000
572222;-0.62000
575000;-0.57000
577778;-0.51500
580555;-0.51500
583333;-0.52500
586111;-0.53000
588889;-0.52000
591667;-0.50000
594444;-0.50500
597222;-0.50500
600000;-0.52000
602778;-0.53500
605555;-0.53000
608333;-0.52500
611111;-0.51000
613889;-0.51000
616666;-0.52000
619444;-0.53000
622222;-0.51000
625000;-0.50500
627778;-0.50500
630555;-0.50500
633333;-0.51000
636111;-0.52000
638889;-0.51500
641666;-0.51000
644444;-0.50000
647222;-0.50000
650000;-0.51500
652778;-0.52000
655555;-0.51000
658333;-0.50000
661111;-0.49000
663889;-0.49000
666666;-0.50500
669444;-0.51000
672222;-0.51500
675000;-0.51000
677778;-0.50000
680555;-0.50000
683333;-0.50500
686111;-0.52000
688889;-0.51500
691666;-0.51000
694444;-0.50500
697222;-0.51000
700000;-0.52000
702778;-0.52500
705555;-0.52000
708333;-0.51000
711111;-0.49500
713889;-0.51500
716666;-0.50500
719444;-0.51000
722222;-0.50000
725000;-0.50500
727778;-0.50000
730555;-0.49500
733333;-0.49500
736111;-0.51000
738889;-0.51500
741666;-0.50000
744444;-0.48500
747222;-0.49000
750000;-0.49000
752778;-0.51000
755555;-0.49500
758333;-0.49500
761111;-0.48500
763889;-0.49500
766666;-0.49500
769444;-0.50000
772222;-0.50500
775000;-0.50500
777778;-0.48500
780555;-0.49000
783333;-0.50500
786111;-0.52000
788889;-0.52000
791666;-0.50500
794444;-0.50500
797222;-0.51000
800000;-0.52000
802778;-0.52500
805555;-0.53000
808333;-0.52500
811111;-0.53500
813889;-0.52500
816666;-0.54000
819444;-0.54000
822222;-0.53500
825000;-0.53500
827778;-0.53000
830555;-0.53000
833333;-0.52500
836111;-0.53500
838889;-0.51500
841666;-0.50000
844444;-0.47500
847222;-0.46500
850000;-0.46500
852778;-0.45500
855555;-0.45000
858333;-0.42500
861111;-0.41000
863889;-0.39000
866666;-0.40500
869444;-0.40500
872222;-0.39500
875000;-0.39500
877778;-0.38000
880555;-0.38000
883333;-0.37500
886111;-0.39000
888889;-0.37000
891666;-0.36500
894444;-0.36500
897222;-0.36000
900000;-0.36500
902778;-0.36500
905555;-0.37000
908333;-0.36000
911111;-0.35500
913889;-0.35500
916666;-0.36000
919444;-0.36500
922222;-0.35500
925000;-0.35000
927778;-0.34000
930555;-0.34500
933333;-0.35500
936111;-0.36500
938889;-0.35500
941666;-0.34500
944444;-0.34500
947222;-0.35500
950000;-0.35500
952778;-0.37500
955555;-0.36500
958333;-0.36000
961111;-0.35500
963889;-0.35000
966666;-0.36000
969444;-0.37500
972222;-0.37500
975000;-0.36000
977778;-0.35500
980555;-0.36000
983333;-0.37500
986111;-0.38000
988889;-0.37500
991666;-0.38500
994444;-0.36500
997222;-0.36500
1000000;-0.37500
1002777;-0.39000
1005555;-0.38500
1008333;-0.38500
1011111;-0.37500
1013889;-0.37500
1016666;-0.39000
1019444;-0.40000
1022222;-0.39000
1025000;-0.39000
1027777;-0.40000
1030555;-0.40000
1033333;-0.39500
1036111;-0.41000
1038889;-0.41000
1041666;-0.40000
1044444;-0.40000
1047222;-0.39000
1050000;-0.40000
1052777;-0.41500
1055555;-0.40000
1058333;-0.39000
1061111;-0.39000
1063889;-0.39500
1066666;-0.39500
1069444;-0.40500
1072222;-0.40500
1075000;-0.39000
1077777;-0.37500
1080555;-0.38000
1083333;-0.39500
1086111;-0.39500
1088889;-0.38500
1091666;-0.38000
1094444;-0.37500
1097222;-0.39500
1100000;-0.39500
1102777;-0.41000
1105555;-0.39000
1108333;-0.39000
1111111;-0.39000
1113889;-0.37000
1116666;-0.37500
1119444;-0.37500
1122222;-0.36000
1125000;-0.34500
1127777;-0.33500
1130555;-0.33500
1133333;-0.33500
1136111;-0.33500
1138889;-0.33000
1141666;-0.31500
1144444;-0.29500
1147222;-0.30000
1150000;-0.28500
1152777;-0.29000
1155555;-0.27500
1158333;-0.26500
1161111;-0.25000
1163889;-0.24500
1166666;-0.26500
1169444;-0.28000
1172222;-0.29000
1175000;-0.27500
1177777;-0.27000
1180555;-0.27000
1183333;-0.27500
1186111;-0.28000
1188889;-0.26500
1191666;-0.23500
1194444;-0.21500
1197222;-0.22500
1200000;-0.26500
1202777;-0.31000
1205555;-0.33000
1208333;-0.33500
1211111;-0.33500
1213889;-0.34500
1216666;-0.36000
1219444;-0.38000
1222222;-0.39000
1225000;-0.38000
1227777;-0.38000
1230555;-0.39000
1233333;-0.39000
1236111;-0.41500
1238889;-0.41000
1241666;-0.40000
1244444;-0.38500
1247222;-0.40500
1250000;-0.40500
1252777;-0.41500
1255555;-0.42000
1258333;-0.40500
1261111;-0.39500
1263889;-0.39500
1266666;-0.39500
1269444;-0.41000
1272222;-0.41000
1275000;-0.41000
1277777;-0.40000
1280555;-0.39500
1283333;-0.41500
1286111;-0.42000
1288889;-0.43000
1291666;-0.41000
1294444;-0.42500
1297222;-0.45500
1300000;-0.50000
1302777;-0.54000
1305555;-0.55500
1308333;-0.57000
1311111;-0.60000
1313889;-0.61000
1316666;-0.57000
1319444;-0.47000
1322222;-0.34500
1325000;-0.19000
1327777;0.01500
1330555;0.28000
1333333;0.53500
1336111;0.72000
1338889;0.80500
1341666;0.79500
1344444;0.60000
1347222;0.24000
1350000;-0.16500
1352777;-0.47500
1355555;-0.59500
1358333;-0.58500
1361111;-0.52000
1363889;-0.47500
1366666;-0.46500
1369444;-0.49000
1372222;-0.47500
1375000;-0.46000
1377777;-0.44500
1380555;-0.45000
1383333;-0.45000
1386111;-0.46500
1388888;-0.47000
1391666;-0.44500
1394444;-0.45000
1397222;-0.44500
1400000;-0.45500
1402777;-0.46000
1405555;-0.46500
1408333;-0.45000
1411111;-0.44500
1413888;-0.44000
1416666;-0.44000
1419444;-0.45500
1422222;-0.45000
1425000;-0.44000
1427777;-0.44500
1430555;-0.44000
1433333;-0.45000
1436111;-0.47000
1438888;-0.46500
1441666;-0.45000
1444444;-0.44500
1447222;-0.45500
1450000;-0.45500
1452777;-0.46000
1455555;-0.45500
1458333;-0.44500
1461111;-0.45000
1463888;-0.43500
1466666;-0.45000
1469444;-0.47000
1472222;-0.47000
1475000;-0.44500
1477777;-0.44000
1480555;-0.44500
1483333;-0.45500
1486111;-0.46000
1488888;-0.46000
1491666;-0.44500
1494444;-0.43000
1497222;-0.43500
1500000;-0.45000
1502777;-0.45000
1505555;-0.45500
1508333;-0.44000
1511111;-0.43000
1513888;-0.43500
1516666;-0.44500
1519444;-0.45500
1522222;-0.44500
1525000;-0.43000
1527777;-0.43000
1530555;-0.43500
1533333;-0.44000
1536111;-0.44500
1538888;-0.44000
1541666;-0.43000
1544444;-0.43500
1547222;-0.43000
1550000;-0.43000
1552777;-0.44000
1555555;-0.44500
1558333;-0.43500
1561111;-0.43000
1563888;-0.42500
1566666;-0.43500
1569444;-0.44500
1572222;-0.45500
1575000;-0.43500
1577777;-0.44000
1580555;-0.43500
1583333;-0.43500
1586111;-0.43000
1588888;-0.43500
1591666;-0.43000
1594444;-0.42000
1597222;-0.43000
1600000;-0.44000
1602777;-0.44500
1605555;-0.44500
1608333;-0.43000
1611111;-0.43000
1613888;-0.43500
1616666;-0.44000
1619444;-0.45000
1622222;-0.44500
1625000;-0.43500
1627777;-0.43000
1630555;-0.42000
1633333;-0.42000
1636111;-0.42500
1638888;-0.41000
1641666;-0.39000
1644444;-0.37000
1647222;-0.38000
1650000;-0.36000
1652777;-0.36500
1655555;-0.35000
1658333;-0.34000
1661111;-0.32500
1663888;-0.32000
1666666;-0.33000
1669444;-0.34500
1672222;-0.33500
1675000;-0.32500
1677777;-0.32000
1680555;-0.31500
1683333;-0.32000
1686111;-0.34500
1688888;-0.34000
1691666;-0.33000
1694444;-0.33000
1697222;-0.33500
1700000;-0.34000
1702777;-0.35000
1705555;-0.34500
1708333;-0.33500
1711111;-0.32000
1713888;-0.32500
1716666;-0.32500
1719444;-0.34000
1722222;-0.33000
1725000;-0.32500
1727777;-0.31500
1730555;-0.34000
1733333;-0.34000
1736111;-0.35000
1738888;-0.34500
1741666;-0.34000
1744444;-0.32500
1747222;-0.34000
1750000;-0.34500
1752777;-0.36000
1755555;-0.35000
1758333;-0.35000
1761111;-0.33500
1763888;-0.33000
1766666;-0.35500
1769444;-0.36000
1772222;-0.36500
1775000;-0.36500
1777777;-0.36000
1780555;-0.36000
1783333;-0.36000
1786111;-0.38000
1788888;-0.36500
1791666;-0.35000
1794444;-0.34500
1797222;-0.34500
1799999;-0.36000
1802777;-0.37000
1805555;-0.37500
1808333;-0.37000
1811111;-0.36000
1813888;-0.36000
1816666;-0.36500
1819444;-0.38000
1822222;-0.37000
1824999;-0.35500
1827777;-0.35500
1830555;-0.36500
1833333;-0.37500
1836111;-0.37000
1838888;-0.38000
1841666;-0.37000
1844444;-0.37000
1847222;-0.35500
1849999;-0.38000
1852777;-0.38500
1855555;-0.37000
1858333;-0.36500
1861111;-0.35500
1863888;-0.35500
1866666;-0.35500
1869444;-0.36000
1872222;-0.36000
1874999;-0.34500
1877777;-0.35000
1880555;-0.34500
1883333;-0.35000
1886111;-0.36500
1888888;-0.35500
1891666;-0.33000
1894444;-0.32000
1897222;-0.31500
1899999;-0.31500
1902777;-0.31500
1905555;-0.30000
1908333;-0.29500
1911111;-0.26500
1913888;-0.27000
1916666;-0.26500
1919444;-0.26500
1922222;-0.24500
1924999;-0.24500
1927777;-0.23000
1930555;-0.23000
1933333;-0.25000
1936111;-0.26000
1938888;-0.26000
1941666;-0.26000
1944444;-0.24500
1947222;-0.23000
1949999;-0.24500
1952777;-0.25500
1955555;-0.22000
1958333;-0.19500
1961111;-0.22000
1963888;-0.27000
1966666;-0.29500
1969444;-0.32000
1972222;-0.33500
1974999;-0.34000
1977777;-0.33500
1980555;-0.34000
1983333;-0.36000
1986111;-0.38000
1988888;-0.38000
1991666;-0.37000
1994444;-0.37500
1997222;-0.38000
1999999;-0.38500
2002777;-0.40000
2005555;-0.39500
2008333;-0.38500
2011111;-0.38000
2013888;-0.38500
2016666;-0.38500
2019444;-0.40000
2022222;-0.38500
2024999;-0.38000
2027777;-0.36500
2030555;-0.37500
2033333;-0.38500
2036111;-0.39500
2038888;-0.40000
2041666;-0.39000
2044444;-0.38500
2047222;-0.38500
2049999;-0.39500
2052777;-0.40500
2055555;-0.41500
2058333;-0.42500
2061111;-0.45000
2063888;-0.47500
2066666;-0.51500
2069444;-0.55000
2072222;-0.58500
2074999;-0.58500
2077777;-0.51500
2080555;-0.38500
2083333;-0.25000
2086111;-0.09000
2088888;0.18500
2091666;0.48500
2094444;0.71500
2097222;0.78000
2099999;0.65500
2102777;0.32500
2105555;-0.08000
2108333;-0.40000
2111111;-0.55000
2113888;-0.56500
2116666;-0.51500
2119444;-0.47500
2122222;-0.44500
2124999;-0.43500
2127777;-0.43500
2130555;-0.42000
2133333;-0.43000
2136111;-0.43500
2138888;-0.43000
2141666;-0.42000
2144444;-0.42000
2147222;-0.42500
2149999;-0.43000
2152777;-0.43500
2155555;-0.43500
2158333;-0.42500
2161111;-0.41500
2163888;-0.41500
2166666;-0.43000
2169444;-0.43500
2172222;-0.42500
2174999;-0.41000
2177777;-0.40500
2180555;-0.41500
2183333;-0.41000
2186110;-0.43500
2188888;-0.44000
2191666;-0.43000
2194444;-0.41500
2197222;-0.42000
2199999;-0.43500
2202777;-0.43000
2205555;-0.43000
2208333;-0.42000
2211110;-0.42000
2213888;-0.42000
2216666;-0.42000
2219444;-0.43000
2222222;-0.43500
2224999;-0.41000
2227777;-0.41000
2230555;-0.40500
2233333;-0.41000
2236110;-0.42000
2238888;-0.42500
2241666;-0.42000
2244444;-0.41000
2247222;-0.40500
2249999;-0.42000
2252777;-0.43000
2255555;-0.42500
2258333;-0.42000
2261110;-0.41000
2263888;-0.40000
2266666;-0.40500
2269444;-0.42500
2272222;-0.41500
2274999;-0.40000
2277777;-0.40000
2280555;-0.39000
2283333;-0.40500
2286110;-0.42500
2288888;-0.40500
2291666;-0.40000
2294444;-0.39500
2297222;-0.40000
2299999;-0.40500
2302777;-0.41000
2305555;-0.41500
2308333;-0.41000
2311110;-0.40500
2313888;-0.39500
2316666;-0.40000
2319444;-0.42000
2322222;-0.42000
2324999;-0.41000
2327777;-0.41000
2330555;-0.41500
2333333;-0.42500
2336110;-0.43500
2338888;-0.43000
2341666;-0.41000
2344444;-0.40500
2347222;-0.39000
2349999;-0.41000
2352777;-0.42000
2355555;-0.41000
2358333;-0.40000
2361110;-0.39000
2363888;-0.39500
2366666;-0.40000
2369444;-0.40500
2372222;-0.39500
2374999;-0.39000
2377777;-0.36500
2380555;-0.35500
2383333;-0.35000
2386110;-0.35500
2388888;-0.36000
2391666;-0.34000
2394444;-0.33500
2397222;-0.33500
2399999;-0.34000
2402777;-0.33500
2405555;-0.33000
2408333;-0.33000
2411110;-0.31500
2413888;-0.31000
2416666;-0.31000
2419444;-0.32000
2422222;-0.31500
2424999;-0.30500
2427777;-0.31000
2430555;-0.29500
2433333;-0.30500
2436110;-0.32000
2438888;-0.32000
2441666;-0.30500
2444444;-0.30500
2447222;-0.30500
2449999;-0.31000
2452777;-0.32000
2455555;-0.33000
2458333;-0.32000
2461110;-0.30500
2463888;-0.30500
2466666;-0.33000
2469444;-0.33000
2472222;-0.33000
2474999;-0.32500
2477777;-0.31500
2480555;-0.31000
2483333;-0.33500
2486110;-0.33500
2488888;-0.33500
2491666;-0.33000
2494444;-0.32500
2497222;-0.32500
2499999;-0.33500
2502777;-0.34500
2505555;-0.35000
2508333;-0.33000
2511110;-0.32500
2513888;-0.33000
2516666;-0.34000
2519444;-0.34500
2522222;-0.34000
2524999;-0.34000
2527777;-0.33000
2530555;-0.34000
2533333;-0.36000
2536110;-0.36000
2538888;-0.36500
2541666;-0.36000
2544444;-0.35500
2547222;-0.35500
2549999;-0.37000
2552777;-0.37000
2555555;-0.36500
2558333;-0.34500
2561110;-0.34000
2563888;-0.35000
2566666;-0.36000
2569444;-0.36000
2572222;-0.35500
2574999;-0.36000
2577777;-0.36500
2580555;-0.36000
2583333;-0.36500
2586110;-0.38000
2588888;-0.38000
2591666;-0.35500
2594444;-0.35500
2597221;-0.36500
2599999;-0.36500
2602777;-0.37500
2605555;-0.38000
2608333;-0.36000
2611110;-0.35500
2613888;-0.34000
2616666;-0.35500
2619444;-0.36500
2622221;-0.36500
2624999;-0.35500
2627777;-0.33000
2630555;-0.32000
2633333;-0.31500
2636110;-0.32500
2638888;-0.31500
2641666;-0.29500
2644444;-0.27500
2647221;-0.28500
2649999;-0.29500
2652777;-0.29500
2655555;-0.29000
2658333;-0.26500
2661110;-0.25500
2663888;-0.26500
2666666;-0.27500
2669444;-0.26000
2672221;-0.25000
2674999;-0.23500
2677777;-0.22500
2680555;-0.23500
2683333;-0.24500
2686110;-0.25500
2688888;-0.24500
2691666;-0.25000
2694444;-0.25000
2697221;-0.25000
2699999;-0.25500
2702777;-0.25500
2705555;-0.26000
2708333;-0.25000
2711110;-0.21500
2713888;-0.21500
2716666;-0.25500
2719444;-0.29500
2722221;-0.32000
2724999;-0.31000
2727777;-0.31500
2730555;-0.34000
2733333;-0.36500
2736110;-0.39000
2738888;-0.39000
2741666;-0.38500
2744444;-0.36500
2747221;-0.37500
2749999;-0.38000
2752777;-0.39500
2755555;-0.40000
2758333;-0.39500
2761110;-0.39000
2763888;-0.38500
2766666;-0.40000
2769444;-0.41500
2772221;-0.42000
2774999;-0.41500
2777777;-0.39500
2780555;-0.39500
2783333;-0.40000
2786110;-0.42000
2788888;-0.42000
2791666;-0.41000
2794444;-0.41000
2797221;-0.41500
2799999;-0.46500
2802777;-0.49500
2805555;-0.52000
2808333;-0.52500
2811110;-0.56000
2813888;-0.61000
2816666;-0.60500
2819444;-0.52500
2822221;-0.39500
2824999;-0.25000
2827777;-0.07000
2830555;0.18500
2833333;0.45500
2836110;0.65500
2838888;0.75500
2841666;0.72000
2844444;0.49500
2847221;0.13000
2849999;-0.22500
2852777;-0.47000
2855555;-0.57000
2858333;-0.59500
2861110;-0.54000
2863888;-0.49500
2866666;-0.48000
2869444;-0.47500
2872221;-0.48500
2874999;-0.46500
2877777;-0.44500
2880555;-0.43000
2883333;-0.45000
2886110;-0.46000
2888888;-0.46000
2891666;-0.45000
2894444;-0.44000
2897221;-0.43000
2899999;-0.45000
2902777;-0.46000
2905555;-0.46500
2908333;-0.45500
2911110;-0.44500
2913888;-0.46000
2916666;-0.46500
2919444;-0.48000
2922221;-0.48000
2924999;-0.46500
2927777;-0.45000
2930555;-0.44500
2933333;-0.46500
2936110;-0.47000
2938888;-0.47500
2941666;-0.47000
2944444;-0.46500
2947221;-0.44500
2949999;-0.45500
2952777;-0.45500
2955555;-0.46500
2958333;-0.46000
2961110;-0.45000
2963888;-0.45500
2966666;-0.46000
2969444;-0.47500
2972221;-0.46500
2974999;-0.46000
2977777;-0.44500
2980555;-0.45500
2983332;-0.45000
2986110;-0.45500
2988888;-0.46000
2991666;-0.44500
2994444;-0.43500
2997221;-0.45000
2999999;-0.47000
3002777;-0.47500
3005555;-0.48000
3008332;-0.45000
3011110;-0.45000
3013888;-0.45000
3016666;-0.45500
3019444;-0.45500
3022221;-0.46000
3024999;-0.44500
3027777;-0.43500
3030555;-0.44000
3033332;-0.44500
3036110;-0.45500
3038888;-0.46000
3041666;-0.44500
3044444;-0.44000
3047221;-0.44500
3049999;-0.45500
3052777;-0.46500
3055555;-0.47500
3058332;-0.46000
3061110;-0.44500
3063888;-0.44000
3066666;-0.46000
3069444;-0.47500
3072221;-0.47500
3074999;-0.47000
3077777;-0.46000
3080555;-0.46000
3083332;-0.48500
3086110;-0.49500
3088888;-0.49500
3091666;-0.48500
3094444;-0.48500
3097221;-0.48500
3099999;-0.49500
3102777;-0.50500
3105555;-0.50000
3108332;-0.49000
3111110;-0.46500
3113888;-0.47000
3116666;-0.47000
3119444;-0.46500
3122221;-0.46500
3124999;-0.45000
3127777;-0.42000
3130555;-0.42000
3133332;-0.40500
3136110;-0.41000
3138888;-0.40500
3141666;-0.39000
3144444;-0.38000
3147221;-0.37500
3149999;-0.37500
3152777;-0.37000
3155555;-0.36000
3158332;-0.35000
3161110;-0.34000
3163888;-0.33500
3166666;-0.35000
3169444;-0.36000
3172221;-0.36000
3174999;-0.34000
3177777;-0.33000
3180555;-0.33500
3183332;-0.35000
3186110;-0.36500
3188888;-0.37500
3191666;-0.35000
3194444;-0.35500
3197221;-0.36000
3199999;-0.36500
3202777;-0.38000
3205555;-0.37500
3208332;-0.36000
3211110;-0.36500
3213888;-0.37000
3216666;-0.38000
3219444;-0.37000
3222221;-0.38000
3224999;-0.36500
3227777;-0.36000
3230555;-0.36000
3233332;-0.36000
3236110;-0.38500
3238888;-0.40000
3241666;-0.38500
3244444;-0.37500
3247221;-0.37000
3249999;-0.37500
3252777;-0.37500
3255555;-0.38500
3258332;-0.37000
3261110;-0.37000
3263888;-0.38500
3266666;-0.39000
3269444;-0.39000
3272221;-0.39500
3274999;-0.40000
3277777;-0.39500
3280555;-0.41500
3283332;-0.40500
3286110;-0.40500
3288888;-0.41000
3291666;-0.40000
3294444;-0.38500
3297221;-0.39000
3299999;-0.39500
3302777;-0.40500
3305555;-0.40500
3308332;-0.39500
3311110;-0.39000
3313888;-0.39500
3316666;-0.40000
3319444;-0.40500
3322221;-0.40000
3324999;-0.39500
3327777;-0.39500
3330555;-0.40000
3333332;-0.41000
3336110;-0.41000
3338888;-0.42500
3341666;-0.40500
3344444;-0.39500
3347221;-0.40000
3349999;-0.40500
3352777;-0.41500
3355555;-0.42000
3358332;-0.39500
3361110;-0.38000
3363888;-0.38500
3366666;-0.39500
3369444;-0.39500
3372221;-0.40000
3374999;-0.38000
3377777;-0.37500
3380555;-0.38000
3383332;-0.37500
3386110;-0.38000
3388888;-0.37000
3391666;-0.36000
3394443;-0.34500
3397221;-0.35000
3399999;-0.34500
3402777;-0.36000
3405555;-0.35500
3408332;-0.33500
3411110;-0.31000
3413888;-0.32500
3416666;-0.32500
3419443;-0.32000
3422221;-0.31500
3424999;-0.30500
3427777;-0.29500
3430555;-0.28500
3433332;-0.28500
3436110;-0.29500
3438888;-0.28500
3441666;-0.28500
3444443;-0.29500
3447221;-0.29500
3449999;-0.30000
3452777;-0.31000
3455555;-0.30500
3458332;-0.29000
3461110;-0.28000
3463888;-0.27000
3466666;-0.26000
3469443;-0.27000
3472221;-0.29000
3474999;-0.30500
3477777;-0.32000
3480555;-0.33500
3483332;-0.37000
3486110;-0.38500
3488888;-0.40500
3491666;-0.39500
3494443;-0.39000
3497221;-0.41000
3499999;-0.41500
3502777;-0.41500
3505555;-0.42500
3508332;-0.42500
3511110;-0.41500
3513888;-0.42500
3516666;-0.43000
3519443;-0.43000
3522221;-0.43000
3524999;-0.43000
3527777;-0.42000
3530555;-0.42500
3533332;-0.43500
3536110;-0.43500
3538888;-0.43500
3541666;-0.42500
3544443;-0.42000
3547221;-0.42500
3549999;-0.43500
3552777;-0.43500
3555555;-0.43500
3558332;-0.44500
3561110;-0.45500
3563888;-0.51000
3566666;-0.53500
3569443;-0.56500
3572221;-0.58500
3574999;-0.61500
3577777;-0.59500
3580555;-0.53500
3583332;-0.39500
3586110;-0.27000
3588888;-0.11500
3591666;0.11000
3594443;0.37000
3597221;0.60000
3599999;0.76500
3602777;0.88500
3605555;0.92000
3608332;0.84500
3611110;0.60000
3613888;0.24000
3616666;-0.12000
3619443;-0.38500
3622221;-0.53500
3624999;-0.58500
3627777;-0.56000
3630555;-0.52500
3633332;-0.48500
3636110;-0.47000
3638888;-0.48000
3641666;-0.47500
3644443;-0.46000
3647221;-0.47000
3649999;-0.46500
3652777;-0.47500
3655555;-0.48000
3658332;-0.47000
3661110;-0.46500
3663888;-0.47500
3666666;-0.50000
3669443;-0.49500
3672221;-0.50000
3674999;-0.48500
3677777;-0.47500
3680555;-0.47000
3683332;-0.48500
3686110;-0.49000
3688888;-0.48000
3691666;-0.47000
3694443;-0.45000
3697221;-0.46000
3699999;-0.46500
3702777;-0.47500
3705555;-0.47500
3708332;-0.47500
3711110;-0.46500
3713888;-0.47500
3716666;-0.47500
3719443;-0.49000
3722221;-0.48500
3724999;-0.47000
3727777;-0.46000
3730555;-0.48000
3733332;-0.48000
3736110;-0.49000
3738888;-0.49000
3741666;-0.48000
3744443;-0.46000
3747221;-0.48000
3749999;-0.47000
3752777;-0.48500
3755555;-0.48500
3758332;-0.48000
3761110;-0.46500
3763888;-0.47000
3766666;-0.47500
3769443;-0.47500
3772221;-0.47500
3774999;-0.46500
3777777;-0.45000
3780554;-0.44000
3783332;-0.45500
3786110;-0.46000
3788888;-0.47500
3791666;-0.46000
3794443;-0.45500
3797221;-0.47500
3799999;-0.46500
3802777;-0.46500
3805554;-0.47500
3808332;-0.47000
3811110;-0.45500
3813888;-0.46000
3816666;-0.48000
3819443;-0.48000
3822221;-0.48500
3824999;-0.47500
3827777;-0.46500
3830554;-0.46500
3833332;-0.48500
3836110;-0.49000
3838888;-0.49500
3841666;-0.50500
3844443;-0.48500
3847221;-0.49500
3849999;-0.50500
3852777;-0.50500
3855554;-0.50500
3858332;-0.49000
3861110;-0.48500
3863888;-0.49500
3866666;-0.49000
3869443;-0.50000
3872221;-0.50500
3874999;-0.50500
3877777;-0.48500
3880554;-0.47500
3883332;-0.49500
3886110;-0.49000
3888888;-0.49000
3891666;-0.46500
3894443;-0.44500
3897221;-0.43000
3899999;-0.42500
3902777;-0.41500
3905554;-0.40500
3908332;-0.38500
3911110;-0.37000
3913888;-0.34500
3916666;-0.36000
3919443;-0.35000
3922221;-0.35500
3924999;-0.34000
3927777;-0.33000
3930554;-0.32500
3933332;-0.33000
3936110;-0.33000
3938888;-0.34000
3941666;-0.32000
3944443;-0.32000
3947221;-0.32500
3949999;-0.32500
3952777;-0.33000
3955554;-0.32500
3958332;-0.32000
3961110;-0.31000
3963888;-0.32000
3966666;-0.33000
3969443;-0.33500
3972221;-0.34500
3974999;-0.33000
3977777;-0.31500
3980554;-0.32000
3983332;-0.32500
3986110;-0.33000
3988888;-0.33500
3991666;-0.33000
3994443;-0.31500
3997221;-0.31000
3999999;-0.32500
4002777;-0.33500
4005554;-0.33000
4008332;-0.32000
4011110;-0.30500
4013888;-0.31500
4016666;-0.33000
4019443;-0.33000
4022221;-0.33500
4024999;-0.32500
4027777;-0.31000
4030554;-0.32000
4033332;-0.33000
4036110;-0.33500
4038888;-0.33000
4041666;-0.32500
4044443;-0.32500
4047221;-0.33000
4049999;-0.35500
4052777;-0.35500
4055554;-0.35500
4058332;-0.35500
4061110;-0.33500
4063888;-0.33500
4066666;-0.35000
4069443;-0.35000
4072221;-0.35000
4074999;-0.34500
4077777;-0.35000
4080554;-0.34500
4083332;-0.35500
4086110;-0.36000
4088888;-0.35000
4091666;-0.34000
4094443;-0.33000
4097221;-0.33500
4099999;-0.36000
4102777;-0.37000
4105554;-0.34500
4108332;-0.34500
4111110;-0.34000
4113888;-0.34000
4116666;-0.34000
4119443;-0.35000
4122221;-0.35500
4124999;-0.34500
4127777;-0.34500
4130554;-0.34500
4133332;-0.34000
4136110;-0.34500
4138888;-0.35000
4141666;-0.34000
4144443;-0.34000
4147221;-0.33000
4149999;-0.32500
4152777;-0.32000
4155554;-0.31000
4158332;-0.30000
4161110;-0.29500
4163888;-0.29000
4166666;-0.29000
4169443;-0.29000
4172221;-0.28500
4174999;-0.26000
4177777;-0.25000
4180554;-0.24500
4183332;-0.25500
4186110;-0.25000
4188888;-0.26000
4191665;-0.23000
4194443;-0.21500
4197221;-0.21000
4199999;-0.22000
4202777;-0.23000
4205554;-0.24000
4208332;-0.22000
4211110;-0.22000
4213888;-0.22500
4216665;-0.23500
4219443;-0.23000
4222221;-0.23000
4224999;-0.22000
4227777;-0.20000
4230554;-0.19500
4233332;-0.18500
4236110;-0.18000
4238888;-0.19500
4241665;-0.22000
4244443;-0.23500
4247221;-0.26000
4249999;-0.27000
4252777;-0.28500
4255554;-0.30000
4258332;-0.30500
4261110;-0.30500
4263888;-0.33000
4266665;-0.32500
4269443;-0.35000
4272221;-0.35500
4274999;-0.33000
4277777;-0.32000
4280554;-0.33500
4283332;-0.35000
4286110;-0.35000
4288888;-0.36000
4291665;-0.34000
4294443;-0.33000
4297221;-0.34000
4299999;-0.35000
4302777;-0.35500
4305554;-0.36000
4308332;-0.34500
4311110;-0.34000
4313888;-0.34500
4316665;-0.36500
4319443;-0.36500
4322221;-0.37000
4324999;-0.35000
4327777;-0.35000
4330554;-0.35500
4333332;-0.36000
4336110;-0.36000
4338888;-0.37500
4341665;-0.36500
4344443;-0.37000
4347221;-0.40000
4349999;-0.45000
4352777;-0.48000
4355554;-0.49000
4358332;-0.52000
4361110;-0.53000
4363888;-0.56500
4366665;-0.52000
4369443;-0.43000
4372221;-0.30500
4374999;-0.15000
4377777;0.03500
4380554;0.30500
4383332;0.56000
4386110;0.73500
4388888;0.83000
4391665;0.79500
4394443;0.58500
4397221;0.19500
4399999;-0.23000
4402777;-0.46500
4405554;-0.55000
4408332;-0.52000
4411110;-0.45500
4413888;-0.41500
4416665;-0.42000
4419443;-0.43000
4422221;-0.44000
4424999;-0.42500
4427777;-0.40000
4430554;-0.40000
4433332;-0.41500
4436110;-0.42500
4438888;-0.43000
4441665;-0.42000
4444443;-0.40500
4447221;-0.42000
4449999;-0.43000
4452777;-0.43000
4455554;-0.42500
4458332;-0.41500
4461110;-0.40000
4463888;-0.41000
4466665;-0.41500
4469443;-0.43000
4472221;-0.42000
4474999;-0.42500
4477777;-0.41000
4480554;-0.41000
4483332;-0.40500
4486110;-0.41500
4488888;-0.42000
4491665;-0.42000
4494443;-0.40500
4497221;-0.39500
4499999;-0.41500
4502777;-0.43000
4505554;-0.42000
4508332;-0.40500
4511110;-0.39000
4513888;-0.39000
4516665;-0.39500
4519443;-0.42000
4522221;-0.41500
4524999;-0.41500
4527777;-0.41500
4530554;-0.42000
4533332;-0.41500
4536110;-0.43000
4538888;-0.43000
4541665;-0.42000
4544443;-0.41500
4547221;-0.41500
4549999;-0.42500
4552777;-0.43000
4555554;-0.43000
4558332;-0.42500
4561110;-0.41500
4563888;-0.41000
4566665;-0.42000
4569443;-0.42000
4572221;-0.42000
4574999;-0.40000
4577776;-0.39500
4580554;-0.41000
4583332;-0.41000
4586110;-0.41000
4588888;-0.42000
4591665;-0.41000
4594443;-0.40500
4597221;-0.40500
4599999;-0.42000
4602776;-0.42000
4605554;-0.41000
4608332;-0.40000
4611110;-0.39500
4613888;-0.40500
4616665;-0.41500
4619443;-0.42500
4622221;-0.42500
4624999;-0.42500
4627776;-0.40500
4630554;-0.40500
4633332;-0.41000
4636110;-0.42500
4638888;-0.44000
4641665;-0.42000
4644443;-0.40500
4647221;-0.41500
4649999;-0.42000
4652776;-0.43000
4655554;-0.42500
4658332;-0.42000
4661110;-0.41500
4663888;-0.40500
4666665;-0.40500
4669443;-0.40000
4672221;-0.40000
4674999;-0.38000
4677776;-0.36000
4680554;-0.35000
4683332;-0.35000
4686110;-0.36000
4688888;-0.36500
4691665;-0.34500
4694443;-0.33500
4697221;-0.33000
4699999;-0.33000
4702776;-0.34500
4705554;-0.33500
4708332;-0.31000
4711110;-0.31000
4713888;-0.32000
4716665;-0.31500
4719443;-0.32000
4722221;-0.32500
4724999;-0.31500
4727776;-0.31500
4730554;-0.31000
4733332;-0.33000
4736110;-0.33000
4738888;-0.33000
4741665;-0.32500
4744443;-0.31500
4747221;-0.32500
4749999;-0.32000
4752776;-0.33000
4755554;-0.33000
4758332;-0.32000
4761110;-0.31500
4763888;-0.31500
4766665;-0.33000
4769443;-0.32500
4772221;-0.34000
4774999;-0.32500
4777776;-0.31000
4780554;-0.31500
4783332;-0.33000
4786110;-0.33000
4788888;-0.33500
4791665;-0.33000
4794443;-0.33000
4797221;-0.34500
4799999;-0.35000
4802776;-0.35500
4805554;-0.35500
4808332;-0.35000
4811110;-0.33500
4813888;-0.34000
4816665;-0.34000
4819443;-0.34500
4822221;-0.34500
4824999;-0.35000
4827776;-0.33000
4830554;-0.34000
4833332;-0.35000
4836110;-0.35500
4838888;-0.36000
4841665;-0.35500
4844443;-0.34500
4847221;-0.34500
4849999;-0.36500
4852776;-0.37000
4855554;-0.36500
4858332;-0.35500
4861110;-0.35500
4863888;-0.35500
4866665;-0.36500
4869443;-0.37000
4872221;-0.37000
4874999;-0.36000
4877776;-0.36000
4880554;-0.34500
4883332;-0.35500
4886110;-0.36000
4888888;-0.36500
4891665;-0.35000
4894443;-0.35000
4897221;-0.34000
4899999;-0.35500
4902776;-0.34500
4905554;-0.35000
4908332;-0.34500
4911110;-0.33000
4913888;-0.34000
4916665;-0.34500
4919443;-0.35500
4922221;-0.35000
4924999;-0.34500
4927776;-0.35000
4930554;-0.33000
4933332;-0.33000
4936110;-0.34500
4938888;-0.34500
4941665;-0.34000
4944443;-0.32500
4947221;-0.34000
4949999;-0.34500
4952776;-0.34500
4955554;-0.32000
4958332;-0.31000
4961110;-0.29500
4963887;-0.29500
4966665;-0.28500
4969443;-0.28000
4972221;-0.28000
4974999;-0.26000
4977776;-0.25000
4980554;-0.24000
4983332;-0.25500
4986110;-0.24500
4988887;-0.24000
4991665;-0.22500
4994443;-0.21000
4997221;-0.20000
4999999;-0.20500
5002776;-0.23000
5005554;-0.23000
5008332;-0.22000
5011110;-0.22500
5013887;-0.23000
5016665;-0.21500
5019443;-0.23000
5022221;-0.22500
5024999;-0.23000
5027776;-0.21000
5030554;-0.19500
5033332;-0.19000
5036110;-0.20500
5038887;-0.24000
5041665;-0.25500
5044443;-0.27500
5047221;-0.28000
5049999;-0.29500
5052776;-0.31000
5055554;-0.32500
5058332;-0.33500
5061110;-0.33500
5063887;-0.35000
5066665;-0.35000
5069443;-0.36500
5072221;-0.36000
5074999;-0.35000
5077776;-0.34000
5080554;-0.36500
5083332;-0.38000
5086110;-0.36500
5088887;-0.38000
5091665;-0.36500
5094443;-0.36000
5097221;-0.36000
5099999;-0.38000
5102776;-0.38000
5105554;-0.39500
5108332;-0.37500
5111110;-0.37000
5113887;-0.36500
5116665;-0.37000
5119443;-0.38500
5122221;-0.38000
5124999;-0.36500
5127776;-0.36500
5130554;-0.36500
5133332;-0.37500
5136110;-0.39500
5138887;-0.42000
5141665;-0.45500
5144443;-0.47000
5147221;-0.47500
5149999;-0.48000
5152776;-0.51000
5155554;-0.55500
5158332;-0.58500
5161110;-0.58000
5163887;-0.52500
5166665;-0.44000
5169443;-0.34000
5172221;-0.25000
5174999;-0.08500
5177776;0.14000
5180554;0.40000
5183332;0.61500
5186110;0.74000
5188887;0.77000
5191665;0.64500
5194443;0.38000
5197221;0.01500
5199999;-0.31500
5202776;-0.50000
5205554;-0.54500
5208332;-0.51000
5211110;-0.45000
5213887;-0.42000
5216665;-0.41000
5219443;-0.43000
5222221;-0.42500
5224999;-0.41500
5227776;-0.40000
5230554;-0.40500
5233332;-0.41500
5236110;-0.42000
5238887;-0.42000
5241665;-0.42500
5244443;-0.41500
5247221;-0.41000
5249999;-0.42000
5252776;-0.42000
5255554;-0.42500
5258332;-0.42000
5261110;-0.41000
5263887;-0.41000
5266665;-0.41000
5269443;-0.41500
5272221;-0.42500
5274999;-0.41500
5277776;-0.40500
5280554;-0.40500
5283332;-0.41000
5286110;-0.41000
5288887;-0.41500
5291665;-0.40000
5294443;-0.38500
5297221;-0.39500
5299999;-0.40500
5302776;-0.41500
5305554;-0.41500
5308332;-0.41000
5311110;-0.40000
5313887;-0.41000
5316665;-0.40500
5319443;-0.41000
5322221;-0.40500
5324999;-0.39500
5327776;-0.39000
5330554;-0.39000
5333332;-0.40500
5336110;-0.41000
5338887;-0.42000
5341665;-0.41500
5344443;-0.40500
5347221;-0.41000
5349999;-0.42000
5352776;-0.42500
5355554;-0.42000
5358332;-0.41500
5361110;-0.39000
5363887;-0.39000
5366665;-0.41000
5369443;-0.42500
5372221;-0.42000
5374998;-0.42000
5377776;-0.40000
5380554;-0.41000
5383332;-0.41000
5386110;-0.41000
5388887;-0.41000
5391665;-0.40000
5394443;-0.39000
5397221;-0.40000
5399998;-0.40000
5402776;-0.41000
5405554;-0.41500
5408332;-0.40000
5411110;-0.41500
5413887;-0.41500
5416665;-0.41500
5419443;-0.42000
5422221;-0.43500
5424998;-0.42000
5427776;-0.41500
5430554;-0.40000
5433332;-0.41500
5436110;-0.41500
5438887;-0.42000
5441665;-0.40000
5444443;-0.38500
5447221;-0.40000
5449998;-0.40500
5452776;-0.40500
5455554;-0.41500
5458332;-0.41000
5461110;-0.39500
5463887;-0.40500
5466665;-0.41000
5469443;-0.42000
5472221;-0.43000
5474998;-0.41000
5477776;-0.40000
5480554;-0.40000
5483332;-0.41000
5486110;-0.41000
5488887;-0.40500
5491665;-0.38500
5494443;-0.36500
5497221;-0.37000
5499998;-0.37500
5502776;-0.37000
5505554;-0.37000
5508332;-0.34000
5511110;-0.33500
5513887;-0.35000
5516665;-0.33000
5519443;-0.33000
5522221;-0.32500
5524998;-0.32000
5527776;-0.31000
5530554;-0.32000
5533332;-0.33500
5536110;-0.33500
5538887;-0.33000
5541665;-0.32500
5544443;-0.32000
5547221;-0.32000
5549998;-0.32500
5552776;-0.34000
5555554;-0.34000
5558332;-0.33500
5561110;-0.32000
5563887;-0.32000
5566665;-0.34500
5569443;-0.35500
5572221;-0.34500
5574998;-0.33000
5577776;-0.33500
5580554;-0.33500
5583332;-0.34000
5586110;-0.34000
5588887;-0.34000
5591665;-0.31500
5594443;-0.32500
5597221;-0.31500
5599998;-0.32500
5602776;-0.34500
5605554;-0.35000
5608332;-0.34000
5611110;-0.32000
5613887;-0.33500
5616665;-0.34000
5619443;-0.35000
5622221;-0.34000
5624998;-0.34500
5627776;-0.34500
5630554;-0.35000
5633332;-0.37000
5636110;-0.37000
5638887;-0.37500
5641665;-0.37500
5644443;-0.36500
5647221;-0.36500
5649998;-0.38000
5652776;-0.37000
5655554;-0.39500
5658332;-0.38000
5661110;-0.37000
5663887;-0.37000
5666665;-0.38000
5669443;-0.38500
5672221;-0.38000
5674998;-0.37500
5677776;-0.36500
5680554;-0.37500
5683332;-0.37000
5686110;-0.38000
5688887;-0.39000
5691665;-0.37000
5694443;-0.38000
5697221;-0.39000
5699998;-0.39500
5702776;-0.39500
5705554;-0.39000
5708332;-0.38000
5711110;-0.37500
5713887;-0.38000
5716665;-0.38000
5719443;-0.38500
5722221;-0.38500
5724998;-0.37500
5727776;-0.36500
5730554;-0.36000
5733332;-0.39000
5736110;-0.39000
5738887;-0.39500
5741665;-0.38500
5744443;-0.37500
5747221;-0.37000
5749998;-0.38500
5752776;-0.39000
5755554;-0.38500
5758332;-0.36500
5761109;-0.37000
5763887;-0.36000
5766665;-0.37500
5769443;-0.37500
5772221;-0.37500
5774998;-0.35000
5777776;-0.34500
5780554;-0.34000
5783332;-0.34000
5786109;-0.33500
5788887;-0.33500
5791665;-0.32500
5794443;-0.30500
5797221;-0.30500
5799998;-0.30500
5802776;-0.29000
5805554;-0.29500
5808332;-0.28000
5811109;-0.26000
5813887;-0.27000
5816665;-0.26500
5819443;-0.27500
5822221;-0.28500
5824998;-0.28500
5827776;-0.27500
5830554;-0.27500
5833332;-0.28000
5836109;-0.28000
5838887;-0.29500
5841665;-0.28500
5844443;-0.26000
5847221;-0.24500
5849998;-0.23500
5852776;-0.26000
5855554;-0.30500
5858332;-0.33000
5861109;-0.34000
5863887;-0.34500
5866665;-0.36000
5869443;-0.37000
5872221;-0.39000
5874998;-0.39000
5877776;-0.37000
5880554;-0.37500
5883332;-0.39000
5886109;-0.40500
5888887;-0.40500
5891665;-0.39500
5894443;-0.39000
5897221;-0.41000
5899998;-0.43000
5902776;-0.42000
5905554;-0.41500
5908332;-0.41500
5911109;-0.40500
5913887;-0.41000
5916665;-0.41500
5919443;-0.42500
5922221;-0.43000
5924998;-0.41500
5927776;-0.42000
5930554;-0.42500
5933332;-0.44000
5936109;-0.43500
5938887;-0.45000
5941665;-0.44500
5944443;-0.44000
5947221;-0.44000
5949998;-0.46500
5952776;-0.49500
5955554;-0.53500
5958332;-0.54500
5961109;-0.55500
5963887;-0.60500
5966665;-0.63500
5969443;-0.64000
5972221;-0.57000
5974998;-0.45500
5977776;-0.32000
5980554;-0.18500
5983332;0.02000
5986109;0.26500
5988887;0.53000
5991665;0.71000
5994443;0.79000
5997221;0.70000
5999998;0.44500
6002776;0.09000
6005554;-0.24500
6008332;-0.47000
6011109;-0.56500
6013887;-0.58500
6016665;-0.55000
6019443;-0.52500
6022221;-0.51000
6024998;-0.47500
6027776;-0.46500
6030554;-0.48500
6033332;-0.47500
6036109;-0.48000
6038887;-0.48000
6041665;-0.47000
6044443;-0.46500
6047221;-0.48000
6049998;-0.49000
6052776;-0.49000
6055554;-0.51000
6058332;-0.50000
6061109;-0.47000
6063887;-0.47000
6066665;-0.49000
6069443;-0.49500
6072221;-0.49500
6074998;-0.49000
6077776;-0.47000
6080554;-0.48000
6083332;-0.48500
6086109;-0.48500
6088887;-0.50500
6091665;-0.49000
6094443;-0.48000
6097221;-0.47500
6099998;-0.48000
6102776;-0.49000
6105554;-0.50500
6108332;-0.50500
6111109;-0.48500
6113887;-0.48500
6116665;-0.49500
6119443;-0.51000
6122221;-0.51500
6124998;-0.50000
6127776;-0.49500
6130554;-0.49000
6133332;-0.49000
6136109;-0.49500
6138887;-0.50500
6141665;-0.49000
6144443;-0.48000
6147221;-0.47500
6149998;-0.48500
6152776;-0.50000
6155554;-0.51000
6158332;-0.50500
6161109;-0.49000
6163887;-0.48500
6166665;-0.49500
6169443;-0.49000
6172220;-0.49500
6174998;-0.48500
6177776;-0.49000
6180554;-0.48500
6183332;-0.48000
6186109;-0.49500
6188887;-0.49000
6191665;-0.48500
6194443;-0.49000
6197220;-0.49000
6199998;-0.49500
6202776;-0.50500
6205554;-0.51000
6208332;-0.50000
6211109;-0.49500
6213887;-0.49500
6216665;-0.49000
6219443;-0.50500
