time_ms;ecg_value
0;-0.49000
2778;-0.49500
5556;-0.50000
8333;-0.49500
11111;-0.50000
13889;-0.49000
16667;-0.49500
19444;-0.49500
22222;-0.49500
25000;-0.50000
27778;-0.49500
30556;-0.48000
33333;-0.49000
36111;-0.50500
38889;-0.52500
41667;-0.54000
44444;-0.54000
47222;-0.53000
50000;-0.52500
52778;-0.53000
55556;-0.52000
58333;-0.54000
61111;-0.54500
63889;-0.56500
66667;-0.56000
69444;-0.56000
72222;-0.55500
75000;-0.56500
77778;-0.56500
80556;-0.56500
83333;-0.58000
86111;-0.56500
88889;-0.58000
91667;-0.56000
94444;-0.56500
97222;-0.53500
100000;-0.52500
102778;-0.50500
105556;-0.50000
108333;-0.50000
111111;-0.49500
113889;-0.47000
116667;-0.45000
119444;-0.44000
122222;-0.43000
125000;-0.44500
127778;-0.43000
130556;-0.42000
133333;-0.40500
136111;-0.40500
138889;-0.40500
141667;-0.40500
144444;-0.40500
147222;-0.39000
150000;-0.38000
152778;-0.37500
155556;-0.39500
158333;-0.39500
161111;-0.39000
163889;-0.38000
166667;-0.36000
169444;-0.37000
172222;-0.38500
175000;-0.40500
177778;-0.38000
180556;-0.38000
183333;-0.38000
186111;-0.39000
188889;-0.40000
191667;-0.40500
194444;-0.39500
197222;-0.38500
200000;-0.38000
202778;-0.36500
205555;-0.37500
208333;-0.38500
211111;-0.40000
213889;-0.39500
216667;-0.39500
219444;-0.39500
222222;-0.39000
225000;-0.40000
227778;-0.40500
230555;-0.40500
233333;-0.39000
236111;-0.39000
238889;-0.39500
241667;-0.41000
244444;-0.42000
247222;-0.41000
250000;-0.40000
252778;-0.39500
255555;-0.41000
258333;-0.42000
261111;-0.42000
263889;-0.41500
266667;-0.40000
269444;-0.41000
272222;-0.41000
275000;-0.43000
277778;-0.42500
280555;-0.42500
283333;-0.41000
286111;-0.41500
288889;-0.42000
291667;-0.42500
294444;-0.43000
297222;-0.41500
300000;-0.41500
302778;-0.41000
305555;-0.40500
308333;-0.41500
311111;-0.40500
313889;-0.41000
316667;-0.40000
319444;-0.41500
322222;-0.42000
325000;-0.42500
327778;-0.42000
330555;-0.41000
333333;-0.40500
336111;-0.38500
338889;-0.39500
341667;-0.40000
344444;-0.40500
347222;-0.39500
350000;-0.38500
352778;-0.38000
355555;-0.38500
358333;-0.40000
361111;-0.40500
363889;-0.39000
366667;-0.38000
369444;-0.38000
372222;-0.37500
375000;-0.39000
377778;-0.38000
380555;-0.37000
383333;-0.37000
386111;-0.36000
388889;-0.36000
391667;-0.37000
394444;-0.35500
397222;-0.32000
400000;-0.32000
402778;-0.30500
405555;-0.30500
408333;-0.31000
411111;-0.32000
413889;-0.30500
416667;-0.30000
419444;-0.29500
422222;-0.28500
425000;-0.28500
427778;-0.28500
430555;-0.28500
433333;-0.28500
436111;-0.28500
438889;-0.30000
441667;-0.31500
444444;-0.31500
447222;-0.29500
450000;-0.30500
452778;-0.30500
455555;-0.31000
458333;-0.29000
461111;-0.28000
463889;-0.27000
466667;-0.28000
469444;-0.31000
472222;-0.34500
475000;-0.35500
477778;-0.37500
480555;-0.38000
483333;-0.38500
486111;-0.38500
488889;-0.39500
491667;-0.42000
494444;-0.41500
497222;-0.40000
500000;-0.39000
502778;-0.39500
505555;-0.41000
508333;-0.41500
511111;-0.41500
513889;-0.41500
516667;-0.39500
519444;-0.41000
522222;-0.40000
525000;-0.41500
527778;-0.41000
530555;-0.40000
533333;-0.39000
536111;-0.39000
538889;-0.39500
541667;-0.41000
544444;-0.40500
547222;-0.39500
550000;-0.39000
552778;-0.40000
555555;-0.41000
558333;-0.43500
561111;-0.46500
563889;-0.48000
566667;-0.52000
569444;-0.52500
572222;-0.55500
575000;-0.60000
577778;-0.60500
580555;-0.51000
583333;-0.35500
586111;-0.18000
588889;0.00000
591667;0.22500
594444;0.51500
597222;0.78500
600000;0.96000
602778;1.03500
605555;0.95000
608333;0.65000
611111;0.16500
613889;-0.25500
616666;-0.47000
619444;-0.53000
622222;-0.50000
625000;-0.47500
627778;-0.45000
630555;-0.43000
633333;-0.42500
636111;-0.43000
638889;-0.43500
641666;-0.44500
644444;-0.44000
647222;-0.44000
650000;-0.42500
652778;-0.43500
655555;-0.43500
658333;-0.44000
661111;-0.45500
663889;-0.44000
666666;-0.42500
669444;-0.43000
672222;-0.43500
675000;-0.44500
677778;-0.43500
680555;-0.43500
683333;-0.41500
686111;-0.42500
688889;-0.43500
691666;-0.43500
694444;-0.44500
697222;-0.44000
700000;-0.43000
702778;-0.43500
705555;-0.44500
708333;-0.45500
711111;-0.45500
713889;-0.45000
716666;-0.44000
719444;-0.43000
722222;-0.43000
725000;-0.45000
727778;-0.44000
730555;-0.44000
733333;-0.42000
736111;-0.42500
738889;-0.44000
741666;-0.44000
744444;-0.45000
747222;-0.44500
750000;-0.43500
752778;-0.43000
755555;-0.43000
758333;-0.44500
761111;-0.44500
763889;-0.43500
766666;-0.42500
769444;-0.43000
772222;-0.44000
775000;-0.43500
777778;-0.43500
780555;-0.42500
783333;-0.41500
786111;-0.42000
788889;-0.42500
791666;-0.43500
794444;-0.45000
797222;-0.44000
800000;-0.44000
802778;-0.43000
805555;-0.44500
808333;-0.45000
811111;-0.45000
813889;-0.46000
816666;-0.45000
819444;-0.43500
822222;-0.45000
825000;-0.44500
827778;-0.45000
830555;-0.44500
833333;-0.44500
836111;-0.45000
838889;-0.45500
841666;-0.46500
844444;-0.48000
847222;-0.45500
850000;-0.45000
852778;-0.46500
855555;-0.46500
858333;-0.47500
861111;-0.49000
863889;-0.48000
866666;-0.48500
869444;-0.46000
872222;-0.46500
875000;-0.46500
877778;-0.46500
880555;-0.44500
883333;-0.43500
886111;-0.42000
888889;-0.42000
891666;-0.42000
894444;-0.40000
897222;-0.38500
900000;-0.36000
902778;-0.35000
905555;-0.34500
908333;-0.35000
911111;-0.34000
913889;-0.32500
916666;-0.32000
919444;-0.31500
922222;-0.31000
925000;-0.32500
927778;-0.32000
930555;-0.31500
933333;-0.30500
936111;-0.30500
938889;-0.32000
941666;-0.32000
944444;-0.32000
947222;-0.31500
950000;-0.30000
952778;-0.31500
955555;-0.31500
958333;-0.32000
961111;-0.32500
963889;-0.31000
966666;-0.30500
969444;-0.31000
972222;-0.30500
975000;-0.31500
977778;-0.32000
980555;-0.31500
983333;-0.30500
986111;-0.30500
988889;-0.31500
991666;-0.31500
994444;-0.32500
997222;-0.32500
1000000;-0.32500
1002777;-0.32000
1005555;-0.31500
1008333;-0.32500
1011111;-0.33500
1013889;-0.32500
1016666;-0.31500
1019444;-0.32000
1022222;-0.32000
1025000;-0.32500
1027777;-0.34500
1030555;-0.33500
1033333;-0.31500
1036111;-0.32000
1038889;-0.33000
1041666;-0.34500
1044444;-0.35500
1047222;-0.34000
1050000;-0.33000
1052777;-0.33000
1055555;-0.32500
1058333;-0.34000
1061111;-0.35000
1063889;-0.34500
1066666;-0.33500
1069444;-0.33000
1072222;-0.34500
1075000;-0.35000
1077777;-0.35500
1080555;-0.35500
1083333;-0.34500
1086111;-0.34500
1088889;-0.34500
1091666;-0.36000
1094444;-0.36000
1097222;-0.35500
1100000;-0.34000
1102777;-0.35000
1105555;-0.34000
1108333;-0.35500
1111111;-0.36500
1113889;-0.35000
1116666;-0.34000
1119444;-0.34000
1122222;-0.33500
1125000;-0.34500
1127777;-0.34000
1130555;-0.34000
1133333;-0.32500
1136111;-0.33000
1138889;-0.33500
1141666;-0.35000
1144444;-0.34500
1147222;-0.33500
1150000;-0.33000
1152777;-0.33500
1155555;-0.33000
1158333;-0.34000
1161111;-0.35000
1163889;-0.34500
1166666;-0.33000
1169444;-0.34000
1172222;-0.32500
1175000;-0.33000
1177777;-0.31500
1180555;-0.29500
1183333;-0.28500
1186111;-0.26500
1188889;-0.27000
1191666;-0.27000
1194444;-0.27000
1197222;-0.24500
1200000;-0.22000
1202777;-0.22000
1205555;-0.23000
1208333;-0.22500
1211111;-0.22500
1213889;-0.21000
1216666;-0.21500
1219444;-0.20000
1222222;-0.22500
1225000;-0.24000
1227777;-0.25000
1230555;-0.24500
1233333;-0.23500
1236111;-0.23000
1238889;-0.24000
1241666;-0.27000
1244444;-0.28000
1247222;-0.26000
1250000;-0.23500
1252777;-0.22500
1255555;-0.20000
1258333;-0.19500
1261111;-0.22000
1263889;-0.24000
1266666;-0.26000
1269444;-0.27500
1272222;-0.29000
1275000;-0.31000
1277777;-0.33000
1280555;-0.32500
1283333;-0.32500
1286111;-0.33000
1288889;-0.34000
1291666;-0.34500
1294444;-0.35000
1297222;-0.33500
1300000;-0.33000
1302777;-0.34500
1305555;-0.34000
1308333;-0.35000
1311111;-0.36000
1313889;-0.35500
1316666;-0.35500
1319444;-0.35000
1322222;-0.36000
1325000;-0.36000
1327777;-0.36500
1330555;-0.36500
1333333;-0.35000
1336111;-0.36000
1338889;-0.36000
1341666;-0.36500
1344444;-0.38500
1347222;-0.40500
1350000;-0.44500
1352777;-0.47500
1355555;-0.49500
1358333;-0.53500
1361111;-0.57000
1363889;-0.53500
1366666;-0.42500
1369444;-0.26000
1372222;-0.07500
1375000;0.11500
1377777;0.39000
1380555;0.71000
1383333;0.97500
1386111;1.12500
1388888;1.13500
1391666;0.91500
1394444;0.47500
1397222;-0.01500
1400000;-0.36000
1402777;-0.49000
1405555;-0.48500
1408333;-0.45500
1411111;-0.42500
1413888;-0.38500
1416666;-0.36500
1419444;-0.37000
1422222;-0.37000
1425000;-0.38500
1427777;-0.38000
1430555;-0.38500
1433333;-0.36000
1436111;-0.37500
1438888;-0.39500
1441666;-0.39500
1444444;-0.41000
1447222;-0.39000
1450000;-0.40000
1452777;-0.40000
1455555;-0.40000
1458333;-0.39500
1461111;-0.40500
1463888;-0.39000
1466666;-0.38000
1469444;-0.38500
1472222;-0.39000
1475000;-0.39500
1477777;-0.40000
1480555;-0.39500
1483333;-0.39500
1486111;-0.38500
1488888;-0.39500
1491666;-0.40000
1494444;-0.40000
1497222;-0.39500
1500000;-0.38000
1502777;-0.38000
1505555;-0.38500
1508333;-0.39000
1511111;-0.39000
1513888;-0.38000
1516666;-0.37500
1519444;-0.38000
1522222;-0.38000
1525000;-0.38000
1527777;-0.40000
1530555;-0.39500
1533333;-0.37500
1536111;-0.39000
1538888;-0.38500
1541666;-0.39000
1544444;-0.39500
1547222;-0.38500
1550000;-0.38500
1552777;-0.39500
1555555;-0.38500
1558333;-0.39000
1561111;-0.39500
1563888;-0.39000
1566666;-0.39500
1569444;-0.37500
1572222;-0.39000
1575000;-0.38000
1577777;-0.39000
1580555;-0.38000
1583333;-0.38000
1586111;-0.38000
1588888;-0.38000
1591666;-0.39000
1594444;-0.39500
1597222;-0.38000
1600000;-0.37500
1602777;-0.38500
1605555;-0.38500
1608333;-0.38500
1611111;-0.37500
1613888;-0.40000
1616666;-0.38000
1619444;-0.38500
1622222;-0.37500
1625000;-0.39500
1627777;-0.39500
1630555;-0.38500
1633333;-0.39000
1636111;-0.39000
1638888;-0.39000
1641666;-0.39500
1644444;-0.39500
1647222;-0.39000
1650000;-0.38000
1652777;-0.38500
1655555;-0.38500
1658333;-0.39000
1661111;-0.38000
1663888;-0.38000
1666666;-0.36500
1669444;-0.37000
1672222;-0.35500
1675000;-0.37000
1677777;-0.37000
1680555;-0.35500
1683333;-0.33000
1686111;-0.32500
1688888;-0.33500
1691666;-0.35000
1694444;-0.33500
1697222;-0.31000
1700000;-0.31500
1702777;-0.30000
1705555;-0.30500
1708333;-0.30500
1711111;-0.31000
1713888;-0.27500
1716666;-0.27500
1719444;-0.26000
1722222;-0.26500
1725000;-0.27000
1727777;-0.28000
1730555;-0.26500
1733333;-0.25500
1736111;-0.26500
1738888;-0.27000
1741666;-0.28500
1744444;-0.28500
1747222;-0.28000
1750000;-0.26500
1752777;-0.26500
1755555;-0.27000
1758333;-0.28500
1761111;-0.29000
1763888;-0.27500
1766666;-0.27000
1769444;-0.28000
1772222;-0.27000
1775000;-0.29500
1777777;-0.29000
1780555;-0.28000
1783333;-0.27500
1786111;-0.27000
1788888;-0.28000
1791666;-0.28500
1794444;-0.29500
1797222;-0.27500
1799999;-0.28000
1802777;-0.28500
1805555;-0.29000
1808333;-0.29500
1811111;-0.31500
1813888;-0.30000
1816666;-0.30500
1819444;-0.29500
1822222;-0.29500
1824999;-0.31000
1827777;-0.31500
1830555;-0.30500
1833333;-0.29000
1836111;-0.29500
1838888;-0.30000
1841666;-0.31000
1844444;-0.31000
1847222;-0.31000
1849999;-0.30000
1852777;-0.29500
1855555;-0.30000
1858333;-0.32000
1861111;-0.32000
1863888;-0.31000
1866666;-0.31500
1869444;-0.30500
1872222;-0.31500
1874999;-0.31000
1877777;-0.32000
1880555;-0.31500
1883333;-0.31500
1886111;-0.30000
1888888;-0.32000
1891666;-0.33000
1894444;-0.33500
1897222;-0.31000
1899999;-0.31500
1902777;-0.30500
1905555;-0.31500
1908333;-0.32000
1911111;-0.33500
1913888;-0.31500
1916666;-0.29500
1919444;-0.31000
1922222;-0.31500
1924999;-0.31000
1927777;-0.32000
1930555;-0.31500
1933333;-0.29500
1936111;-0.29500
1938888;-0.29500
1941666;-0.29000
1944444;-0.30500
1947222;-0.30500
1949999;-0.28500
1952777;-0.29500
1955555;-0.27500
1958333;-0.29500
1961111;-0.28500
1963888;-0.28000
1966666;-0.26500
1969444;-0.25500
1972222;-0.26000
1974999;-0.24000
1977777;-0.23500
1980555;-0.23000
1983333;-0.22000
1986111;-0.20500
1988888;-0.21500
1991666;-0.21000
1994444;-0.21000
1997222;-0.19500
1999999;-0.19000
2002777;-0.17500
2005555;-0.17000
2008333;-0.19500
2011111;-0.19500
2013888;-0.20000
2016666;-0.19500
2019444;-0.20500
2022222;-0.20500
2024999;-0.19500
2027777;-0.22000
2030555;-0.22500
2033333;-0.20000
2036111;-0.20000
2038888;-0.18500
2041666;-0.17500
2044444;-0.19500
2047222;-0.22000
2049999;-0.23500
2052777;-0.24500
2055555;-0.26500
2058333;-0.28500
2061111;-0.29500
2063888;-0.29500
2066666;-0.30000
2069444;-0.30000
2072222;-0.31500
2074999;-0.32500
2077777;-0.31500
2080555;-0.30500
2083333;-0.29500
2086111;-0.31000
2088888;-0.31000
2091666;-0.33000
2094444;-0.33500
2097222;-0.32500
2099999;-0.33500
2102777;-0.33000
2105555;-0.33500
2108333;-0.33500
2111111;-0.34000
2113888;-0.32500
2116666;-0.32000
2119444;-0.30500
2122222;-0.32500
2124999;-0.34000
2127777;-0.34500
2130555;-0.34000
2133333;-0.35500
2136111;-0.38000
2138888;-0.42500
2141666;-0.45500
2144444;-0.45000
2147222;-0.46500
2149999;-0.49500
2152777;-0.53500
2155555;-0.55000
2158333;-0.48500
2161111;-0.36500
2163888;-0.19000
2166666;-0.01500
2169444;0.19500
2172222;0.48000
2174999;0.76000
2177777;0.98500
2180555;1.09500
2183333;1.01000
2186110;0.66500
2188888;0.18500
2191666;-0.23500
2194444;-0.44000
2197222;-0.44000
2199999;-0.38000
2202777;-0.32500
2205555;-0.32000
2208333;-0.35500
2211110;-0.36000
2213888;-0.36000
2216666;-0.34500
2219444;-0.34500
2222222;-0.35000
2224999;-0.37500
2227777;-0.37500
2230555;-0.37000
2233333;-0.36500
2236110;-0.36000
2238888;-0.35000
2241666;-0.36500
2244444;-0.37000
2247222;-0.35500
2249999;-0.35000
2252777;-0.35500
2255555;-0.36500
2258333;-0.36500
2261110;-0.37000
2263888;-0.36500
2266666;-0.34500
2269444;-0.34500
2272222;-0.34500
2274999;-0.35500
2277777;-0.36500
2280555;-0.36000
2283333;-0.34500
2286110;-0.34500
2288888;-0.35000
2291666;-0.35500
2294444;-0.36000
2297222;-0.35500
2299999;-0.33500
2302777;-0.35000
2305555;-0.35500
2308333;-0.35500
2311110;-0.36500
2313888;-0.35000
2316666;-0.35500
2319444;-0.36000
2322222;-0.35000
2324999;-0.35500
2327777;-0.37000
2330555;-0.36000
2333333;-0.35000
2336110;-0.36500
2338888;-0.38000
2341666;-0.39500
2344444;-0.38500
2347222;-0.36000
2349999;-0.35500
2352777;-0.35500
2355555;-0.36000
2358333;-0.36000
2361110;-0.36000
2363888;-0.36000
2366666;-0.33500
2369444;-0.33500
2372222;-0.34500
2374999;-0.36000
2377777;-0.37000
2380555;-0.36000
2383333;-0.35000
2386110;-0.35000
2388888;-0.35000
2391666;-0.37000
2394444;-0.36500
2397222;-0.36000
2399999;-0.35000
2402777;-0.36000
2405555;-0.38500
2408333;-0.38500
2411110;-0.39500
2413888;-0.38000
2416666;-0.36500
2419444;-0.36000
2422222;-0.38000
2424999;-0.38500
2427777;-0.40000
2430555;-0.40500
2433333;-0.40000
2436110;-0.41000
2438888;-0.41000
2441666;-0.41500
2444444;-0.39500
2447222;-0.39500
2449999;-0.38000
2452777;-0.37500
2455555;-0.38500
2458333;-0.39000
2461110;-0.39000
2463888;-0.38500
2466666;-0.37000
2469444;-0.37000
2472222;-0.37000
2474999;-0.36000
2477777;-0.35000
2480555;-0.35000
2483333;-0.33500
2486110;-0.33500
2488888;-0.32000
2491666;-0.31500
2494444;-0.32500
2497222;-0.30500
2499999;-0.29500
2502777;-0.28500
2505555;-0.30000
2508333;-0.30000
2511110;-0.32000
2513888;-0.31000
2516666;-0.28500
2519444;-0.28000
2522222;-0.29000
2524999;-0.30500
2527777;-0.30000
2530555;-0.28500
2533333;-0.28500
2536110;-0.29000
2538888;-0.30500
2541666;-0.31500
2544444;-0.33000
2547222;-0.30000
2549999;-0.30000
2552777;-0.30500
2555555;-0.29500
2558333;-0.32000
2561110;-0.32500
2563888;-0.31000
2566666;-0.29500
2569444;-0.31000
2572222;-0.31500
2574999;-0.31500
2577777;-0.31500
2580555;-0.31000
2583333;-0.31500
2586110;-0.30000
2588888;-0.32000
2591666;-0.34000
2594444;-0.34500
2597221;-0.33500
2599999;-0.32500
2602777;-0.32000
2605555;-0.32500
2608333;-0.33500
2611110;-0.32500
2613888;-0.33000
2616666;-0.33000
2619444;-0.32000
2622221;-0.32000
2624999;-0.34000
2627777;-0.34500
2630555;-0.35000
2633333;-0.34500
2636110;-0.34500
2638888;-0.37000
2641666;-0.37500
2644444;-0.37500
2647221;-0.37000
2649999;-0.36000
2652777;-0.36500
2655555;-0.36500
2658333;-0.37500
2661110;-0.38500
2663888;-0.36500
2666666;-0.36000
2669444;-0.36000
2672221;-0.37000
2674999;-0.37500
2677777;-0.38000
2680555;-0.37000
2683333;-0.35500
2686110;-0.35500
2688888;-0.35000
2691666;-0.37500
2694444;-0.37500
2697221;-0.37500
2699999;-0.37500
2702777;-0.37000
2705555;-0.37500
2708333;-0.38000
2711110;-0.39000
2713888;-0.37500
2716666;-0.35500
2719444;-0.35000
2722221;-0.36500
2724999;-0.39000
2727777;-0.37500
2730555;-0.36000
2733333;-0.34500
2736110;-0.34500
2738888;-0.34000
2741666;-0.34500
2744444;-0.33500
2747221;-0.33000
2749999;-0.31500
2752777;-0.30500
2755555;-0.29500
2758333;-0.29500
2761110;-0.29500
2763888;-0.29500
2766666;-0.27500
2769444;-0.29000
2772221;-0.28500
2774999;-0.29000
2777777;-0.28000
2780555;-0.27500
2783333;-0.25500
2786110;-0.25500
2788888;-0.27500
2791666;-0.29000
2794444;-0.28000
2797221;-0.27500
2799999;-0.27500
2802777;-0.26500
2805555;-0.28000
2808333;-0.29500
2811110;-0.29500
2813888;-0.29000
2816666;-0.27500
2819444;-0.26000
2822221;-0.24000
2824999;-0.27500
2827777;-0.31000
2830555;-0.32500
2833333;-0.33500
2836110;-0.36500
2838888;-0.38500
2841666;-0.40500
2844444;-0.41500
2847221;-0.40500
2849999;-0.40000
2852777;-0.40000
2855555;-0.39000
2858333;-0.40000
2861110;-0.41000
2863888;-0.41000
2866666;-0.40000
2869444;-0.40000
2872221;-0.40500
2874999;-0.40500
2877777;-0.41500
2880555;-0.40500
2883333;-0.39500
2886110;-0.39500
2888888;-0.39500
2891666;-0.41000
2894444;-0.42000
2897221;-0.42000
2899999;-0.41000
2902777;-0.40500
2905555;-0.40000
2908333;-0.39500
2911110;-0.41000
2913888;-0.44500
2916666;-0.48500
2919444;-0.51500
2922221;-0.54000
2924999;-0.58000
2927777;-0.62000
2930555;-0.61000
2933333;-0.55500
2936110;-0.44500
2938888;-0.29000
2941666;-0.12500
2944444;0.10500
2947221;0.40000
2949999;0.66000
2952777;0.83500
2955555;0.89500
2958333;0.76500
2961110;0.42000
2963888;-0.02500
2966666;-0.35500
2969444;-0.49500
2972221;-0.51500
2974999;-0.51500
2977777;-0.49000
2980555;-0.46000
2983332;-0.44500
2986110;-0.44500
2988888;-0.44000
2991666;-0.45500
2994444;-0.45000
2997221;-0.46000
2999999;-0.46000
3002777;-0.45000
3005555;-0.47000
3008332;-0.46500
3011110;-0.47000
3013888;-0.46000
3016666;-0.45500
3019444;-0.46000
3022221;-0.46000
3024999;-0.46500
3027777;-0.46000
3030555;-0.45000
3033332;-0.45000
3036110;-0.44500
3038888;-0.45500
3041666;-0.46000
3044444;-0.46000
3047221;-0.46000
3049999;-0.46000
3052777;-0.46500
3055555;-0.45500
3058332;-0.45500
3061110;-0.46000
3063888;-0.44500
3066666;-0.44000
3069444;-0.44500
3072221;-0.45000
3074999;-0.47000
3077777;-0.47500
3080555;-0.46500
3083332;-0.45500
3086110;-0.45000
3088888;-0.45500
3091666;-0.46500
3094444;-0.47500
3097221;-0.47500
3099999;-0.48000
3102777;-0.48000
3105555;-0.47500
3108332;-0.48500
3111110;-0.48000
3113888;-0.46500
3116666;-0.46000
3119444;-0.45500
3122221;-0.47000
3124999;-0.48500
3127777;-0.48500
3130555;-0.48000
3133332;-0.46500
3136110;-0.45000
3138888;-0.45500
3141666;-0.46500
3144444;-0.47000
3147221;-0.46500
3149999;-0.45500
3152777;-0.45500
3155555;-0.47000
3158332;-0.48000
3161110;-0.51000
3163888;-0.48500
3166666;-0.47500
3169444;-0.46000
3172221;-0.47500
3174999;-0.47000
3177777;-0.50000
3180555;-0.49500
3183332;-0.49000
3186110;-0.49500
3188888;-0.50500
3191666;-0.51500
3194444;-0.52500
3197221;-0.52500
3199999;-0.51500
3202777;-0.51500
3205555;-0.52000
3208332;-0.53000
3211110;-0.53500
3213888;-0.52500
3216666;-0.51000
3219444;-0.51500
3222221;-0.51000
3224999;-0.52500
3227777;-0.53000
3230555;-0.51500
3233332;-0.50500
3236110;-0.51500
3238888;-0.50500
3241666;-0.51000
3244444;-0.50500
3247221;-0.48500
3249999;-0.47500
3252777;-0.46000
3255555;-0.44500
3258332;-0.43000
3261110;-0.41500
3263888;-0.40500
3266666;-0.39000
3269444;-0.38500
3272221;-0.38000
3274999;-0.38000
3277777;-0.38500
3280555;-0.36500
3283332;-0.35500
3286110;-0.35500
3288888;-0.36500
3291666;-0.37000
3294444;-0.38500
3297221;-0.37000
3299999;-0.37000
3302777;-0.38500
3305555;-0.38500
3308332;-0.38000
3311110;-0.39000
3313888;-0.38000
3316666;-0.36000
3319444;-0.36000
3322221;-0.37000
3324999;-0.37500
3327777;-0.37000
3330555;-0.37000
3333332;-0.35500
3336110;-0.36000
3338888;-0.37000
3341666;-0.37500
3344444;-0.38500
3347221;-0.36500
3349999;-0.36000
3352777;-0.36000
3355555;-0.36500
3358332;-0.37500
3361110;-0.38500
3363888;-0.37500
3366666;-0.36500
3369444;-0.37000
3372221;-0.38000
3374999;-0.38000
3377777;-0.39500
3380555;-0.38000
3383332;-0.37000
3386110;-0.37500
3388888;-0.38000
3391666;-0.39000
3394443;-0.39000
3397221;-0.39500
3399999;-0.39000
3402777;-0.39000
3405555;-0.39500
3408332;-0.40500
3411110;-0.41000
3413888;-0.40000
3416666;-0.41000
3419443;-0.40500
3422221;-0.41000
3424999;-0.41500
3427777;-0.41000
3430555;-0.40000
3433332;-0.40000
3436110;-0.39500
3438888;-0.39500
3441666;-0.40000
3444443;-0.40500
3447221;-0.39500
3449999;-0.38500
3452777;-0.38000
3455555;-0.39000
3458332;-0.39000
3461110;-0.40500
3463888;-0.40000
3466666;-0.38500
3469443;-0.39000
3472221;-0.41000
3474999;-0.41500
3477777;-0.42500
3480555;-0.39500
3483332;-0.38500
3486110;-0.39500
3488888;-0.40000
3491666;-0.41000
3494443;-0.41000
3497221;-0.39000
3499999;-0.38000
3502777;-0.37500
3505555;-0.38500
3508332;-0.39000
3511110;-0.38500
3513888;-0.38000
3516666;-0.38000
3519443;-0.37500
3522221;-0.38000
3524999;-0.38500
3527777;-0.38000
3530555;-0.36000
3533332;-0.33500
3536110;-0.32500
3538888;-0.34000
3541666;-0.34500
3544443;-0.34000
3547221;-0.33500
3549999;-0.31500
3552777;-0.31500
3555555;-0.30500
3558332;-0.31000
3561110;-0.31000
3563888;-0.28500
3566666;-0.27500
3569443;-0.27500
3572221;-0.27500
3574999;-0.28500
3577777;-0.28500
3580555;-0.28000
3583332;-0.28000
3586110;-0.28000
3588888;-0.27500
3591666;-0.29000
3594443;-0.31500
3597221;-0.29500
3599999;-0.28500
3602777;-0.28500
3605555;-0.30000
3608332;-0.31500
3611110;-0.31500
3613888;-0.29500
3616666;-0.25000
3619443;-0.25500
3622221;-0.28500
3624999;-0.33000
3627777;-0.34000
3630555;-0.35500
3633332;-0.35500
3636110;-0.37000
3638888;-0.39000
3641666;-0.40000
3644443;-0.42000
3647221;-0.40000
3649999;-0.39500
3652777;-0.38500
3655555;-0.39000
3658332;-0.40000
3661110;-0.40500
3663888;-0.40000
3666666;-0.39500
3669443;-0.38500
3672221;-0.39000
3674999;-0.39500
3677777;-0.40500
3680555;-0.39500
3683332;-0.38000
3686110;-0.38500
3688888;-0.39500
3691666;-0.39000
3694443;-0.39500
3697221;-0.38500
3699999;-0.38000
3702777;-0.39500
3705555;-0.39500
3708332;-0.41000
3711110;-0.43500
3713888;-0.46000
3716666;-0.49000
3719443;-0.50500
3722221;-0.53500
3724999;-0.57000
3727777;-0.60000
3730555;-0.55000
3733332;-0.44000
3736110;-0.29500
3738888;-0.15000
3741666;-0.01500
3744443;0.16500
3747221;0.38000
3749999;0.60500
3752777;0.76000
3755555;0.86500
3758332;0.92000
3761110;1.00000
3763888;1.07500
3766666;1.14500
3769443;1.11000
3772221;0.96000
3774999;0.65000
3777777;0.23500
3780554;-0.15000
3783332;-0.38000
3786110;-0.48500
3788888;-0.50500
3791666;-0.47500
3794443;-0.45500
3797221;-0.41500
3799999;-0.40000
3802777;-0.41000
3805554;-0.41500
3808332;-0.42500
3811110;-0.43500
3813888;-0.42500
3816666;-0.43000
3819443;-0.43000
3822221;-0.44000
3824999;-0.44000
3827777;-0.44500
3830554;-0.43500
3833332;-0.43000
3836110;-0.43000
3838888;-0.43500
3841666;-0.45000
3844443;-0.45500
3847221;-0.44000
3849999;-0.43500
3852777;-0.43000
3855554;-0.44500
3858332;-0.44500
3861110;-0.45000
3863888;-0.43500
3866666;-0.42500
3869443;-0.42500
3872221;-0.45000
3874999;-0.44500
3877777;-0.46000
3880554;-0.44500
3883332;-0.43000
3886110;-0.43000
3888888;-0.44500
3891666;-0.45500
3894443;-0.46500
3897221;-0.46000
3899999;-0.44500
3902777;-0.44000
3905554;-0.46000
3908332;-0.46000
3911110;-0.45000
3913888;-0.44500
3916666;-0.43500
3919443;-0.44000
3922221;-0.44500
3924999;-0.46000
3927777;-0.47500
3930554;-0.45000
3933332;-0.44000
3936110;-0.44500
3938888;-0.45500
3941666;-0.46500
3944443;-0.46000
3947221;-0.45500
3949999;-0.43500
3952777;-0.43500
3955554;-0.44000
3958332;-0.45000
3961110;-0.46000
3963888;-0.45000
3966666;-0.44000
3969443;-0.43000
3972221;-0.44000
3974999;-0.45000
3977777;-0.45500
3980554;-0.45500
3983332;-0.44500
3986110;-0.44500
3988888;-0.45500
3991666;-0.46000
3994443;-0.46500
3997221;-0.46500
3999999;-0.44500
4002777;-0.46000
4005554;-0.47000
4008332;-0.47500
4011110;-0.48500
4013888;-0.47500
4016666;-0.47000
4019443;-0.46000
4022221;-0.47500
4024999;-0.48000
4027777;-0.49500
4030554;-0.48500
4033332;-0.49000
4036110;-0.48000
4038888;-0.48000
4041666;-0.49000
4044443;-0.49500
4047221;-0.48000
4049999;-0.46500
4052777;-0.47000
4055554;-0.45500
4058332;-0.46000
4061110;-0.45000
4063888;-0.43500
4066666;-0.42000
4069443;-0.41500
4072221;-0.41000
4074999;-0.41500
4077777;-0.41500
4080554;-0.40000
4083332;-0.38000
4086110;-0.38000
4088888;-0.38000
4091666;-0.39500
4094443;-0.37500
4097221;-0.36000
4099999;-0.34500
4102777;-0.35000
4105554;-0.35000
4108332;-0.35000
4111110;-0.35500
4113888;-0.34000
4116666;-0.33500
4119443;-0.32500
4122221;-0.33000
4124999;-0.34000
4127777;-0.34000
4130554;-0.33500
4133332;-0.32500
4136110;-0.31500
4138888;-0.32000
4141666;-0.33000
4144443;-0.33500
4147221;-0.32500
4149999;-0.31500
4152777;-0.31500
4155554;-0.32500
4158332;-0.33000
4161110;-0.34000
4163888;-0.32500
4166666;-0.32000
4169443;-0.31500
4172221;-0.32500
4174999;-0.32500
4177777;-0.33500
4180554;-0.33000
4183332;-0.33000
4186110;-0.32000
4188888;-0.32500
4191665;-0.33500
4194443;-0.35500
4197221;-0.34500
4199999;-0.33000
4202777;-0.33500
4205554;-0.34500
4208332;-0.35000
4211110;-0.35500
4213888;-0.35500
4216665;-0.33500
4219443;-0.33500
4222221;-0.34000
4224999;-0.35000
4227777;-0.36000
4230554;-0.36500
4233332;-0.35000
4236110;-0.35500
4238888;-0.36000
4241665;-0.36000
4244443;-0.37000
4247221;-0.36500
4249999;-0.35500
4252777;-0.35000
4255554;-0.35500
4258332;-0.36500
4261110;-0.36500
4263888;-0.36000
4266665;-0.35000
4269443;-0.35500
4272221;-0.36000
4274999;-0.36000
4277777;-0.38000
4280554;-0.36500
4283332;-0.36500
4286110;-0.36500
4288888;-0.37000
4291665;-0.37500
4294443;-0.37000
4297221;-0.37000
4299999;-0.35500
4302777;-0.36500
4305554;-0.38000
4308332;-0.39000
4311110;-0.38500
4313888;-0.37500
4316665;-0.36000
4319443;-0.36500
4322221;-0.37500
4324999;-0.38000
4327777;-0.37500
4330554;-0.37000
4333332;-0.36000
4336110;-0.35500
4338888;-0.36000
4341665;-0.36000
4344443;-0.35500
4347221;-0.36000
4349999;-0.34000
4352777;-0.34000
4355554;-0.35000
4358332;-0.36500
4361110;-0.37000
4363888;-0.36000
4366665;-0.35000
4369443;-0.35500
4372221;-0.35000
4374999;-0.37000
4377777;-0.38000
4380554;-0.35500
4383332;-0.35500
4386110;-0.36000
4388888;-0.36000
4391665;-0.36000
4394443;-0.36500
4397221;-0.35500
4399999;-0.33500
4402777;-0.31500
4405554;-0.31500
4408332;-0.31000
4411110;-0.31500
4413888;-0.29500
4416665;-0.27000
4419443;-0.27000
4422221;-0.27500
4424999;-0.26500
4427777;-0.26500
4430554;-0.25000
4433332;-0.24000
4436110;-0.23500
4438888;-0.23500
4441665;-0.24000
4444443;-0.26000
4447221;-0.25500
4449999;-0.26500
4452777;-0.27000
4455554;-0.27500
4458332;-0.27500
4461110;-0.28000
4463888;-0.27500
4466665;-0.28000
4469443;-0.27500
4472221;-0.27500
4474999;-0.27000
4477777;-0.26000
4480554;-0.24000
4483332;-0.25000
4486110;-0.28000
4488888;-0.30500
4491665;-0.32000
4494443;-0.32000
4497221;-0.33000
4499999;-0.33000
4502777;-0.34000
4505554;-0.34500
4508332;-0.36500
4511110;-0.37000
4513888;-0.36500
4516665;-0.35000
4519443;-0.34500
4522221;-0.36500
4524999;-0.37000
4527777;-0.37500
4530554;-0.37000
4533332;-0.36500
4536110;-0.37500
4538888;-0.38500
4541665;-0.39000
4544443;-0.39500
4547221;-0.39500
4549999;-0.37500
4552777;-0.38000
4555554;-0.38500
4558332;-0.38500
4561110;-0.39000
4563888;-0.38500
4566665;-0.38000
4569443;-0.37500
4572221;-0.38000
4574999;-0.39000
4577776;-0.41000
4580554;-0.45000
4583332;-0.47500
4586110;-0.48000
4588888;-0.48000
4591665;-0.48500
4594443;-0.49500
4597221;-0.53000
4599999;-0.56000
4602776;-0.57500
4605554;-0.56000
4608332;-0.48500
4611110;-0.37500
4613888;-0.21500
4616665;-0.03500
4619443;0.18000
4622221;0.43000
4624999;0.71000
4627776;0.96500
4630554;1.10000
4633332;1.11000
4636110;0.91000
4638888;0.50000
4641665;0.02500
4644443;-0.35000
4647221;-0.48000
4649999;-0.46500
4652776;-0.39000
4655554;-0.35500
4658332;-0.36500
4661110;-0.38500
4663888;-0.38000
4666665;-0.37500
4669443;-0.38000
4672221;-0.38500
4674999;-0.40000
4677776;-0.41500
4680554;-0.40500
4683332;-0.40000
4686110;-0.40500
4688888;-0.40500
4691665;-0.41000
4694443;-0.42000
4697221;-0.40500
4699999;-0.39500
4702776;-0.40000
4705554;-0.39500
4708332;-0.40000
4711110;-0.40500
4713888;-0.39000
4716665;-0.39000
4719443;-0.39500
4722221;-0.40500
4724999;-0.40000
4727776;-0.40000
4730554;-0.39000
4733332;-0.40500
4736110;-0.40000
4738888;-0.39500
4741665;-0.39500
4744443;-0.40500
4747221;-0.39000
4749999;-0.38500
4752776;-0.38000
4755554;-0.40000
4758332;-0.39000
4761110;-0.41000
4763888;-0.40000
4766665;-0.39500
4769443;-0.38500
4772221;-0.39000
4774999;-0.39500
4777776;-0.41000
4780554;-0.39000
4783332;-0.38500
4786110;-0.37500
4788888;-0.38500
4791665;-0.39000
4794443;-0.39500
4797221;-0.39000
4799999;-0.37500
4802776;-0.38500
4805554;-0.39000
4808332;-0.40000
4811110;-0.40500
4813888;-0.38500
4816665;-0.39000
4819443;-0.38500
4822221;-0.38000
4824999;-0.38000
4827776;-0.40000
4830554;-0.38000
4833332;-0.37500
4836110;-0.35500
4838888;-0.37000
4841665;-0.37500
4844443;-0.38500
4847221;-0.38000
4849999;-0.38500
4852776;-0.38000
4855554;-0.38500
4858332;-0.39000
4861110;-0.40500
4863888;-0.39500
4866665;-0.38500
4869443;-0.40000
4872221;-0.39500
4874999;-0.41000
4877776;-0.40500
4880554;-0.40000
4883332;-0.39500
4886110;-0.39500
4888888;-0.40000
4891665;-0.40000
4894443;-0.40000
4897221;-0.40000
4899999;-0.39000
4902776;-0.37500
4905554;-0.38500
4908332;-0.39000
4911110;-0.38500
4913888;-0.36500
4916665;-0.36500
4919443;-0.36000
4922221;-0.36000
4924999;-0.36500
4927776;-0.35500
4930554;-0.34000
4933332;-0.32500
4936110;-0.31000
4938888;-0.30500
4941665;-0.31500
4944443;-0.31500
4947221;-0.30000
4949999;-0.28500
4952776;-0.27500
4955554;-0.28000
4958332;-0.29000
4961110;-0.29000
4963887;-0.29000
4966665;-0.26500
4969443;-0.26000
4972221;-0.25500
4974999;-0.27000
4977776;-0.28000
4980554;-0.27000
4983332;-0.26000
4986110;-0.25500
4988887;-0.24500
4991665;-0.26000
4994443;-0.27000
4997221;-0.26000
4999999;-0.25500
5002776;-0.25500
5005554;-0.28000
5008332;-0.27500
5011110;-0.29000
5013887;-0.27500
5016665;-0.26000
5019443;-0.27000
5022221;-0.27500
5024999;-0.28000
5027776;-0.28500
5030554;-0.28000
5033332;-0.27500
5036110;-0.27000
5038887;-0.27000
5041665;-0.29500
5044443;-0.29500
5047221;-0.28500
5049999;-0.27500
5052776;-0.28000
5055554;-0.28000
5058332;-0.29000
5061110;-0.30000
5063887;-0.28500
5066665;-0.27500
5069443;-0.28500
5072221;-0.29500
5074999;-0.31500
5077776;-0.32000
5080554;-0.32000
5083332;-0.30500
5086110;-0.29000
5088887;-0.31000
5091665;-0.31000
5094443;-0.32000
5097221;-0.31500
5099999;-0.32000
5102776;-0.31500
5105554;-0.31500
5108332;-0.32500
5111110;-0.33000
5113887;-0.31500
5116665;-0.30000
5119443;-0.30500
5122221;-0.31500
5124999;-0.32500
5127776;-0.33500
5130554;-0.31500
5133332;-0.30000
5136110;-0.30000
5138887;-0.31500
5141665;-0.33000
5144443;-0.32500
5147221;-0.31000
5149999;-0.30000
5152776;-0.31000
5155554;-0.31000
5158332;-0.31500
5161110;-0.32000
5163887;-0.32000
5166665;-0.30500
5169443;-0.31500
5172221;-0.31500
5174999;-0.33000
5177776;-0.34000
5180554;-0.32000
5183332;-0.31000
5186110;-0.30500
5188887;-0.31500
5191665;-0.33000
5194443;-0.32500
5197221;-0.31500
5199999;-0.31000
5202776;-0.31500
5205554;-0.31000
5208332;-0.32000
5211110;-0.31500
5213887;-0.30000
5216665;-0.30000
5219443;-0.29000
5222221;-0.28500
5224999;-0.29500
5227776;-0.30000
5230554;-0.28000
5233332;-0.27000
5236110;-0.26500
5238887;-0.26500
5241665;-0.27000
5244443;-0.26000
5247221;-0.24000
5249999;-0.22500
5252776;-0.22000
5255554;-0.23000
5258332;-0.23500
5261110;-0.24500
5263887;-0.23500
5266665;-0.22000
5269443;-0.21500
5272221;-0.21000
5274999;-0.21500
5277776;-0.20500
5280554;-0.19000
5283332;-0.18000
5286110;-0.18000
5288887;-0.19500
5291665;-0.21000
5294443;-0.21500
5297221;-0.21500
5299999;-0.21000
5302776;-0.21500
5305554;-0.21500
5308332;-0.22500
5311110;-0.21500
5313887;-0.22000
5316665;-0.19000
5319443;-0.17000
5322221;-0.16000
5324999;-0.18500
5327776;-0.21500
5330554;-0.24000
5333332;-0.24000
5336110;-0.25000
5338887;-0.27500
5341665;-0.29500
5344443;-0.31500
5347221;-0.31000
5349999;-0.32000
5352776;-0.32000
5355554;-0.31000
5358332;-0.31000
5361110;-0.32500
5363887;-0.31500
5366665;-0.30500
5369443;-0.31500
5372221;-0.32500
5374998;-0.32500
5377776;-0.33500
5380554;-0.32000
5383332;-0.30000
5386110;-0.31500
5388887;-0.30500
5391665;-0.32000
5394443;-0.33500
5397221;-0.33500
5399998;-0.32000
5402776;-0.31500
5405554;-0.31500
5408332;-0.33500
5411110;-0.34500
5413887;-0.37000
5416665;-0.39500
5419443;-0.43000
5422221;-0.45500
5424998;-0.48000
5427776;-0.52000
5430554;-0.54500
5433332;-0.56000
5436110;-0.54000
5438887;-0.49500
5441665;-0.42500
5444443;-0.33500
5447221;-0.22000
5449998;-0.11500
5452776;-0.00500
5455554;0.11000
5458332;0.28500
5461110;0.52000
5463887;0.81500
5466665;1.01000
5469443;1.11500
5472221;1.03000
5474998;0.72500
5477776;0.25000
5480554;-0.16500
5483332;-0.38500
5486110;-0.40500
5488887;-0.36500
5491665;-0.32000
5494443;-0.32000
5497221;-0.31000
5499998;-0.31500
5502776;-0.32500
5505554;-0.32500
5508332;-0.32500
5511110;-0.33500
5513887;-0.33500
5516665;-0.33500
5519443;-0.33000
5522221;-0.33500
5524998;-0.34500
5527776;-0.34500
5530554;-0.33500
5533332;-0.33000
5536110;-0.33500
5538887;-0.33000
5541665;-0.33500
5544443;-0.35500
5547221;-0.33500
5549998;-0.32000
5552776;-0.33000
5555554;-0.31000
5558332;-0.32000
5561110;-0.33000
5563887;-0.32500
5566665;-0.31500
5569443;-0.31000
5572221;-0.32000
5574998;-0.34000
5577776;-0.35000
5580554;-0.34500
5583332;-0.34000
5586110;-0.34000
5588887;-0.34000
5591665;-0.35500
5594443;-0.34500
5597221;-0.34500
5599998;-0.34000
5602776;-0.34000
5605554;-0.33500
5608332;-0.34000
5611110;-0.34000
5613887;-0.33000
5616665;-0.32000
5619443;-0.32000
5622221;-0.31500
5624998;-0.32000
5627776;-0.31500
5630554;-0.32000
5633332;-0.31000
5636110;-0.32500
5638887;-0.31500
5641665;-0.33000
5644443;-0.33500
5647221;-0.32500
5649998;-0.32000
5652776;-0.31500
5655554;-0.31500
5658332;-0.32500
5661110;-0.33000
5663887;-0.32500
5666665;-0.32500
5669443;-0.32500
5672221;-0.32500
5674998;-0.33500
5677776;-0.34000
5680554;-0.33000
5683332;-0.32500
5686110;-0.32500
5688887;-0.32500
5691665;-0.33500
5694443;-0.35000
5697221;-0.33500
5699998;-0.33500
5702776;-0.34500
5705554;-0.35000
5708332;-0.36000
5711110;-0.36000
5713887;-0.34500
5716665;-0.34500
5719443;-0.35000
5722221;-0.36000
5724998;-0.35000
5727776;-0.35000
5730554;-0.33500
5733332;-0.33000
5736110;-0.32000
5738887;-0.32000
5741665;-0.33500
5744443;-0.34500
5747221;-0.33500
5749998;-0.32500
5752776;-0.31500
5755554;-0.29500
5758332;-0.29000
5761109;-0.29000
5763887;-0.27500
5766665;-0.25500
5769443;-0.26000
5772221;-0.25000
5774998;-0.26000
5777776;-0.26000
5780554;-0.25000
5783332;-0.23500
5786109;-0.24000
5788887;-0.24000
5791665;-0.25500
5794443;-0.24500
5797221;-0.24000
5799998;-0.23000
5802776;-0.24500
5805554;-0.24000
5808332;-0.24000
5811109;-0.25000
5813887;-0.24000
5816665;-0.23500
5819443;-0.23000
5822221;-0.23000
5824998;-0.23500
5827776;-0.25000
5830554;-0.25000
5833332;-0.24000
5836109;-0.26000
5838887;-0.24500
5841665;-0.26000
5844443;-0.26500
5847221;-0.25000
5849998;-0.24000
5852776;-0.24500
5855554;-0.24500
5858332;-0.26500
5861109;-0.26500
5863887;-0.25500
5866665;-0.24500
5869443;-0.25500
5872221;-0.26000
5874998;-0.27000
5877776;-0.27000
5880554;-0.25500
5883332;-0.25000
5886109;-0.24500
5888887;-0.27500
5891665;-0.29000
5894443;-0.29500
5897221;-0.30500
5899998;-0.28500
5902776;-0.28500
5905554;-0.30000
5908332;-0.29500
5911109;-0.30500
5913887;-0.30500
5916665;-0.29000
5919443;-0.29000
5922221;-0.29000
5924998;-0.30500
5927776;-0.30000
5930554;-0.29000
5933332;-0.28000
5936109;-0.28000
5938887;-0.29000
5941665;-0.29500
5944443;-0.29500
5947221;-0.29500
5949998;-0.28000
5952776;-0.29500
5955554;-0.30500
5958332;-0.31500
5961109;-0.32500
5963887;-0.32000
5966665;-0.30500
5969443;-0.30000
5972221;-0.30500
5974998;-0.32000
5977776;-0.33000
5980554;-0.32000
5983332;-0.31500
5986109;-0.30500
5988887;-0.30500
5991665;-0.30500
5994443;-0.31000
5997221;-0.30000
5999998;-0.29000
6002776;-0.29500
6005554;-0.30000
6008332;-0.31000
6011109;-0.30000
6013887;-0.29000
6016665;-0.28000
6019443;-0.28000
6022221;-0.27500
6024998;-0.28500
6027776;-0.28000
6030554;-0.26000
6033332;-0.25000
6036109;-0.23500
6038887;-0.23500
6041665;-0.25500
6044443;-0.26500
6047221;-0.25500
6049998;-0.24500
6052776;-0.22500
6055554;-0.22500
6058332;-0.21500
6061109;-0.20000
6063887;-0.19000
6066665;-0.18500
6069443;-0.19500
6072221;-0.21000
6074998;-0.21000
6077776;-0.23000
6080554;-0.22500
6083332;-0.21500
6086109;-0.22000
6088887;-0.23500
6091665;-0.23000
6094443;-0.23000
6097221;-0.20000
6099998;-0.19500
6102776;-0.19500
6105554;-0.23000
6108332;-0.27000
6111109;-0.28500
6113887;-0.30000
6116665;-0.31500
6119443;-0.32000
6122221;-0.32500
6124998;-0.34000
6127776;-0.35500
6130554;-0.33500
6133332;-0.33500
6136109;-0.32500
6138887;-0.32500
6141665;-0.33500
6144443;-0.35500
6147221;-0.33000
6149998;-0.33000
6152776;-0.31500
6155554;-0.33000
6158332;-0.32000
6161109;-0.32000
6163887;-0.32500
6166665;-0.31500
6169443;-0.33000
6172220;-0.33000
6174998;-0.33500
6177776;-0.34500
6180554;-0.34000
6183332;-0.33500
6186109;-0.33500
6188887;-0.33000
6191665;-0.35000
6194443;-0.36000
6197220;-0.35000
6199998;-0.36500
6202776;-0.40000
6205554;-0.44000
6208332;-0.47000
6211109;-0.50500
6213887;-0.52000
6216665;-0.56000
6219443;-0.53000
6222220;-0.43000
6224998;-0.29000
6227776;-0.14500
6230554;0.04500
6233332;0.30500
6236109;0.61000
6238887;0.85000
6241665;0.98500
6244443;0.95000
6247220;0.75000
6249998;0.37500
6252776;-0.03000
6255554;-0.34000
6258332;-0.45500
6261109;-0.46500
6263887;-0.41500
6266665;-0.37500
6269443;-0.37000
6272220;-0.37500
6274998;-0.38500
6277776;-0.38500
6280554;-0.35000
6283332;-0.35500
6286109;-0.35000
6288887;-0.37000
6291665;-0.38500
6294443;-0.39000
6297220;-0.39000
6299998;-0.36500
6302776;-0.36500
6305554;-0.37500
6308332;-0.39500
6311109;-0.40000
6313887;-0.38500
6316665;-0.37000
6319443;-0.37000
6322220;-0.36500
6324998;-0.39000
6327776;-0.39000
6330554;-0.38500
6333332;-0.36500
6336109;-0.35000
6338887;-0.35000
6341665;-0.36000
6344443;-0.37500
6347220;-0.36000
6349998;-0.34000
6352776;-0.34000
6355554;-0.36000
6358332;-0.37500
6361109;-0.39500
6363887;-0.38500
6366665;-0.38500
6369443;-0.39000
6372220;-0.38000
6374998;-0.37500
6377776;-0.38500
6380554;-0.38000
6383332;-0.40500
6386109;-0.39500
6388887;-0.40500
6391665;-0.40000
6394443;-0.39500
6397220;-0.38500
6399998;-0.37000
6402776;-0.38000
6405554;-0.38000
6408332;-0.39000
6411109;-0.39500
6413887;-0.38500
6416665;-0.38000
6419443;-0.38500
6422220;-0.39000
6424998;-0.38000
6427776;-0.38000
6430554;-0.36000
6433332;-0.36000
6436109;-0.35500
6438887;-0.38500
6441665;-0.38500
6444443;-0.41500
6447220;-0.39500
6449998;-0.39500
6452776;-0.38500
6455554;-0.39500
6458332;-0.40000
6461109;-0.40500
6463887;-0.39500
6466665;-0.40000
6469443;-0.39000
6472220;-0.40000
6474998;-0.40500
6477776;-0.41500
6480554;-0.41500
6483332;-0.40000
6486109;-0.40500
6488887;-0.42000
6491665;-0.45000
6494443;-0.46500
6497220;-0.44500
6499998;-0.43000
6502776;-0.43500
6505554;-0.44500
6508332;-0.45500
6511109;-0.43500
6513887;-0.41500
6516665;-0.41500
6519443;-0.42000
6522220;-0.42500
6524998;-0.41500
6527776;-0.40000
6530554;-0.39500
6533332;-0.37000
6536109;-0.36000
6538887;-0.34500
6541665;-0.34500
6544443;-0.34000
6547220;-0.34500
6549998;-0.33000
6552776;-0.29500
6555554;-0.28000
6558331;-0.29000
6561109;-0.28000
6563887;-0.28500
6566665;-0.28000
6569443;-0.27500
6572220;-0.27000
6574998;-0.28500
6577776;-0.28500
6580554;-0.28000
6583331;-0.26500
6586109;-0.27500
6588887;-0.27500
6591665;-0.27000
6594443;-0.28000
6597220;-0.29000
6599998;-0.28000
6602776;-0.27500
6605554;-0.27500
6608331;-0.28500
6611109;-0.30500
6613887;-0.30500
6616665;-0.28500
6619443;-0.27000
6622220;-0.28500
6624998;-0.29000
6627776;-0.29500
6630554;-0.28500
6633331;-0.28500
6636109;-0.28000
6638887;-0.29500
6641665;-0.29000
6644443;-0.30500
6647220;-0.30500
6649998;-0.28500
6652776;-0.28000
6655554;-0.28000
6658331;-0.29500
6661109;-0.31500
6663887;-0.32000
6666665;-0.32000
6669443;-0.31000
6672220;-0.33000
6674998;-0.32500
6677776;-0.33500
6680554;-0.33500
6683331;-0.34000
6686109;-0.34000
6688887;-0.34500
6691665;-0.32000
6694443;-0.33000
6697220;-0.33500
6699998;-0.32000
6702776;-0.31000
6705554;-0.32000
6708331;-0.33500
6711109;-0.34000
6713887;-0.33000
6716665;-0.32000
6719443;-0.31000
6722220;-0.31000
6724998;-0.32000
6727776;-0.33500
6730554;-0.32500
6733331;-0.30500
6736109;-0.32000
6738887;-0.33000
6741665;-0.32500
6744443;-0.34000
6747220;-0.32500
6749998;-0.30500
6752776;-0.31000
6755554;-0.32000
6758331;-0.32500
6761109;-0.33000
6763887;-0.32500
6766665;-0.30500
6769443;-0.31500
6772220;-0.30500
6774998;-0.31000
6777776;-0.32500
6780554;-0.31500
6783331;-0.31000
6786109;-0.30500
6788887;-0.31500
6791665;-0.32000
6794443;-0.32500
6797220;-0.30500
6799998;-0.29000
6802776;-0.29000
6805554;-0.29500
6808331;-0.31000
6811109;-0.30500
6813887;-0.28500
6816665;-0.26500
6819443;-0.24500
6822220;-0.25000
6824998;-0.24500
6827776;-0.27500
6830554;-0.25500
6833331;-0.23500
6836109;-0.22000
6838887;-0.21000
6841665;-0.21000
6844443;-0.21000
6847220;-0.20500
6849998;-0.20500
6852776;-0.20000
6855554;-0.20000
6858331;-0.19500
6861109;-0.21500
6863887;-0.22000
6866665;-0.21500
6869443;-0.21000
6872220;-0.21000
6874998;-0.22000
6877776;-0.24000
6880554;-0.24000
6883331;-0.23000
6886109;-0.19500
6888887;-0.19500
6891665;-0.21500
6894443;-0.25000
6897220;-0.26500
6899998;-0.27500
6902776;-0.29500
6905554;-0.31500
6908331;-0.32000
6911109;-0.34000
6913887;-0.34000
6916665;-0.34000
6919443;-0.33500
6922220;-0.34000
6924998;-0.34000
6927776;-0.34500
6930554;-0.34000
6933331;-0.34000
6936109;-0.34500
6938887;-0.34500
6941665;-0.34500
6944442;-0.35500
6947220;-0.35500
6949998;-0.34000
6952776;-0.33000
6955554;-0.33500
6958331;-0.33500
6961109;-0.36000
6963887;-0.33500
6966665;-0.33500
6969442;-0.33000
6972220;-0.34000
6974998;-0.36000
6977776;-0.40000
6980554;-0.45000
6983331;-0.47000
6986109;-0.47000
6988887;-0.50500
6991665;-0.56500
6994442;-0.60500
6997220;-0.57500
6999998;-0.51000
7002776;-0.44000
7005554;-0.33500
7008331;-0.24500
7011109;-0.14000
7013887;0.00500
7016665;0.17500
7019442;0.42500
7022220;0.70500
7024998;0.91500
7027776;1.04500
7030554;1.06500
7033331;0.91500
7036109;0.54000
7038887;0.07500
7041665;-0.30000
7044442;-0.45000
7047220;-0.45000
7049998;-0.41000
7052776;-0.37500
7055554;-0.35000
7058331;-0.36000
7061109;-0.38000
7063887;-0.35500
7066665;-0.35000
7069442;-0.35000
7072220;-0.35500
7074998;-0.36500
7077776;-0.37000
7080554;-0.35500
7083331;-0.34500
7086109;-0.34000
7088887;-0.34000
7091665;-0.35000
7094442;-0.36000
7097220;-0.36000
7099998;-0.35500
7102776;-0.34500
7105554;-0.36000
7108331;-0.35000
7111109;-0.37000
7113887;-0.36500
7116665;-0.35000
7119442;-0.34000
7122220;-0.34000
7124998;-0.36500
7127776;-0.37000
7130554;-0.37000
7133331;-0.36000
7136109;-0.35500
7138887;-0.35500
7141665;-0.36500
7144442;-0.37500
7147220;-0.36000
7149998;-0.35000
7152776;-0.35000
7155554;-0.35000
7158331;-0.35000
7161109;-0.35500
7163887;-0.34000
7166665;-0.34500
7169442;-0.34500
7172220;-0.34500
7174998;-0.34500
7177776;-0.36000
7180554;-0.36000
7183331;-0.35000
7186109;-0.35000
7188887;-0.35500
7191665;-0.36500
7194442;-0.37000
7197220;-0.36500
7199998;-0.35000
7202776;-0.35500
7205554;-0.35500
7208331;-0.35500
7211109;-0.37000
7213887;-0.36000
7216665;-0.35500
7219442;-0.35000
7222220;-0.35000
7224998;-0.36000
7227776;-0.37500
7230554;-0.36500
7233331;-0.36000
7236109;-0.34000
7238887;-0.36000
7241665;-0.35500
7244442;-0.38000
7247220;-0.36500
7249998;-0.36000
7252776;-0.36500
7255554;-0.38000
7258331;-0.39500
7261109;-0.40000
7263887;-0.40000
7266665;-0.40000
7269442;-0.39500
7272220;-0.39500
7274998;-0.40500
7277776;-0.41000
7280554;-0.40000
7283331;-0.39500
7286109;-0.39500
7288887;-0.40000
7291665;-0.40500
7294442;-0.42500
7297220;-0.40500
7299998;-0.38500
7302776;-0.38000
7305554;-0.36500
7308331;-0.36500
7311109;-0.36000
7313887;-0.33500
7316665;-0.31500
7319442;-0.30500
7322220;-0.28000
7324998;-0.28000
7327776;-0.28000
7330554;-0.27000
7333331;-0.24500
7336109;-0.24000
7338887;-0.25000
7341665;-0.24500
7344442;-0.26000
7347220;-0.24500
7349998;-0.24500
7352776;-0.24000
7355553;-0.24000
7358331;-0.24500
7361109;-0.25000
7363887;-0.24000
7366665;-0.24500
7369442;-0.23500
7372220;-0.23500
7374998;-0.24000
7377776;-0.26000
7380553;-0.25000
7383331;-0.23500
7386109;-0.23000
7388887;-0.23000
7391665;-0.23000
7394442;-0.24500
7397220;-0.24000
7399998;-0.23500
7402776;-0.24500
7405553;-0.24000
7408331;-0.26500
7411109;-0.27000
7413887;-0.25500
7416665;-0.24500
7419442;-0.25000
7422220;-0.25500
7424998;-0.26500
7427776;-0.27500
7430553;-0.27500
7433331;-0.26000
7436109;-0.25500
7438887;-0.26000
7441665;-0.26500
7444442;-0.28000
7447220;-0.27500
7449998;-0.26500
7452776;-0.27000
7455553;-0.27000
7458331;-0.26000
7461109;-0.28500
7463887;-0.27000
7466665;-0.27000
7469442;-0.26500
7472220;-0.27500
7474998;-0.27500
7477776;-0.28500
7480553;-0.27500
7483331;-0.27500
7486109;-0.26500
7488887;-0.27500
7491665;-0.29000
7494442;-0.28000
7497220;-0.28000
7499998;-0.26500
7502776;-0.27500
7505553;-0.27500
7508331;-0.28000
7511109;-0.27000
7513887;-0.28000
7516665;-0.26500
7519442;-0.26500
7522220;-0.26500
7524998;-0.26500
7527776;-0.27000
7530553;-0.25500
7533331;-0.26000
7536109;-0.25000
7538887;-0.26000
7541665;-0.28000
7544442;-0.27000
7547220;-0.27000
7549998;-0.27000
7552776;-0.26500
7555553;-0.27500
7558331;-0.26500
7561109;-0.28000
7563887;-0.27500
7566665;-0.27500
7569442;-0.26500
7572220;-0.27000
7574998;-0.27500
7577776;-0.28000
7580553;-0.26500
7583331;-0.26000
7586109;-0.25500
7588887;-0.26000
7591665;-0.26500
7594442;-0.26500
7597220;-0.25000
7599998;-0.23500
7602776;-0.21000
7605553;-0.20500
7608331;-0.20000
7611109;-0.20000
7613887;-0.18500
7616665;-0.18000
7619442;-0.16500
7622220;-0.17000
7624998;-0.17000
7627776;-0.17500
7630553;-0.16500
7633331;-0.15500
7636109;-0.15000
7638887;-0.15500
7641665;-0.16500
7644442;-0.18000
7647220;-0.18000
7649998;-0.17500
7652776;-0.17000
7655553;-0.16000
7658331;-0.17500
7661109;-0.19000
7663887;-0.19000
7666665;-0.17500
7669442;-0.14000
7672220;-0.14000
7674998;-0.16000
7677776;-0.20000
7680553;-0.22000
7683331;-0.20500
7686109;-0.20000
7688887;-0.21500
7691665;-0.23500
7694442;-0.25500
7697220;-0.27000
7699998;-0.25500
7702776;-0.27000
7705553;-0.28000
7708331;-0.27500
7711109;-0.29000
7713887;-0.29000
7716665;-0.28000
7719442;-0.28500
7722220;-0.29500
7724998;-0.30500
7727776;-0.30000
7730553;-0.30500
7733331;-0.30000
7736109;-0.29500
7738887;-0.31000
7741664;-0.31000
7744442;-0.31000
7747220;-0.31000
7749998;-0.30500
7752776;-0.29500
7755553;-0.30000
7758331;-0.30500
7761109;-0.31000
7763887;-0.31500
7766664;-0.33000
7769442;-0.36500
7772220;-0.39500
7774998;-0.42000
7777776;-0.45000
7780553;-0.48000
7783331;-0.49500
7786109;-0.45500
7788887;-0.35500
7791664;-0.19000
7794442;-0.01500
7797220;0.20500
7799998;0.45500
7802776;0.75500
7805553;1.01500
7808331;1.16500
7811109;1.20500
7813887;1.09500
7816664;0.77500
7819442;0.31000
7822220;-0.14000
7824998;-0.39500
7827776;-0.44500
7830553;-0.39000
7833331;-0.33000
7836109;-0.29000
7838887;-0.28000
7841664;-0.30000
7844442;-0.31000
7847220;-0.31000
7849998;-0.31000
7852776;-0.32000
7855553;-0.31000
7858331;-0.32000
7861109;-0.33000
7863887;-0.32500
7866664;-0.31500
7869442;-0.33000
7872220;-0.33000
7874998;-0.34000
7877776;-0.34500
7880553;-0.34000
7883331;-0.33500
7886109;-0.34000
7888887;-0.33500
7891664;-0.35000
7894442;-0.36000
7897220;-0.35500
7899998;-0.34000
7902776;-0.34000
7905553;-0.32500
7908331;-0.33000
7911109;-0.35000
7913887;-0.35500
7916664;-0.32500
7919442;-0.33000
7922220;-0.33500
7924998;-0.35500
7927776;-0.37000
7930553;-0.34500
7933331;-0.34000
7936109;-0.33500
7938887;-0.33500
7941664;-0.35000
7944442;-0.34500
7947220;-0.35000
7949998;-0.34500
7952776;-0.33500
7955553;-0.32000
7958331;-0.34000
7961109;-0.36500
7963887;-0.33500
7966664;-0.34500
7969442;-0.33500
7972220;-0.33000
7974998;-0.34500
7977776;-0.35500
7980553;-0.35000
7983331;-0.34000
7986109;-0.34000
7988887;-0.33500
7991664;-0.34000
7994442;-0.35000
7997220;-0.34000
7999998;-0.33500
8002776;-0.34000
8005553;-0.34000
8008331;-0.33500
8011109;-0.35500
8013887;-0.34000
8016664;-0.33000
8019442;-0.32500
8022220;-0.32000
8024998;-0.33500
8027776;-0.34000
8030553;-0.34000
8033331;-0.33500
8036109;-0.33500
8038887;-0.33000
8041664;-0.33500
8044442;-0.35000
8047220;-0.34500
8049998;-0.34000
8052776;-0.34000
8055553;-0.34500
8058331;-0.35000
8061109;-0.35000
8063887;-0.34500
8066664;-0.33500
8069442;-0.33500
8072220;-0.33500
8074998;-0.34000
8077776;-0.36000
8080553;-0.34000
8083331;-0.33000
8086109;-0.31000
8088887;-0.31000
8091664;-0.31500
8094442;-0.30000
8097220;-0.29000
8099998;-0.26500
8102776;-0.25500
8105553;-0.24000
8108331;-0.25000
8111109;-0.25000
8113887;-0.23500
8116664;-0.22500
8119442;-0.21500
8122220;-0.24000
8124998;-0.23500
8127776;-0.25000
8130553;-0.23500
8133331;-0.22000
8136109;-0.21000
8138887;-0.21500
8141664;-0.21500
8144442;-0.23000
8147220;-0.22500
8149998;-0.21000
8152775;-0.21500
8155553;-0.21000
8158331;-0.22000
8161109;-0.21000
8163887;-0.22000
8166664;-0.20500
8169442;-0.19500
8172220;-0.21000
8174998;-0.21500
8177775;-0.22500
8180553;-0.22500
8183331;-0.22000
8186109;-0.21500
8188887;-0.22500
8191664;-0.23000
8194442;-0.24500
8197220;-0.24500
8199998;-0.23000
8202775;-0.23500
8205553;-0.23500
8208331;-0.25000
8211109;-0.26000
8213887;-0.24500
8216664;-0.24000
8219442;-0.24000
8222220;-0.24500
8224998;-0.24500
8227775;-0.27000
8230553;-0.26000
8233331;-0.25500
8236109;-0.25000
8238887;-0.25000
8241664;-0.26000
8244442;-0.26500
8247220;-0.26500
8249998;-0.26000
8252775;-0.24000
8255553;-0.26000
8258331;-0.27500
8261109;-0.29000
8263887;-0.28000
8266664;-0.27000
8269442;-0.27000
8272220;-0.27000
8274998;-0.28500
8277775;-0.29500
8280553;-0.28000
8283331;-0.29000
8286109;-0.28500
8288887;-0.27500
8291664;-0.28500
8294442;-0.29000
8297220;-0.29000
8299998;-0.29000
8302775;-0.29500
8305553;-0.29000
8308331;-0.28500
8311109;-0.28500
8313887;-0.27000
8316664;-0.26500
8319442;-0.27000
8322220;-0.27500
8324998;-0.28000
8327775;-0.29000
8330553;-0.27000
8333331;-0.27000
8336109;-0.26500
8338887;-0.27500
8341664;-0.28000
8344442;-0.29000
8347220;-0.28000
8349998;-0.28500
8352775;-0.27500
8355553;-0.28500
8358331;-0.28000
8361109;-0.29500
8363887;-0.28000
8366664;-0.26500
8369442;-0.26500
8372220;-0.26500
8374998;-0.27000
8377775;-0.29000
8380553;-0.28000
8383331;-0.26500
8386109;-0.26000
8388887;-0.27500
8391664;-0.26500
8394442;-0.28500
8397220;-0.26500
8399998;-0.24000
8402775;-0.22500
8405553;-0.20500
8408331;-0.20500
8411109;-0.20500
8413887;-0.21000
8416664;-0.20000
8419442;-0.18500
8422220;-0.17500
8424998;-0.17500
8427775;-0.18000
8430553;-0.16500
8433331;-0.15000
8436109;-0.15000
8438887;-0.15500
8441664;-0.16500
8444442;-0.19000
8447220;-0.18000
8449998;-0.18000
8452775;-0.18000
8455553;-0.18000
8458331;-0.19000
8461109;-0.19000
8463887;-0.18000
8466664;-0.17000
8469442;-0.15000
8472220;-0.13000
8474998;-0.14500
8477775;-0.17500
8480553;-0.20000
8483331;-0.21500
8486109;-0.21500
8488887;-0.24000
8491664;-0.26500
8494442;-0.28500
8497220;-0.28500
8499998;-0.28500
8502775;-0.28500
8505553;-0.29000
8508331;-0.29500
8511109;-0.29500
8513887;-0.30000
8516664;-0.28500
8519442;-0.28000
8522220;-0.29000
8524998;-0.30500
8527775;-0.31500
8530553;-0.31000
8533331;-0.30000
8536109;-0.29500
8538886;-0.29000
8541664;-0.30000
8544442;-0.31500
8547220;-0.30500
8549998;-0.29500
8552775;-0.29000
8555553;-0.29500
8558331;-0.29000
8561109;-0.30000
8563886;-0.30000
8566664;-0.30000
8569442;-0.32500
8572220;-0.36500
8574998;-0.42000
8577775;-0.45500
8580553;-0.48000
8583331;-0.49000
8586109;-0.49500
8588886;-0.45500
8591664;-0.33500
8594442;-0.16500
8597220;0.02500
8599998;0.22500
8602775;0.49500
8605553;0.79500
8608331;1.02000
8611109;1.14000
8613886;1.14500
8616664;0.97000
8619442;0.61000
8622220;0.15000
8624998;-0.20000
8627775;-0.39000
8630553;-0.40500
8633331;-0.35500
8636109;-0.29500
8638886;-0.28000
8641664;-0.30500
8644442;-0.31000
8647220;-0.31500
8649998;-0.30500
8652775;-0.31000
8655553;-0.30500
8658331;-0.32000
8661109;-0.33500
8663886;-0.32000
8666664;-0.33000
8669442;-0.32000
8672220;-0.32500
8674998;-0.33000
8677775;-0.33500
8680553;-0.33000
8683331;-0.33000
8686109;-0.31500
8688886;-0.33000
8691664;-0.34000
8694442;-0.35000
8697220;-0.34000
8699998;-0.33500
8702775;-0.33500
8705553;-0.33000
8708331;-0.34000
8711109;-0.35000
8713886;-0.34000
8716664;-0.33000
8719442;-0.33500
8722220;-0.33000
8724998;-0.33000
8727775;-0.34000
8730553;-0.33500
8733331;-0.32500
8736109;-0.32000
8738886;-0.32500
8741664;-0.33500
8744442;-0.34000
8747220;-0.34000
8749998;-0.32500
8752775;-0.33500
8755553;-0.34000
8758331;-0.34500
8761109;-0.35500
8763886;-0.34500
8766664;-0.34000
8769442;-0.32500
8772220;-0.32500
8774998;-0.34500
8777775;-0.35500
8780553;-0.34500
8783331;-0.34000
8786109;-0.33000
8788886;-0.34500
8791664;-0.34500
8794442;-0.35000
8797220;-0.34000
8799998;-0.33000
8802775;-0.32000
8805553;-0.32000
8808331;-0.33500
8811109;-0.34500
8813886;-0.34000
8816664;-0.32500
8819442;-0.32500
8822220;-0.33000
8824998;-0.33500
8827775;-0.34500
8830553;-0.34500
8833331;-0.34000
8836109;-0.34000
8838886;-0.34500
8841664;-0.34500
8844442;-0.35000
8847220;-0.34500
8849998;-0.34000
8852775;-0.34500
8855553;-0.34000
8858331;-0.34500
8861109;-0.37000
8863886;-0.35500
8866664;-0.35500
8869442;-0.35000
8872220;-0.35000
8874998;-0.37000
8877775;-0.37500
8880553;-0.37000
8883331;-0.35500
8886109;-0.34000
8888886;-0.34500
8891664;-0.35500
8894442;-0.36000
8897220;-0.34000
8899998;-0.33000
8902775;-0.32000
8905553;-0.32000
8908331;-0.32000
8911109;-0.31000
8913886;-0.30500
8916664;-0.29000
8919442;-0.29000
8922220;-0.28000
8924998;-0.27000
8927775;-0.27500
8930553;-0.27000
8933331;-0.25500
8936109;-0.25000
8938886;-0.24500
8941664;-0.25000
8944442;-0.25000
8947220;-0.25000
8949997;-0.24000
8952775;-0.23500
8955553;-0.22500
8958331;-0.23500
8961109;-0.25000
8963886;-0.23000
8966664;-0.23500
8969442;-0.21500
8972220;-0.23500
8974997;-0.23000
8977775;-0.25000
8980553;-0.23500
8983331;-0.22500
8986109;-0.22500
8988886;-0.22500
8991664;-0.24000
8994442;-0.25500
8997220;-0.24000
8999997;-0.23000
9002775;-0.23000
9005553;-0.23500
9008331;-0.25000
9011109;-0.25500
9013886;-0.25500
9016664;-0.24500
9019442;-0.24500
9022220;-0.24000
9024997;-0.26000
9027775;-0.27500
9030553;-0.27000
9033331;-0.26000
9036109;-0.26000
9038886;-0.25500
9041664;-0.27000
9044442;-0.28000
9047220;-0.27500
9049997;-0.26000
9052775;-0.26500
9055553;-0.26500
9058331;-0.27000
9061109;-0.28500
9063886;-0.28000
9066664;-0.28500
9069442;-0.28500
9072220;-0.28500
9074997;-0.29500
9077775;-0.30500
9080553;-0.29500
9083331;-0.29500
9086109;-0.29000
9088886;-0.30000
9091664;-0.30000
9094442;-0.32000
9097220;-0.32000
9099997;-0.32000
9102775;-0.31500
9105553;-0.31000
9108331;-0.31000
9111109;-0.31500
9113886;-0.31000
9116664;-0.29500
9119442;-0.29000
9122220;-0.30500
9124997;-0.30500
9127775;-0.31500
9130553;-0.31000
9133331;-0.30500
9136109;-0.30000
9138886;-0.30500
9141664;-0.30500
9144442;-0.32000
9147220;-0.31000
9149997;-0.31000
9152775;-0.30000
9155553;-0.31500
9158331;-0.32000
9161109;-0.32500
9163886;-0.32000
9166664;-0.31000
9169442;-0.29500
9172220;-0.31500
9174997;-0.31500
9177775;-0.33000
9180553;-0.32000
9183331;-0.31500
9186109;-0.29000
9188886;-0.31000
9191664;-0.30500
9194442;-0.31500
9197220;-0.30000
9199997;-0.30000
9202775;-0.29000
9205553;-0.29000
9208331;-0.28500
9211109;-0.28500
9213886;-0.25500
9216664;-0.23000
9219442;-0.22000
9222220;-0.22500
9224997;-0.23000
9227775;-0.23500
9230553;-0.23500
9233331;-0.22000
9236109;-0.20000
9238886;-0.20500
9241664;-0.19500
9244442;-0.21500
9247220;-0.20500
9249997;-0.21000
9252775;-0.20500
9255553;-0.21000
9258331;-0.23500
9261109;-0.24500
9263886;-0.24000
9266664;-0.21500
9269442;-0.20000
9272220;-0.19500
9274997;-0.21500
9277775;-0.23500
9280553;-0.22500
9283331;-0.24000
9286109;-0.24500
9288886;-0.24000
9291664;-0.23500
9294442;-0.21000
9297220;-0.19500
9299997;-0.20000
9302775;-0.22000
9305553;-0.25500
9308331;-0.27500
9311109;-0.32500
9313886;-0.34000
9316664;-0.34000
9319442;-0.33500
9322220;-0.32500
9324997;-0.33000
9327775;-0.36500
9330553;-0.35500
9333331;-0.35000
9336108;-0.34000
9338886;-0.34500
9341664;-0.35500
9344442;-0.37000
9347220;-0.37500
9349997;-0.34500
9352775;-0.34000
9355553;-0.35500
9358331;-0.36500
9361108;-0.36000
9363886;-0.36000
9366664;-0.35500
9369442;-0.34000
9372220;-0.34000
9374997;-0.34500
9377775;-0.35500
9380553;-0.35000
9383331;-0.36500
9386108;-0.39500
9388886;-0.43500
9391664;-0.48000
9394442;-0.50500
9397220;-0.54000
9399997;-0.57000
9402775;-0.54000
9405553;-0.48500
9408331;-0.36000
9411108;-0.23000
9413886;-0.06000
9416664;0.16500
9419442;0.42500
9422220;0.67500
9424997;0.85500
9427775;0.96500
9430553;1.04000
9433331;1.06500
9436108;0.93000
9438886;0.62500
9441664;0.23500
9444442;-0.12000
9447220;-0.35000
9449997;-0.45500
9452775;-0.46500
9455553;-0.45500
9458331;-0.42500
9461108;-0.39000
9463886;-0.38000
9466664;-0.39000
9469442;-0.39500
9472220;-0.41000
9474997;-0.41000
9477775;-0.41500
9480553;-0.39500
9483331;-0.39000
9486108;-0.37000
9488886;-0.39000
9491664;-0.40500
9494442;-0.41000
9497220;-0.41000
9499997;-0.39000
9502775;-0.38000
9505553;-0.41000
9508331;-0.41000
9511108;-0.42000
9513886;-0.41000
9516664;-0.39500
9519442;-0.40000
9522220;-0.40000
9524997;-0.42000
9527775;-0.41500
9530553;-0.41000
9533331;-0.40500
9536108;-0.40000
9538886;-0.41000
9541664;-0.41500
9544442;-0.42500
9547220;-0.43000
9549997;-0.42000
9552775;-0.41000
9555553;-0.42000
9558331;-0.41500
9561108;-0.42000
9563886;-0.41500
9566664;-0.40500
9569442;-0.39500
9572220;-0.39500
9574997;-0.40000
9577775;-0.42000
9580553;-0.41000
9583331;-0.41000
9586108;-0.41500
9588886;-0.41500
9591664;-0.43000
9594442;-0.45000
9597220;-0.43500
9599997;-0.42500
9602775;-0.42500
9605553;-0.42000
9608331;-0.41000
9611108;-0.43000
9613886;-0.40500
9616664;-0.40000
9619442;-0.40500
9622220;-0.41000
9624997;-0.43000
9627775;-0.43000
9630553;-0.42500
9633331;-0.41000
9636108;-0.41500
9638886;-0.41500
9641664;-0.42000
9644442;-0.43500
9647220;-0.44500
9649997;-0.42500
9652775;-0.43000
9655553;-0.42500
9658331;-0.44500
9661108;-0.46000
9663886;-0.47000
9666664;-0.45500
9669442;-0.44500
9672220;-0.44500
9674997;-0.44500
9677775;-0.46500
9680553;-0.47500
9683331;-0.46000
9686108;-0.45500
9688886;-0.46000
9691664;-0.46500
9694442;-0.48000
9697220;-0.47000
9699997;-0.46000
9702775;-0.46000
9705553;-0.46500
9708331;-0.48000
9711108;-0.48500
9713886;-0.49000
9716664;-0.48000
9719442;-0.45500
9722220;-0.46000
9724997;-0.45500
9727775;-0.46500
9730553;-0.44500
9733331;-0.42000
9736108;-0.39500
9738886;-0.39500
9741664;-0.40000
9744442;-0.40000
9747219;-0.38500
9749997;-0.37000
9752775;-0.36000
9755553;-0.36500
9758331;-0.36000
9761108;-0.34500
9763886;-0.33500
9766664;-0.33000
9769442;-0.31500
9772219;-0.31500
9774997;-0.33000
9777775;-0.34500
9780553;-0.34500
9783331;-0.31500
9786108;-0.32000
9788886;-0.31500
9791664;-0.32500
9794442;-0.34000
9797219;-0.34000
9799997;-0.33000
9802775;-0.30500
9805553;-0.30500
9808331;-0.31000
9811108;-0.32500
9813886;-0.33000
9816664;-0.33000
9819442;-0.32500
9822219;-0.33500
9824997;-0.34000
9827775;-0.34500
9830553;-0.34000
9833331;-0.33000
9836108;-0.33000
9838886;-0.34000
9841664;-0.34000
9844442;-0.36000
9847219;-0.35000
9849997;-0.34500
9852775;-0.34500
9855553;-0.34500
9858331;-0.35500
9861108;-0.35500
9863886;-0.35500
9866664;-0.34000
9869442;-0.33500
9872219;-0.35500
9874997;-0.38500
9877775;-0.39500
9880553;-0.39000
9883331;-0.36500
9886108;-0.36000
9888886;-0.36000
9891664;-0.36500
9894442;-0.37500
9897219;-0.37000
9899997;-0.38000
9902775;-0.38000
9905553;-0.37000
9908331;-0.38500
9911108;-0.39500
9913886;-0.40000
9916664;-0.38500
9919442;-0.36500
9922219;-0.35500
9924997;-0.37500
9927775;-0.38500
9930553;-0.41000
9933331;-0.38000
9936108;-0.38500
9938886;-0.38500
9941664;-0.39000
9944442;-0.40000
9947219;-0.40000
9949997;-0.39000
9952775;-0.39000
9955553;-0.38500
9958331;-0.38500
9961108;-0.39500
9963886;-0.38500
9966664;-0.38000
9969442;-0.37500
9972219;-0.37000
9974997;-0.37000
9977775;-0.40000
9980553;-0.39000
9983331;-0.39000
9986108;-0.37500
9988886;-0.37500
9991664;-0.39000
9994442;-0.40500
9997219;-0.38500
9999997;-0.37000
10002775;-0.36500
10005553;-0.37000
10008331;-0.38500
10011108;-0.40500
10013886;-0.40000
10016664;-0.39500
10019442;-0.38500
10022219;-0.38500
10024997;-0.38500
10027775;-0.40000
10030553;-0.37500
10033331;-0.36500
10036108;-0.34000
10038886;-0.33500
10041664;-0.34500
10044442;-0.35000
10047219;-0.33500
10049997;-0.31500
10052775;-0.30000
10055553;-0.30000
10058331;-0.31500
10061108;-0.31000
10063886;-0.30000
10066664;-0.28500
10069442;-0.27500
10072219;-0.27000
10074997;-0.30000
10077775;-0.31000
10080553;-0.31000
10083331;-0.31000
10086108;-0.30500
10088886;-0.29500
10091664;-0.32500
10094442;-0.35500
10097219;-0.34500
10099997;-0.32500
10102775;-0.29000
10105553;-0.27500
10108331;-0.28500
10111108;-0.32500
10113886;-0.34500
10116664;-0.34500
10119442;-0.35500
10122219;-0.37500
10124997;-0.39500
10127775;-0.42000
10130553;-0.42500
10133330;-0.41500
10136108;-0.41000
10138886;-0.41000
10141664;-0.42000
10144442;-0.44000
10147219;-0.44000
10149997;-0.43500
10152775;-0.41000
10155553;-0.42500
10158330;-0.43500
10161108;-0.44000
10163886;-0.43500
10166664;-0.42500
10169442;-0.42000
10172219;-0.42500
10174997;-0.44000
10177775;-0.46000
10180553;-0.44000
10183330;-0.44000
10186108;-0.43000
10188886;-0.42500
10191664;-0.44000
10194442;-0.45500
10197219;-0.46500
10199997;-0.49000
10202775;-0.51500
10205553;-0.52500
10208330;-0.53000
10211108;-0.54500
10213886;-0.56500
10216664;-0.60500
10219442;-0.63500
10222219;-0.64000
10224997;-0.59000
10227775;-0.48500
10230553;-0.36000
10233330;-0.22500
10236108;-0.06500
10238886;0.13000
10241664;0.37500
10244442;0.62500
10247219;0.84500
10249997;0.94500
10252775;0.89000
10255553;0.59500
10258330;0.15500
10261108;-0.26000
10263886;-0.48500
10266664;-0.55500
10269442;-0.53500
10272219;-0.49500
10274997;-0.45500
10277775;-0.45500
10280553;-0.45000
10283330;-0.44500
10286108;-0.43500
10288886;-0.42500
10291664;-0.44000
10294442;-0.45000
10297219;-0.45000
10299997;-0.44500
10302775;-0.44500
10305553;-0.45500
10308330;-0.46500
10311108;-0.47500
10313886;-0.47500
10316664;-0.46500
10319442;-0.46000
10322219;-0.46000
10324997;-0.46000
10327775;-0.47500
10330553;-0.46000
10333330;-0.46000
10336108;-0.46000
10338886;-0.46500
10341664;-0.46000
10344442;-0.47000
10347219;-0.46500
10349997;-0.46000
10352775;-0.46000
10355553;-0.46000
10358330;-0.45500
10361108;-0.46500
10363886;-0.45500
10366664;-0.44500
10369442;-0.45000
10372219;-0.45500
10374997;-0.45500
10377775;-0.46500
10380553;-0.46000
10383330;-0.45000
10386108;-0.44500
10388886;-0.45000
10391664;-0.45000
10394442;-0.46000
10397219;-0.45500
10399997;-0.44000
10402775;-0.43000
10405553;-0.44500
10408330;-0.45000
10411108;-0.45500
10413886;-0.44500
10416664;-0.43500
10419442;-0.43500
10422219;-0.44500
10424997;-0.45500
10427775;-0.45000
10430553;-0.44000
10433330;-0.43000
10436108;-0.43000
10438886;-0.42500
10441664;-0.44500
10444442;-0.44500
10447219;-0.44000
10449997;-0.43500
10452775;-0.43500
10455553;-0.43500
10458330;-0.45500
10461108;-0.45000
10463886;-0.46500
10466664;-0.44500
10469442;-0.45000
10472219;-0.44500
10474997;-0.45000
10477775;-0.47000
10480553;-0.46500
10483330;-0.45500
10486108;-0.46000
10488886;-0.47000
10491664;-0.48000
10494442;-0.48500
10497219;-0.49000
10499997;-0.50000
10502775;-0.48500
10505553;-0.50000
10508330;-0.51500
10511108;-0.53500
10513886;-0.53000
10516664;-0.51000
10519441;-0.51000
10522219;-0.51000
10524997;-0.51000
10527775;-0.52000
10530553;-0.50000
10533330;-0.47500
10536108;-0.46000
10538886;-0.46000
10541664;-0.45500
10544441;-0.45000
10547219;-0.42500
10549997;-0.41000
10552775;-0.40000
10555553;-0.38500
10558330;-0.38500
10561108;-0.39000
10563886;-0.37500
10566664;-0.35000
10569441;-0.34000
10572219;-0.34000
10574997;-0.34000
10577775;-0.33500
10580553;-0.32500
10583330;-0.32500
10586108;-0.31000
10588886;-0.30500
10591664;-0.31000
10594441;-0.32500
10597219;-0.31500
10599997;-0.31500
10602775;-0.30500
10605553;-0.31000
10608330;-0.31000
10611108;-0.31500
10613886;-0.28500
10616664;-0.29000
10619441;-0.28500
10622219;-0.29500
10624997;-0.30500
10627775;-0.30500
10630553;-0.30500
10633330;-0.30000
10636108;-0.30000
10638886;-0.29000
10641664;-0.30500
10644441;-0.32000
10647219;-0.32000
10649997;-0.31000
10652775;-0.29500
10655553;-0.31000
10658330;-0.30500
10661108;-0.33000
10663886;-0.32000
10666664;-0.31500
10669441;-0.31000
10672219;-0.31000
10674997;-0.31500
10677775;-0.33500
10680553;-0.31500
10683330;-0.30500
10686108;-0.31000
10688886;-0.30500
10691664;-0.31000
10694441;-0.32500
10697219;-0.32500
10699997;-0.32000
10702775;-0.31000
10705553;-0.32000
10708330;-0.32500
10711108;-0.35500
10713886;-0.34500
10716664;-0.33000
10719441;-0.33000
10722219;-0.34000
10724997;-0.34000
10727775;-0.34500
10730553;-0.34500
10733330;-0.33000
10736108;-0.32500
10738886;-0.32500
10741664;-0.35000
10744441;-0.35500
10747219;-0.35000
10749997;-0.33500
10752775;-0.33000
10755553;-0.33000
10758330;-0.33500
10761108;-0.34500
10763886;-0.32500
10766664;-0.32000
10769441;-0.31500
10772219;-0.32000
10774997;-0.32500
10777775;-0.33500
10780553;-0.33500
10783330;-0.33000
10786108;-0.32000
10788886;-0.31000
10791664;-0.33000
10794441;-0.33500
10797219;-0.33500
10799997;-0.32000
10802775;-0.33000
10805553;-0.33000
10808330;-0.33000
10811108;-0.34500
10813886;-0.34000
10816664;-0.32500
10819441;-0.32000
10822219;-0.32500
10824997;-0.33000
10827775;-0.34500
10830553;-0.33500
10833330;-0.33500
10836108;-0.32000
10838886;-0.31500
10841664;-0.32500
10844441;-0.33500
10847219;-0.32000
10849997;-0.32000
10852775;-0.30500
10855553;-0.30000
10858330;-0.30500
10861108;-0.32000
10863886;-0.31000
10866664;-0.29500
10869441;-0.28000
10872219;-0.28500
10874997;-0.28000
10877775;-0.28000
10880553;-0.25500
10883330;-0.24500
10886108;-0.24500
10888886;-0.25000
10891664;-0.24500
10894441;-0.25000
10897219;-0.23500
10899997;-0.22000
10902775;-0.20500
10905553;-0.19500
10908330;-0.20000
10911108;-0.21000
10913886;-0.21000
10916664;-0.19500
10919441;-0.20000
10922219;-0.19000
10924997;-0.21000
10927775;-0.21500
10930552;-0.21000
10933330;-0.22000
10936108;-0.22000
10938886;-0.22500
10941664;-0.22500
10944441;-0.22500
10947219;-0.22500
10949997;-0.22000
10952775;-0.19500
10955552;-0.19000
10958330;-0.18000
10961108;-0.20000
10963886;-0.22500
10966664;-0.24000
10969441;-0.25000
10972219;-0.27000
10974997;-0.29500
10977775;-0.30500
10980552;-0.33000
10983330;-0.32000
10986108;-0.32000
10988886;-0.33500
10991664;-0.33500
10994441;-0.35000
10997219;-0.33500
10999997;-0.33500
11002775;-0.33500
11005552;-0.33500
11008330;-0.34000
11011108;-0.36000
11013886;-0.35500
11016664;-0.34500
11019441;-0.35500
11022219;-0.35000
11024997;-0.35000
11027775;-0.35000
11030552;-0.34500
11033330;-0.34000
11036108;-0.33500
11038886;-0.33000
11041664;-0.34500
11044441;-0.35500
11047219;-0.34500
11049997;-0.34500
11052775;-0.36000
11055552;-0.38500
11058330;-0.43500
11061108;-0.47500
11063886;-0.50000
11066664;-0.50000
11069441;-0.51000
11072219;-0.56000
11074997;-0.58000
11077775;-0.55500
11080552;-0.46000
11083330;-0.30000
11086108;-0.14500
11088886;0.01000
11091664;0.18000
11094441;0.41000
11097219;0.71500
11099997;0.97500
11102775;1.13500
11105552;1.20500
11108330;1.12500
11111108;0.83500
11113886;0.37500
11116664;-0.06500
11119441;-0.35000
11122219;-0.44000
11124997;-0.43000
11127775;-0.38500
11130552;-0.34500
11133330;-0.33000
11136108;-0.33500
11138886;-0.35000
11141664;-0.35000
11144441;-0.37000
11147219;-0.36500
11149997;-0.36500
11152775;-0.35500
11155552;-0.36500
11158330;-0.36500
11161108;-0.39000
11163886;-0.37500
11166664;-0.37500
11169441;-0.37500
11172219;-0.37500
11174997;-0.38000
11177775;-0.38000
11180552;-0.38500
11183330;-0.37500
11186108;-0.37500
11188886;-0.37000
11191664;-0.37000
11194441;-0.37500
11197219;-0.37500
11199997;-0.36000
11202775;-0.35500
11205552;-0.36500
11208330;-0.37000
11211108;-0.37000
11213886;-0.37500
11216664;-0.37000
11219441;-0.36500
11222219;-0.36500
11224997;-0.37500
11227775;-0.39000
11230552;-0.38500
11233330;-0.38500
11236108;-0.37500
11238886;-0.38000
11241664;-0.39000
11244441;-0.39500
11247219;-0.39500
11249997;-0.38000
11252775;-0.37500
11255552;-0.38500
11258330;-0.38500
11261108;-0.38500
11263886;-0.39000
11266664;-0.38000
11269441;-0.37000
11272219;-0.37500
11274997;-0.38000
11277775;-0.38500
11280552;-0.38500
11283330;-0.37000
11286108;-0.36500
11288886;-0.36000
11291664;-0.36500
11294441;-0.38500
11297219;-0.37000
11299997;-0.37000
11302775;-0.36500
11305552;-0.36500
11308330;-0.37500
11311108;-0.38500
11313886;-0.38500
11316663;-0.37000
11319441;-0.36000
11322219;-0.37500
11324997;-0.37500
11327775;-0.38000
11330552;-0.38500
11333330;-0.38000
11336108;-0.37000
11338886;-0.36500
11341663;-0.37500
11344441;-0.39500
11347219;-0.39000
11349997;-0.38000
11352775;-0.37500
11355552;-0.37500
11358330;-0.38000
11361108;-0.39000
11363886;-0.38500
11366663;-0.38500
11369441;-0.37000
11372219;-0.38500
11374997;-0.38500
11377775;-0.39500
11380552;-0.38500
11383330;-0.37500
11386108;-0.37500
11388886;-0.37500
11391663;-0.38500
11394441;-0.38000
11397219;-0.39000
11399997;-0.37500
11402775;-0.37000
11405552;-0.37000
11408330;-0.36500
11411108;-0.37000
11413886;-0.36000
11416663;-0.35000
11419441;-0.32500
11422219;-0.32500
11424997;-0.32000
11427775;-0.31000
11430552;-0.29500
11433330;-0.28000
11436108;-0.26500
11438886;-0.26000
11441663;-0.26000
11444441;-0.26500
11447219;-0.25500
11449997;-0.24000
11452775;-0.23500
11455552;-0.24500
11458330;-0.24000
11461108;-0.25000
11463886;-0.25000
11466663;-0.24500
11469441;-0.23000
11472219;-0.24000
11474997;-0.25000
11477775;-0.26000
11480552;-0.25500
11483330;-0.24000
11486108;-0.23500
11488886;-0.24500
11491663;-0.25500
11494441;-0.26500
11497219;-0.25000
11499997;-0.23500
11502775;-0.23000
11505552;-0.23000
11508330;-0.24500
11511108;-0.25000
11513886;-0.24500
11516663;-0.25000
11519441;-0.24500
11522219;-0.24000
11524997;-0.25000
11527775;-0.26500
11530552;-0.28500
11533330;-0.25500
11536108;-0.25500
11538886;-0.25500
11541663;-0.25000
11544441;-0.27500
11547219;-0.26500
11549997;-0.25500
11552775;-0.26000
11555552;-0.27500
11558330;-0.27500
11561108;-0.29000
11563886;-0.29500
11566663;-0.28000
11569441;-0.27000
11572219;-0.27500
11574997;-0.29500
11577775;-0.30000
11580552;-0.30000
11583330;-0.29500
11586108;-0.28500
11588886;-0.28500
11591663;-0.28500
11594441;-0.29500
11597219;-0.30000
11599997;-0.29500
11602775;-0.28500
11605552;-0.29000
11608330;-0.29500
11611108;-0.29500
11613886;-0.29500
11616663;-0.28500
11619441;-0.29000
11622219;-0.30000
11624997;-0.32000
11627775;-0.32500
11630552;-0.32000
11633330;-0.30500
11636108;-0.30500
11638886;-0.29500
11641663;-0.30000
11644441;-0.31000
11647219;-0.31500
11649997;-0.30000
11652775;-0.30000
11655552;-0.30000
11658330;-0.30000
11661108;-0.31500
11663886;-0.31000
11666663;-0.30000
11669441;-0.29000
11672219;-0.28000
11674997;-0.29500
11677775;-0.30000
11680552;-0.29500
11683330;-0.29500
11686108;-0.28500
11688886;-0.29000
11691663;-0.31000
11694441;-0.31000
11697219;-0.30500
11699997;-0.29500
11702775;-0.28500
11705552;-0.29000
11708330;-0.29000
11711108;-0.30000
11713886;-0.29500
11716663;-0.28000
11719441;-0.27500
11722219;-0.28000
11724997;-0.29000
11727774;-0.29500
11730552;-0.28000
11733330;-0.27000
11736108;-0.25000
11738886;-0.23500
11741663;-0.22500
11744441;-0.22500
11747219;-0.21000
11749997;-0.20000
11752774;-0.19500
11755552;-0.19500
11758330;-0.19500
11761108;-0.19500
11763886;-0.18000
11766663;-0.16500
11769441;-0.15500
11772219;-0.15500
11774997;-0.16500
11777774;-0.16500
11780552;-0.18000
11783330;-0.18000
11786108;-0.17000
11788886;-0.17500
11791663;-0.20500
11794441;-0.21500
11797219;-0.20000
11799997;-0.18000
11802774;-0.16000
11805552;-0.17000
11808330;-0.19000
11811108;-0.20000
11813886;-0.20500
11816663;-0.19000
11819441;-0.16000
11822219;-0.15000
11824997;-0.15000
11827774;-0.18500
11830552;-0.20500
11833330;-0.23000
11836108;-0.24000
11838886;-0.25000
11841663;-0.28000
11844441;-0.29500
11847219;-0.30000
11849997;-0.30000
11852774;-0.29500
11855552;-0.29000
11858330;-0.29000
11861108;-0.30000
11863886;-0.30000
11866663;-0.29000
11869441;-0.28500
11872219;-0.29500
11874997;-0.29500
11877774;-0.30500
11880552;-0.31000
11883330;-0.30000
11886108;-0.29500
11888886;-0.29500
11891663;-0.31000
11894441;-0.32000
11897219;-0.32000
11899997;-0.31000
11902774;-0.29500
11905552;-0.31000
11908330;-0.32500
11911108;-0.35000
11913886;-0.37500
11916663;-0.41000
11919441;-0.44500
11922219;-0.46500
11924997;-0.49500
11927774;-0.53500
11930552;-0.52500
11933330;-0.43500
11936108;-0.26000
11938886;-0.07000
11941663;0.12000
11944441;0.36500
11947219;0.69500
11949997;0.97500
11952774;1.15500
11955552;1.23000
11958330;1.12000
11961108;0.77000
11963886;0.27500
11966663;-0.16000
11969441;-0.39000
11972219;-0.45000
11974997;-0.42500
11977774;-0.40000
11980552;-0.35500
11983330;-0.33000
11986108;-0.30500
11988886;-0.31500
11991663;-0.33000
11994441;-0.34500
11997219;-0.35000
11999997;-0.34000
12002774;-0.32500
12005552;-0.33500
12008330;-0.35000
12011108;-0.36000
12013886;-0.36000
12016663;-0.34500
12019441;-0.34000
12022219;-0.33000
12024997;-0.34500
12027774;-0.36000
12030552;-0.34000
12033330;-0.34000
12036108;-0.33000
12038886;-0.34500
12041663;-0.35500
12044441;-0.37000
12047219;-0.35500
12049997;-0.34500
12052774;-0.34000
12055552;-0.34000
12058330;-0.34500
12061108;-0.36500
12063886;-0.35000
12066663;-0.34000
12069441;-0.33500
12072219;-0.34500
12074997;-0.35000
12077774;-0.35000
12080552;-0.35500
12083330;-0.35000
12086108;-0.34000
12088886;-0.33000
12091663;-0.34000
12094441;-0.34500
12097219;-0.34000
12099997;-0.32500
12102774;-0.32500
12105552;-0.32000
12108330;-0.33500
12111108;-0.35000
12113885;-0.33500
12116663;-0.33000
12119441;-0.33000
12122219;-0.33500
12124997;-0.33500
12127774;-0.36000
12130552;-0.34000
12133330;-0.33000
12136108;-0.32000
12138885;-0.33000
12141663;-0.33000
12144441;-0.34000
12147219;-0.33000
12149997;-0.33000
12152774;-0.31000
12155552;-0.32500
12158330;-0.33500
12161108;-0.33500
12163885;-0.32000
12166663;-0.32500
12169441;-0.32500
12172219;-0.33000
12174997;-0.32500
12177774;-0.33500
12180552;-0.33000
12183330;-0.32500
12186108;-0.32500
12188885;-0.34000
12191663;-0.33000
12194441;-0.34500
12197219;-0.34500
12199997;-0.33500
12202774;-0.33500
12205552;-0.34500
12208330;-0.35500
12211108;-0.37000
12213885;-0.35000
12216663;-0.35000
12219441;-0.34500
12222219;-0.34500
12224997;-0.33500
12227774;-0.35000
12230552;-0.34500
12233330;-0.32500
12236108;-0.31000
12238885;-0.30000
12241663;-0.30000
12244441;-0.30000
12247219;-0.29000
12249997;-0.28000
12252774;-0.27000
12255552;-0.25000
12258330;-0.24500
12261108;-0.24500
12263885;-0.23000
12266663;-0.21000
12269441;-0.20500
12272219;-0.21000
12274997;-0.21000
12277774;-0.22000
12280552;-0.21000
12283330;-0.20000
12286108;-0.19500
12288885;-0.19000
12291663;-0.21500
12294441;-0.22000
12297219;-0.21500
12299997;-0.21000
12302774;-0.20000
12305552;-0.22500
12308330;-0.22500
12311108;-0.24000
12313885;-0.22500
12316663;-0.21500
12319441;-0.21000
12322219;-0.21000
12324997;-0.22000
12327774;-0.23500
12330552;-0.22500
12333330;-0.22000
12336108;-0.21500
12338885;-0.22500
12341663;-0.22500
12344441;-0.23000
12347219;-0.22500
12349997;-0.21500
12352774;-0.20500
12355552;-0.21000
12358330;-0.22000
12361108;-0.24000
12363885;-0.23500
12366663;-0.23500
12369441;-0.22500
12372219;-0.23500
12374997;-0.24000
12377774;-0.26000
12380552;-0.26000
12383330;-0.25000
12386108;-0.24000
12388885;-0.24500
12391663;-0.25000
12394441;-0.27000
12397219;-0.26500
12399997;-0.26000
12402774;-0.25000
12405552;-0.26000
12408330;-0.26000
12411108;-0.27000
12413885;-0.27500
12416663;-0.26500
12419441;-0.25500
12422219;-0.26000
12424997;-0.27000
12427774;-0.28000
12430552;-0.27000
12433330;-0.25000
12436108;-0.25000
12438885;-0.25500
12441663;-0.26500
12444441;-0.28000
12447219;-0.27000
12449997;-0.27000
12452774;-0.26000
12455552;-0.25500
12458330;-0.26000
12461108;-0.27000
12463885;-0.28000
12466663;-0.27000
12469441;-0.26500
12472219;-0.28000
12474997;-0.28000
12477774;-0.29500
12480552;-0.28500
12483330;-0.27000
12486108;-0.27500
12488885;-0.26000
12491663;-0.27000
12494441;-0.28500
12497219;-0.27500
12499996;-0.27500
12502774;-0.25500
12505552;-0.26500
12508330;-0.27000
12511108;-0.27500
12513885;-0.28000
12516663;-0.27000
12519441;-0.25000
12522219;-0.24500
12524996;-0.25000
12527774;-0.26500
12530552;-0.25000
12533330;-0.24500
12536108;-0.24500
12538885;-0.24000
12541663;-0.25500
12544441;-0.26000
12547219;-0.24500
12549996;-0.23000
12552774;-0.22500
12555552;-0.20500
12558330;-0.20000
12561108;-0.20000
12563885;-0.20000
12566663;-0.19000
12569441;-0.18000
12572219;-0.18500
12574996;-0.18000
12577774;-0.18500
12580552;-0.16000
12583330;-0.13000
12586108;-0.12000
12588885;-0.12500
12591663;-0.15000
12594441;-0.16000
12597219;-0.15000
12599996;-0.15000
12602774;-0.16000
12605552;-0.15000
12608330;-0.16000
12611108;-0.18000
12613885;-0.18000
12616663;-0.15500
12619441;-0.13000
12622219;-0.12000
12624996;-0.14000
12627774;-0.18000
12630552;-0.19000
12633330;-0.19500
12636108;-0.20000
12638885;-0.21500
12641663;-0.24000
12644441;-0.26500
12647219;-0.26500
12649996;-0.26000
12652774;-0.25000
12655552;-0.25500
12658330;-0.28000
12661108;-0.28500
12663885;-0.27500
12666663;-0.26000
12669441;-0.26500
12672219;-0.27000
12674996;-0.28000
12677774;-0.29000
12680552;-0.28500
12683330;-0.28000
12686108;-0.26000
12688885;-0.26500
12691663;-0.28500
12694441;-0.30000
12697219;-0.28500
12699996;-0.27000
12702774;-0.27000
12705552;-0.27000
12708330;-0.28500
12711108;-0.31500
12713885;-0.32500
12716663;-0.35500
12719441;-0.38000
12722219;-0.41500
12724996;-0.45500
12727774;-0.50500
12730552;-0.50500
12733330;-0.45000
12736108;-0.31500
12738885;-0.15000
12741663;0.02000
12744441;0.26000
12747219;0.56500
12749996;0.85500
12752774;1.04500
12755552;1.08500
12758330;0.92500
12761108;0.52500
12763885;0.02000
12766663;-0.33000
12769441;-0.43000
12772219;-0.40000
12774996;-0.35000
12777774;-0.32000
12780552;-0.31000
12783330;-0.32000
12786108;-0.31000
12788885;-0.30500
12791663;-0.30500
12794441;-0.32500
12797219;-0.33000
12799996;-0.32000
12802774;-0.32000
12805552;-0.32500
12808330;-0.33500
12811108;-0.34000
12813885;-0.33000
12816663;-0.33000
12819441;-0.32500
12822219;-0.32500
12824996;-0.32500
12827774;-0.34500
12830552;-0.33000
12833330;-0.33500
12836108;-0.32500
12838885;-0.33000
12841663;-0.33500
12844441;-0.34500
12847219;-0.33500
12849996;-0.33000
12852774;-0.32000
12855552;-0.32000
12858330;-0.33000
12861108;-0.33500
12863885;-0.33500
12866663;-0.33000
12869441;-0.32500
12872219;-0.32500
12874996;-0.32500
12877774;-0.33000
12880552;-0.32500
12883330;-0.32000
12886108;-0.31000
12888885;-0.31500
12891663;-0.32000
12894441;-0.33500
12897219;-0.33000
12899996;-0.32500
12902774;-0.31500
12905552;-0.33000
12908330;-0.32000
12911107;-0.34000
12913885;-0.34500
12916663;-0.33000
12919441;-0.33000
12922219;-0.34500
12924996;-0.34500
12927774;-0.34000
12930552;-0.34000
12933330;-0.33000
12936107;-0.33500
12938885;-0.33000
12941663;-0.34000
12944441;-0.33500
12947219;-0.33500
12949996;-0.33000
12952774;-0.32000
12955552;-0.33500
12958330;-0.35000
12961107;-0.35500
12963885;-0.34000
12966663;-0.34000
12969441;-0.34000
12972219;-0.35000
12974996;-0.35000
12977774;-0.36500
12980552;-0.36500
12983330;-0.37500
12986107;-0.36000
12988885;-0.36000
12991663;-0.36500
12994441;-0.38500
12997219;-0.37500
12999996;-0.35500
13002774;-0.37500
13005552;-0.37500
13008330;-0.38500
13011107;-0.39000
13013885;-0.38500
13016663;-0.36500
13019441;-0.36500
13022219;-0.35000
13024996;-0.35500
13027774;-0.36500
13030552;-0.35500
13033330;-0.34500
13036107;-0.32500
13038885;-0.30000
13041663;-0.30000
13044441;-0.30500
13047219;-0.29500
13049996;-0.27500
13052774;-0.27000
13055552;-0.28000
13058330;-0.28000
13061107;-0.28000
13063885;-0.25500
13066663;-0.24000
13069441;-0.23500
13072219;-0.25000
13074996;-0.26000
13077774;-0.28500
13080552;-0.26500
13083330;-0.25500
13086107;-0.25000
13088885;-0.24000
13091663;-0.26000
13094441;-0.26000
13097219;-0.26500
13099996;-0.25000
13102774;-0.25000
13105552;-0.26000
13108330;-0.27000
13111107;-0.29000
13113885;-0.28500
13116663;-0.28000
13119441;-0.26000
13122219;-0.27000
13124996;-0.27500
13127774;-0.29000
13130552;-0.29000
13133330;-0.28000
13136107;-0.26500
13138885;-0.28000
13141663;-0.29500
13144441;-0.30000
13147219;-0.31000
13149996;-0.30500
13152774;-0.30000
13155552;-0.29500
13158330;-0.30000
13161107;-0.30500
13163885;-0.30000
13166663;-0.28500
13169441;-0.28500
13172219;-0.28500
13174996;-0.30000
13177774;-0.31500
13180552;-0.31500
13183330;-0.32500
13186107;-0.30500
13188885;-0.30500
13191663;-0.32000
13194441;-0.32000
13197219;-0.32000
13199996;-0.30000
13202774;-0.31500
13205552;-0.33000
13208330;-0.33000
13211107;-0.33500
13213885;-0.34000
13216663;-0.34000
13219441;-0.33500
13222219;-0.33500
13224996;-0.32500
13227774;-0.33000
13230552;-0.32000
13233330;-0.32500
13236107;-0.33000
13238885;-0.33000
13241663;-0.34500
13244441;-0.35000
13247219;-0.34000
13249996;-0.32000
13252774;-0.32000
13255552;-0.34000
13258330;-0.33000
13261107;-0.33500
13263885;-0.33500
13266663;-0.33500
13269441;-0.35000
13272219;-0.33000
13274996;-0.34500
13277774;-0.35000
13280552;-0.33500
13283330;-0.32000
13286107;-0.32000
13288885;-0.32500
13291663;-0.33500
13294441;-0.34500
13297218;-0.34500
13299996;-0.32000
13302774;-0.30500
13305552;-0.29500
13308330;-0.30000
13311107;-0.29500
13313885;-0.29000
13316663;-0.27000
13319441;-0.27000
13322218;-0.25500
13324996;-0.26000
13327774;-0.26000
13330552;-0.26000
13333330;-0.24000
13336107;-0.23500
13338885;-0.23000
13341663;-0.23500
13344441;-0.24000
13347218;-0.23500
13349996;-0.23000
13352774;-0.22000
13355552;-0.22000
13358330;-0.23000
13361107;-0.24000
13363885;-0.25000
13366663;-0.25000
13369441;-0.23000
13372218;-0.23000
13374996;-0.25000
13377774;-0.28000
13380552;-0.28000
13383330;-0.27000
13386107;-0.25500
13388885;-0.24500
13391663;-0.25000
13394441;-0.28500
13397218;-0.29000
13399996;-0.28500
13402774;-0.30500
13405552;-0.31500
13408330;-0.35000
13411107;-0.36000
13413885;-0.37000
13416663;-0.36000
13419441;-0.37000
13422218;-0.36000
13424996;-0.37500
13427774;-0.38500
13430552;-0.38500
13433330;-0.38500
13436107;-0.37000
13438885;-0.37500
13441663;-0.39000
13444441;-0.39000
13447218;-0.37500
13449996;-0.37000
13452774;-0.36000
13455552;-0.36000
13458330;-0.38000
13461107;-0.39000
13463885;-0.38500
13466663;-0.38000
13469441;-0.38000
13472218;-0.39000
13474996;-0.40000
13477774;-0.44500
13480552;-0.49500
13483330;-0.49000
13486107;-0.50500
13488885;-0.56000
13491663;-0.63000
13494441;-0.65500
13497218;-0.61500
13499996;-0.55500
13502774;-0.47000
13505552;-0.36500
13508330;-0.26500
13511107;-0.15000
13513885;-0.01500
13516663;0.17500
13519441;0.41000
13522218;0.69000
13524996;0.90500
13527774;0.97000
13530552;0.83500
13533330;0.46000
13536107;0.00000
13538885;-0.33000
13541663;-0.47000
13544441;-0.50000
13547218;-0.46000
13549996;-0.41500
13552774;-0.39500
13555552;-0.40500
13558330;-0.42500
13561107;-0.42500
13563885;-0.41500
13566663;-0.40500
13569441;-0.39500
13572218;-0.40500
13574996;-0.41000
13577774;-0.41500
13580552;-0.41500
13583330;-0.41000
13586107;-0.41000
13588885;-0.41500
13591663;-0.42500
13594441;-0.43000
13597218;-0.43000
13599996;-0.42000
13602774;-0.40500
13605552;-0.41500
13608330;-0.41500
13611107;-0.42000
13613885;-0.42000
13616663;-0.42000
13619441;-0.41000
13622218;-0.41500
13624996;-0.42500
13627774;-0.44000
13630552;-0.43000
13633330;-0.42500
13636107;-0.42000
13638885;-0.42000
13641663;-0.43500
13644441;-0.43500
13647218;-0.43000
13649996;-0.42000
13652774;-0.42000
13655552;-0.41500
13658330;-0.42000
13661107;-0.43500
13663885;-0.43500
13666663;-0.41500
13669441;-0.41500
13672218;-0.42500
13674996;-0.42000
13677774;-0.43000
13680552;-0.42500
13683330;-0.41500
13686107;-0.41000
13688885;-0.41500
13691663;-0.43000
13694441;-0.44000
13697218;-0.42500
13699996;-0.42500
13702774;-0.42000
13705552;-0.42000
13708329;-0.41500
13711107;-0.44500
13713885;-0.44500
13716663;-0.44000
13719441;-0.42500
13722218;-0.42500
13724996;-0.43500
13727774;-0.45000
13730552;-0.44500
13733329;-0.44500
13736107;-0.43500
13738885;-0.43000
13741663;-0.45000
13744441;-0.46000
13747218;-0.46500
13749996;-0.46500
13752774;-0.47000
13755552;-0.50000
13758329;-0.50500
13761107;-0.52000
13763885;-0.50500
13766663;-0.50500
13769441;-0.50000
13772218;-0.49000
13774996;-0.50000
13777774;-0.51500
13780552;-0.51000
13783329;-0.50000
13786107;-0.48500
13788885;-0.48000
13791663;-0.48000
13794441;-0.48000
13797218;-0.45500
13799996;-0.44000
13802774;-0.42000
13805552;-0.40500
13808329;-0.39500
13811107;-0.39000
13813885;-0.36500
13816663;-0.36500
13819441;-0.35000
13822218;-0.33500
13824996;-0.33500
13827774;-0.34500
13830552;-0.34000
13833329;-0.32000
13836107;-0.31000
13838885;-0.30500
13841663;-0.31000
13844441;-0.32000
13847218;-0.32000
13849996;-0.31000
13852774;-0.30500
13855552;-0.30000
13858329;-0.31000
13861107;-0.32000
13863885;-0.30500
13866663;-0.29000
13869441;-0.27500
13872218;-0.29000
13874996;-0.28500
13877774;-0.30500
13880552;-0.29500
13883329;-0.29500
13886107;-0.28500
13888885;-0.28500
13891663;-0.31000
13894441;-0.31500
13897218;-0.32000
13899996;-0.31000
13902774;-0.30500
13905552;-0.31000
13908329;-0.33000
13911107;-0.32500
13913885;-0.33000
13916663;-0.31500
13919441;-0.32500
13922218;-0.31000
13924996;-0.32000
13927774;-0.33500
13930552;-0.32500
13933329;-0.31500
13936107;-0.30500
13938885;-0.30500
13941663;-0.31500
13944441;-0.31000
13947218;-0.32500
13949996;-0.31000
13952774;-0.31000
13955552;-0.32000
13958329;-0.34000
13961107;-0.33500
13963885;-0.34000
13966663;-0.33000
13969441;-0.32000
13972218;-0.33000
13974996;-0.34000
13977774;-0.35000
13980552;-0.34500
13983329;-0.32500
13986107;-0.32000
13988885;-0.32000
13991663;-0.33500
13994441;-0.34000
13997218;-0.34000
13999996;-0.33000
14002774;-0.31500
14005552;-0.32500
14008329;-0.32500
14011107;-0.33500
14013885;-0.32500
14016663;-0.31500
14019441;-0.31500
14022218;-0.31500
14024996;-0.32000
14027774;-0.34500
14030552;-0.34500
14033329;-0.33500
14036107;-0.33000
14038885;-0.32500
14041663;-0.33000
14044441;-0.34500
14047218;-0.34500
14049996;-0.33500
14052774;-0.33000
14055552;-0.33000
14058329;-0.33500
14061107;-0.35500
14063885;-0.34000
14066663;-0.33500
14069441;-0.33000
14072218;-0.33500
14074996;-0.32500
14077774;-0.35500
14080552;-0.33500
14083329;-0.33000
14086107;-0.32000
14088885;-0.31000
14091663;-0.32500
14094440;-0.33000
14097218;-0.33000
14099996;-0.31000
14102774;-0.29500
14105552;-0.28500
14108329;-0.29000
14111107;-0.28000
14113885;-0.27500
14116663;-0.26000
14119440;-0.24500
14122218;-0.25000
14124996;-0.24500
14127774;-0.25500
14130552;-0.23500
14133329;-0.22500
14136107;-0.22000
14138885;-0.21000
14141663;-0.21500
14144440;-0.23000
14147218;-0.23000
14149996;-0.23500
14152774;-0.21500
14155552;-0.21500
14158329;-0.23500
14161107;-0.24000
14163885;-0.24000
14166663;-0.23500
14169440;-0.23500
14172218;-0.25000
14174996;-0.22500
14177774;-0.22000
14180552;-0.22500
14183329;-0.24500
14186107;-0.27000
14188885;-0.28500
14191663;-0.31500
14194440;-0.33000
14197218;-0.34500
14199996;-0.34000
14202774;-0.34000
14205552;-0.34500
14208329;-0.35000
14211107;-0.35500
14213885;-0.35500
14216663;-0.35000
14219440;-0.33000
14222218;-0.35000
14224996;-0.35000
14227774;-0.37000
14230552;-0.36500
14233329;-0.35000
14236107;-0.34000
14238885;-0.34500
14241663;-0.35000
14244440;-0.35500
14247218;-0.36000
14249996;-0.36000
14252774;-0.33500
14255552;-0.34500
14258329;-0.35500
14261107;-0.37000
14263885;-0.36500
14266663;-0.36000
14269440;-0.36000
14272218;-0.37000
14274996;-0.39000
14277774;-0.44500
14280552;-0.48500
14283329;-0.50000
14286107;-0.51500
14288885;-0.53000
14291663;-0.57000
14294440;-0.51500
14297218;-0.36000
14299996;-0.17000
14302774;0.02500
14305552;0.25000
14308329;0.52500
14311107;0.79500
14313885;1.02000
14316663;1.14500
14319440;1.09500
14322218;0.81000
14324996;0.35500
14327774;-0.12500
14330552;-0.41000
14333329;-0.47000
14336107;-0.41500
14338885;-0.36000
14341663;-0.35000
14344440;-0.36500
14347218;-0.37500
14349996;-0.37500
14352774;-0.36000
14355552;-0.37000
14358329;-0.38000
14361107;-0.38500
14363885;-0.38500
14366663;-0.39000
14369440;-0.38500
14372218;-0.38500
14374996;-0.40500
14377774;-0.41500
14380552;-0.40000
14383329;-0.39500
14386107;-0.38500
14388885;-0.37500
14391663;-0.38500
14394440;-0.39000
14397218;-0.38500
14399996;-0.37500
14402774;-0.37000
14405552;-0.37500
14408329;-0.37000
14411107;-0.38500
14413885;-0.38000
14416663;-0.37500
14419440;-0.37500
14422218;-0.39000
14424996;-0.39500
14427774;-0.40000
14430552;-0.40000
14433329;-0.40000
14436107;-0.39000
14438885;-0.39500
14441663;-0.38500
14444440;-0.41000
14447218;-0.40500
14449996;-0.39500
14452774;-0.38000
14455552;-0.37500
14458329;-0.39500
14461107;-0.39000
14463885;-0.39500
14466663;-0.38000
14469440;-0.38000
14472218;-0.38500
14474996;-0.39500
14477774;-0.39500
14480552;-0.39500
14483329;-0.38500
14486107;-0.38000
14488885;-0.38000
14491663;-0.39000
14494440;-0.40000
14497218;-0.40000
14499996;-0.39000
14502774;-0.39000
14505551;-0.39500
14508329;-0.40000
14511107;-0.40500
14513885;-0.39500
14516663;-0.40000
14519440;-0.38500
14522218;-0.38500
14524996;-0.40500
14527774;-0.41000
14530551;-0.40500
14533329;-0.40000
14536107;-0.39000
14538885;-0.39000
14541663;-0.40000
14544440;-0.41000
14547218;-0.40500
14549996;-0.41000
14552774;-0.39000
14555551;-0.41000
14558329;-0.41000
14561107;-0.42500
14563885;-0.42000
14566663;-0.41000
14569440;-0.40000
14572218;-0.40500
14574996;-0.41500
14577774;-0.41500
14580551;-0.40500
14583329;-0.40500
14586107;-0.38000
14588885;-0.38500
14591663;-0.39000
14594440;-0.39500
14597218;-0.37500
14599996;-0.35000
14602774;-0.33500
14605551;-0.33000
14608329;-0.32500
14611107;-0.33000
14613885;-0.31500
14616663;-0.29500
14619440;-0.28500
14622218;-0.28000
14624996;-0.27500
14627774;-0.29000
14630551;-0.28000
14633329;-0.27000
14636107;-0.27000
14638885;-0.26500
14641663;-0.27500
14644440;-0.27000
14647218;-0.27500
14649996;-0.27500
14652774;-0.25500
14655551;-0.26000
14658329;-0.26500
14661107;-0.28000
14663885;-0.27500
14666663;-0.26500
14669440;-0.26000
14672218;-0.25500
14674996;-0.27500
14677774;-0.27000
14680551;-0.27000
14683329;-0.26000
14686107;-0.25500
14688885;-0.25500
14691663;-0.26500
14694440;-0.28500
14697218;-0.27000
14699996;-0.27000
14702774;-0.25500
14705551;-0.27500
14708329;-0.28000
14711107;-0.30000
14713885;-0.29500
14716663;-0.28500
14719440;-0.27000
14722218;-0.28500
14724996;-0.29000
14727774;-0.30500
14730551;-0.30000
14733329;-0.30500
14736107;-0.29000
14738885;-0.28500
14741663;-0.30000
14744440;-0.31500
14747218;-0.30000
14749996;-0.31500
14752774;-0.30000
14755551;-0.30500
14758329;-0.31000
14761107;-0.31500
14763885;-0.32000
14766663;-0.30500
14769440;-0.29000
14772218;-0.30000
14774996;-0.31000
14777774;-0.32000
14780551;-0.31000
14783329;-0.30500
14786107;-0.29500
14788885;-0.30000
14791663;-0.31000
14794440;-0.31500
14797218;-0.32000
14799996;-0.32000
14802774;-0.31000
14805551;-0.31500
14808329;-0.32000
14811107;-0.33000
14813885;-0.32500
14816663;-0.31500
14819440;-0.31500
14822218;-0.30500
14824996;-0.31500
14827774;-0.34000
14830551;-0.33500
14833329;-0.32000
14836107;-0.31500
14838885;-0.30500
14841663;-0.31000
14844440;-0.32500
14847218;-0.31500
14849996;-0.30500
14852774;-0.28500
14855551;-0.30000
14858329;-0.30000
14861107;-0.30500
14863885;-0.29500
14866663;-0.30000
14869440;-0.29000
14872218;-0.29000
14874996;-0.31500
14877774;-0.31000
14880551;-0.31000
14883329;-0.30000
14886107;-0.27000
14888885;-0.26500
14891662;-0.25500
14894440;-0.25000
14897218;-0.23500
14899996;-0.23000
14902774;-0.23000
14905551;-0.22000
14908329;-0.22000
14911107;-0.22500
14913885;-0.21500
14916662;-0.19500
14919440;-0.18000
14922218;-0.18000
14924996;-0.19000
14927774;-0.20000
14930551;-0.20500
14933329;-0.20500
14936107;-0.20000
14938885;-0.21000
14941662;-0.22500
14944440;-0.22000
14947218;-0.21000
14949996;-0.22000
14952774;-0.22000
14955551;-0.23000
14958329;-0.24000
14961107;-0.24500
14963885;-0.24500
14966662;-0.22500
14969440;-0.21000
14972218;-0.19000
14974996;-0.19000
14977774;-0.21000
14980551;-0.23000
14983329;-0.25000
14986107;-0.26000
14988885;-0.28000
14991662;-0.29000
14994440;-0.30500
14997218;-0.30500
14999996;-0.32000
15002774;-0.31500
15005551;-0.32000
15008329;-0.31500
15011107;-0.33000
15013885;-0.32500
15016662;-0.31000
15019440;-0.31000
15022218;-0.32000
15024996;-0.33500
15027774;-0.34000
15030551;-0.34000
15033329;-0.34000
15036107;-0.33000
15038885;-0.35000
15041662;-0.34500
15044440;-0.35500
15047218;-0.34500
15049996;-0.33500
15052774;-0.33500
15055551;-0.34500
15058329;-0.35000
15061107;-0.36500
15063885;-0.38000
15066662;-0.41000
15069440;-0.44500
15072218;-0.47500
15074996;-0.51000
15077774;-0.55500
15080551;-0.56500
15083329;-0.51500
15086107;-0.39500
15088885;-0.23000
15091662;-0.07000
15094440;0.11000
15097218;0.36500
15099996;0.65500
15102774;0.91000
15105551;1.08000
15108329;1.12000
15111107;0.98000
15113885;0.65000
15116662;0.20000
15119440;-0.20500
15122218;-0.41000
15124996;-0.46000
15127774;-0.43500
15130551;-0.38500
15133329;-0.35500
15136107;-0.35000
15138885;-0.34500
15141662;-0.36000
15144440;-0.37500
15147218;-0.37500
15149996;-0.37000
15152774;-0.36500
15155551;-0.37000
15158329;-0.38500
15161107;-0.39000
15163885;-0.39000
15166662;-0.37500
15169440;-0.37500
15172218;-0.37000
15174996;-0.37000
15177774;-0.38500
15180551;-0.38000
15183329;-0.37500
15186107;-0.37000
15188885;-0.37000
15191662;-0.37500
15194440;-0.38500
15197218;-0.38000
15199996;-0.37000
15202774;-0.36500
15205551;-0.37500
15208329;-0.37500
15211107;-0.40000
15213885;-0.39500
15216662;-0.39000
15219440;-0.38500
15222218;-0.39000
15224996;-0.39000
15227774;-0.39000
15230551;-0.39500
15233329;-0.38500
15236107;-0.37000
15238885;-0.36000
15241662;-0.37500
15244440;-0.39500
15247218;-0.38000
15249996;-0.36000
15252774;-0.36500
15255551;-0.36000
15258329;-0.36500
15261107;-0.37500
15263885;-0.38500
15266662;-0.38500
15269440;-0.37500
15272218;-0.38000
15274996;-0.38000
15277774;-0.40000
15280551;-0.38500
15283329;-0.37500
15286107;-0.36500
15288885;-0.38000
15291662;-0.38000
15294440;-0.39000
15297218;-0.38500
15299996;-0.38000
15302773;-0.38000
15305551;-0.37500
15308329;-0.37500
15311107;-0.38500
15313885;-0.38000
15316662;-0.38000
15319440;-0.35500
15322218;-0.37000
15324996;-0.38000
15327773;-0.39500
15330551;-0.38500
15333329;-0.37500
15336107;-0.37000
15338885;-0.38000
15341662;-0.39500
15344440;-0.39500
15347218;-0.38500
15349996;-0.39000
15352773;-0.39000
15355551;-0.40000
15358329;-0.40500
15361107;-0.41500
15363885;-0.41000
15366662;-0.40500
15369440;-0.39000
15372218;-0.40000
15374996;-0.40500
15377773;-0.41000
15380551;-0.41500
15383329;-0.39500
15386107;-0.38500
15388885;-0.38500
15391662;-0.39000
15394440;-0.39000
15397218;-0.37500
15399996;-0.36500
15402773;-0.34500
15405551;-0.34500
15408329;-0.34000
15411107;-0.34500
15413885;-0.33000
15416662;-0.31500
15419440;-0.29500
15422218;-0.28500
15424996;-0.29500
15427773;-0.30500
15430551;-0.28500
15433329;-0.28000
15436107;-0.27000
15438885;-0.26500
15441662;-0.27500
15444440;-0.28000
15447218;-0.27500
15449996;-0.27000
15452773;-0.26000
15455551;-0.26500
15458329;-0.27500
15461107;-0.28000
15463885;-0.27000
15466662;-0.28000
15469440;-0.25000
15472218;-0.25000
15474996;-0.26500
15477773;-0.28500
15480551;-0.26500
15483329;-0.25500
15486107;-0.25000
15488885;-0.26000
15491662;-0.26500
15494440;-0.27000
15497218;-0.27500
15499996;-0.27500
15502773;-0.27000
15505551;-0.27000
15508329;-0.27500
15511107;-0.28500
15513885;-0.28000
15516662;-0.28000
15519440;-0.27500
15522218;-0.28500
15524996;-0.29500
15527773;-0.30000
15530551;-0.28500
15533329;-0.29500
15536107;-0.28500
15538885;-0.29500
15541662;-0.30500
15544440;-0.30500
15547218;-0.31500
15549996;-0.30000
15552773;-0.29500
15555551;-0.29500
15558329;-0.29000
15561107;-0.32000
15563885;-0.30000
15566662;-0.30000
15569440;-0.31000
15572218;-0.31000
15574996;-0.32500
15577773;-0.33500
15580551;-0.34000
15583329;-0.33500
15586107;-0.31500
15588885;-0.31500
15591662;-0.33000
15594440;-0.34000
15597218;-0.34500
15599996;-0.33500
15602773;-0.32000
15605551;-0.32500
15608329;-0.33500
15611107;-0.35000
15613885;-0.34500
15616662;-0.34000
15619440;-0.32000
15622218;-0.33500
15624996;-0.33000
15627773;-0.34000
15630551;-0.33500
15633329;-0.33000
15636107;-0.33000
15638885;-0.32000
15641662;-0.32500
15644440;-0.34000
15647218;-0.33000
15649996;-0.32500
15652773;-0.32500
15655551;-0.32500
15658329;-0.32500
15661107;-0.33500
15663885;-0.33000
15666662;-0.32500
15669440;-0.32000
15672218;-0.32500
15674996;-0.32500
15677773;-0.34000
15680551;-0.34000
15683329;-0.33000
15686107;-0.31500
15688884;-0.32000
15691662;-0.33500
15694440;-0.33000
15697218;-0.33500
15699996;-0.32500
15702773;-0.32000
15705551;-0.31000
15708329;-0.32000
15711107;-0.32500
15713884;-0.32000
15716662;-0.30500
15719440;-0.29000
15722218;-0.27000
15724996;-0.27500
15727773;-0.26000
15730551;-0.26000
15733329;-0.25000
15736107;-0.23500
15738884;-0.25500
15741662;-0.25000
15744440;-0.25500
15747218;-0.24500
15749996;-0.23500
15752773;-0.20500
15755551;-0.20500
15758329;-0.22000
15761107;-0.24500
15763884;-0.23000
15766662;-0.22500
15769440;-0.23000
15772218;-0.24000
15774996;-0.24500
15777773;-0.25500
15780551;-0.24000
15783329;-0.24000
15786107;-0.24500
15788884;-0.24500
15791662;-0.23000
15794440;-0.22000
15797218;-0.20000
15799996;-0.20500
15802773;-0.23500
15805551;-0.25000
15808329;-0.27000
15811107;-0.29000
15813884;-0.30500
15816662;-0.31500
15819440;-0.31500
15822218;-0.31500
15824996;-0.32500
15827773;-0.34500
15830551;-0.34500
15833329;-0.34000
15836107;-0.35000
15838884;-0.35500
15841662;-0.36000
15844440;-0.36500
15847218;-0.35500
15849996;-0.34000
15852773;-0.34500
15855551;-0.36000
15858329;-0.36500
15861107;-0.37000
15863884;-0.37500
15866662;-0.36500
15869440;-0.35500
15872218;-0.35500
15874996;-0.36000
15877773;-0.36500
15880551;-0.36500
15883329;-0.35500
15886107;-0.35000
15888884;-0.36000
15891662;-0.36000
15894440;-0.37500
15897218;-0.37000
15899996;-0.37500
15902773;-0.37000
15905551;-0.40000
15908329;-0.44000
15911107;-0.49500
15913884;-0.53000
15916662;-0.55000
15919440;-0.58500
15922218;-0.60000
15924996;-0.55000
15927773;-0.44000
15930551;-0.27000
15933329;-0.11000
15936107;0.07000
15938884;0.31000
15941662;0.56500
15944440;0.78500
15947218;0.94500
15949996;1.00000
15952773;0.95000
15955551;0.70500
15958329;0.29500
15961107;-0.12000
15963884;-0.39000
15966662;-0.50000
15969440;-0.47000
15972218;-0.41500
15974996;-0.39000
15977773;-0.39500
15980551;-0.39500
15983329;-0.40000
15986107;-0.40000
15988884;-0.40000
15991662;-0.39500
15994440;-0.40000
15997218;-0.40500
15999996;-0.40000
16002773;-0.40500
16005551;-0.41000
16008329;-0.42000
16011107;-0.42000
16013884;-0.41000
16016662;-0.40500
16019440;-0.40500
16022218;-0.40500
16024996;-0.41000
16027773;-0.41000
16030551;-0.42500
16033329;-0.40000
16036107;-0.40000
16038884;-0.39000
16041662;-0.40000
16044440;-0.41000
16047218;-0.39500
16049996;-0.38500
16052773;-0.38000
16055551;-0.39000
16058329;-0.39500
16061107;-0.40000
16063884;-0.40500
16066662;-0.40500
16069440;-0.40000
16072218;-0.41000
16074995;-0.41500
16077773;-0.42500
16080551;-0.40500
16083329;-0.41000
16086107;-0.41000
16088884;-0.39500
16091662;-0.41500
16094440;-0.41500
16097218;-0.41000
16099995;-0.40500
16102773;-0.39500
16105551;-0.40000
16108329;-0.40000
16111107;-0.40000
16113884;-0.40500
16116662;-0.40000
16119440;-0.39500
16122218;-0.40000
16124995;-0.41000
16127773;-0.42500
16130551;-0.44000
16133329;-0.42500
16136107;-0.42000
16138884;-0.40500
16141662;-0.41500
16144440;-0.42500
16147218;-0.42500
16149995;-0.42000
16152773;-0.40000
16155551;-0.40000
16158329;-0.40500
16161107;-0.41500
16163884;-0.42000
16166662;-0.41000
16169440;-0.39500
16172218;-0.39500
16174995;-0.40500
16177773;-0.42000
16180551;-0.42500
16183329;-0.41500
16186107;-0.41000
16188884;-0.42000
16191662;-0.42000
16194440;-0.44500
16197218;-0.44000
16199995;-0.44000
16202773;-0.43000
16205551;-0.43000
16208329;-0.44500
16211107;-0.45500
16213884;-0.45000
16216662;-0.44500
16219440;-0.42500
16222218;-0.42500
16224995;-0.44000
16227773;-0.45500
16230551;-0.44500
16233329;-0.44500
16236107;-0.43500
16238884;-0.43500
16241662;-0.44500
16244440;-0.44500
16247218;-0.44000
16249995;-0.42500
16252773;-0.41000
16255551;-0.41000
16258329;-0.40500
16261107;-0.40500
16263884;-0.39500
16266662;-0.37500
16269440;-0.36500
16272218;-0.37000
16274995;-0.36500
16277773;-0.37000
16280551;-0.36500
16283329;-0.34500
16286107;-0.34000
16288884;-0.34000
16291662;-0.34500
16294440;-0.35000
16297218;-0.35000
16299995;-0.33000
16302773;-0.31500
16305551;-0.31500
16308329;-0.32000
16311107;-0.34500
16313884;-0.33500
16316662;-0.32000
16319440;-0.31500
16322218;-0.30000
16324995;-0.32000
16327773;-0.34500
16330551;-0.34500
16333329;-0.33000
16336107;-0.33500
16338884;-0.33500
16341662;-0.34500
16344440;-0.36000
16347218;-0.35000
16349995;-0.34000
16352773;-0.33000
16355551;-0.34500
16358329;-0.37000
16361107;-0.38000
16363884;-0.37500
16366662;-0.36500
16369440;-0.36500
16372218;-0.36000
16374995;-0.37500
16377773;-0.38000
16380551;-0.37000
16383329;-0.35000
16386107;-0.36500
16388884;-0.35000
16391662;-0.36000
16394440;-0.37500
16397218;-0.37500
16399995;-0.38500
16402773;-0.37000
16405551;-0.35500
16408329;-0.36500
16411107;-0.39000
16413884;-0.39000
16416662;-0.38000
16419440;-0.38500
16422218;-0.38500
16424995;-0.39500
16427773;-0.42000
16430551;-0.41000
16433329;-0.40000
16436107;-0.39500
16438884;-0.39500
16441662;-0.41000
16444440;-0.42000
16447218;-0.41000
16449995;-0.42000
16452773;-0.39500
16455551;-0.40000
16458329;-0.41500
16461107;-0.41000
16463884;-0.41000
16466662;-0.39500
16469440;-0.39500
16472218;-0.39500
16474995;-0.40000
16477773;-0.43000
16480551;-0.42500
16483329;-0.42000
16486106;-0.40000
16488884;-0.41000
16491662;-0.41500
16494440;-0.43000
16497218;-0.43000
16499995;-0.41500
16502773;-0.41500
16505551;-0.40500
16508329;-0.41500
16511106;-0.41500
16513884;-0.42000
16516662;-0.40500
16519440;-0.41500
16522218;-0.42500
16524995;-0.42500
16527773;-0.44000
16530551;-0.42000
16533329;-0.41000
16536106;-0.39500
16538884;-0.38500
16541662;-0.39000
16544440;-0.39500
16547218;-0.38500
16549995;-0.38000
16552773;-0.36000
16555551;-0.35500
16558329;-0.34500
16561106;-0.36500
16563884;-0.35500
16566662;-0.34500
16569440;-0.34500
16572218;-0.32000
16574995;-0.33000
16577773;-0.33500
16580551;-0.33500
16583329;-0.33500
16586106;-0.32000
16588884;-0.31000
16591662;-0.32000
16594440;-0.33000
16597218;-0.32000
16599995;-0.31500
16602773;-0.31000
16605551;-0.31000
16608329;-0.33000
16611106;-0.35000
16613884;-0.35000
16616662;-0.35500
16619440;-0.33500
16622218;-0.32500
16624995;-0.33500
16627773;-0.34500
16630551;-0.34000
16633329;-0.32000
16636106;-0.30500
16638884;-0.32000
16641662;-0.35000
16644440;-0.37000
16647218;-0.39000
16649995;-0.40000
16652773;-0.42500
16655551;-0.44000
16658329;-0.45000
16661106;-0.46500
16663884;-0.47000
16666662;-0.47500
16669440;-0.46000
16672218;-0.45500
16674995;-0.45000
16677773;-0.45500
16680551;-0.44500
16683329;-0.43000
16686106;-0.44500
16688884;-0.44000
16691662;-0.45000
16694440;-0.46500
16697218;-0.47000
16699995;-0.45500
16702773;-0.44500
16705551;-0.45000
16708329;-0.46000
16711106;-0.47000
16713884;-0.48000
16716662;-0.46500
16719440;-0.45500
16722218;-0.47000
16724995;-0.49500
16727773;-0.53500
16730551;-0.56000
16733329;-0.56000
16736106;-0.57500
16738884;-0.63500
16741662;-0.68500
16744440;-0.72000
16747218;-0.67500
16749995;-0.59000
16752773;-0.48500
16755551;-0.35500
16758329;-0.24500
16761106;-0.08000
16763884;0.13000
16766662;0.40000
16769440;0.63000
16772218;0.79500
16774995;0.86500
16777773;0.79500
16780551;0.54500
16783329;0.19000
16786106;-0.17500
16788884;-0.41500
16791662;-0.54000
16794440;-0.58500
16797218;-0.58000
16799995;-0.52500
16802773;-0.49000
16805551;-0.49000
16808329;-0.50000
16811106;-0.52500
16813884;-0.52500
16816662;-0.50500
16819440;-0.48500
16822218;-0.48000
16824995;-0.49000
16827773;-0.50500
16830551;-0.50500
16833329;-0.50500
16836106;-0.48500
16838884;-0.49500
16841662;-0.50500
16844440;-0.52500
16847218;-0.52000
16849995;-0.51500
16852773;-0.50500
16855551;-0.50000
16858329;-0.49500
16861106;-0.50000
16863884;-0.49000
16866662;-0.48000
16869440;-0.49000
16872217;-0.49500
16874995;-0.50000
16877773;-0.51500
16880551;-0.51500
16883329;-0.51000
16886106;-0.50500
16888884;-0.52000
16891662;-0.52500
16894440;-0.53000
16897217;-0.52000
16899995;-0.51000
16902773;-0.51500
16905551;-0.50000
16908329;-0.50500
16911106;-0.51500
16913884;-0.52000
16916662;-0.51000
16919440;-0.50500
16922217;-0.51000
16924995;-0.52000
16927773;-0.53500
16930551;-0.53000
16933329;-0.52500
16936106;-0.53000
