time_ms;ecg_value
0;1.02000
2778;1.17000
5556;1.19500
8333;1.07000
11111;0.75000
13889;0.31000
16667;-0.13000
19444;-0.38000
22222;-0.45500
25000;-0.41500
27778;-0.34500
30556;-0.32000
33333;-0.32000
36111;-0.33500
38889;-0.34500
41667;-0.35500
44444;-0.35500
47222;-0.34000
50000;-0.35000
52778;-0.36500
55556;-0.36500
58333;-0.37500
61111;-0.37000
63889;-0.36500
66667;-0.36000
69444;-0.37000
72222;-0.38000
75000;-0.38500
77778;-0.37500
80556;-0.36000
83333;-0.36000
86111;-0.36500
88889;-0.37000
91667;-0.38500
94444;-0.38000
97222;-0.36000
100000;-0.37000
102778;-0.37000
105556;-0.37500
108333;-0.37500
111111;-0.36500
113889;-0.36000
116667;-0.36500
119444;-0.38000
122222;-0.38500
125000;-0.37500
127778;-0.37000
130556;-0.36000
133333;-0.36500
136111;-0.36500
138889;-0.37000
141667;-0.37500
144444;-0.37000
147222;-0.38000
150000;-0.38000
152778;-0.38000
155556;-0.38500
158333;-0.39000
161111;-0.38000
163889;-0.37000
166667;-0.36500
169444;-0.36000
172222;-0.37000
175000;-0.36000
177778;-0.35500
180556;-0.35000
183333;-0.35000
186111;-0.36500
188889;-0.37500
191667;-0.37500
194444;-0.38000
197222;-0.37500
200000;-0.37000
202778;-0.37000
205555;-0.38000
208333;-0.38500
211111;-0.37500
213889;-0.37500
216667;-0.37000
219444;-0.38500
222222;-0.39000
225000;-0.38500
227778;-0.38000
230555;-0.36500
233333;-0.37500
236111;-0.38000
238889;-0.38500
241667;-0.39000
244444;-0.39000
247222;-0.38000
250000;-0.38500
252778;-0.38500
255555;-0.39500
258333;-0.39500
261111;-0.39000
263889;-0.37500
266667;-0.38500
269444;-0.37000
272222;-0.37500
275000;-0.37500
277778;-0.38000
280555;-0.36500
283333;-0.35500
286111;-0.37000
288889;-0.38000
291667;-0.37000
294444;-0.35000
297222;-0.34000
300000;-0.31500
302778;-0.31500
305555;-0.31500
308333;-0.31000
311111;-0.29500
313889;-0.28000
316667;-0.28500
319444;-0.28000
322222;-0.28000
325000;-0.27000
327778;-0.25500
330555;-0.25000
333333;-0.24000
336111;-0.25000
338889;-0.25500
341667;-0.25500
344444;-0.25000
347222;-0.24000
350000;-0.24000
352778;-0.23500
355555;-0.25500
358333;-0.25000
361111;-0.25000
363889;-0.24000
366667;-0.25000
369444;-0.24500
372222;-0.25000
375000;-0.25500
377778;-0.24000
380555;-0.25000
383333;-0.24500
386111;-0.23500
388889;-0.26000
391667;-0.26000
394444;-0.25000
397222;-0.24500
400000;-0.25500
402778;-0.24500
405555;-0.25500
408333;-0.26500
411111;-0.26000
413889;-0.25000
416667;-0.25500
419444;-0.26000
422222;-0.26000
425000;-0.28500
427778;-0.27500
430555;-0.27500
433333;-0.25000
436111;-0.27500
438889;-0.28000
441667;-0.29500
444444;-0.28500
447222;-0.28000
450000;-0.28000
452778;-0.28500
455555;-0.29500
458333;-0.31000
461111;-0.30000
463889;-0.29500
466667;-0.29500
469444;-0.29000
472222;-0.29500
475000;-0.30500
477778;-0.28500
480555;-0.29000
483333;-0.28500
486111;-0.28500
488889;-0.30500
491667;-0.31000
494444;-0.30500
497222;-0.30000
500000;-0.29500
502778;-0.30000
505555;-0.32000
508333;-0.31500
511111;-0.31000
513889;-0.29500
516667;-0.29000
519444;-0.30000
522222;-0.31000
525000;-0.31000
527778;-0.30000
530555;-0.29500
533333;-0.28500
536111;-0.29500
538889;-0.30000
541667;-0.30500
544444;-0.29500
547222;-0.28500
550000;-0.28500
552778;-0.29500
555555;-0.29500
558333;-0.31000
561111;-0.28000
563889;-0.28000
566667;-0.28000
569444;-0.26500
572222;-0.27000
575000;-0.27000
577778;-0.26000
580555;-0.24000
583333;-0.23000
586111;-0.23000
588889;-0.23000
591667;-0.22500
594444;-0.21000
597222;-0.21500
600000;-0.20000
602778;-0.18500
605555;-0.18500
608333;-0.18000
611111;-0.17000
613889;-0.15500
616666;-0.16000
619444;-0.16000
622222;-0.16000
625000;-0.17000
627778;-0.17500
630555;-0.18500
633333;-0.18000
636111;-0.17000
638889;-0.17500
641666;-0.17500
644444;-0.17500
647222;-0.15000
650000;-0.14000
652778;-0.12500
655555;-0.14500
658333;-0.18500
661111;-0.21500
663889;-0.23000
666666;-0.23000
669444;-0.23500
672222;-0.26500
675000;-0.28500
677778;-0.30000
680555;-0.29500
683333;-0.30000
686111;-0.30000
688889;-0.31500
691666;-0.31000
694444;-0.30500
697222;-0.29500
700000;-0.29500
702778;-0.30000
705555;-0.31500
708333;-0.32500
711111;-0.32000
713889;-0.32000
716666;-0.31500
719444;-0.31500
722222;-0.32500
725000;-0.33000
727778;-0.31500
730555;-0.31000
733333;-0.30500
736111;-0.31500
738889;-0.32000
741666;-0.32500
744444;-0.32000
747222;-0.31000
750000;-0.31000
752778;-0.30500
755555;-0.34000
758333;-0.36000
761111;-0.38000
763889;-0.41500
766666;-0.43500
769444;-0.46000
772222;-0.50000
775000;-0.53000
777778;-0.53500
780555;-0.46500
783333;-0.33000
786111;-0.17000
788889;-0.01000
791666;0.20000
794444;0.47000
797222;0.75000
800000;0.98500
802778;1.08500
805555;1.06500
808333;0.84000
811111;0.43500
813889;-0.01500
816666;-0.32000
819444;-0.45500
822222;-0.44500
825000;-0.40000
827778;-0.36500
830555;-0.35000
833333;-0.36000
836111;-0.37000
838889;-0.37000
841666;-0.36500
844444;-0.37000
847222;-0.35500
850000;-0.37000
852778;-0.37000
855555;-0.38500
858333;-0.38000
861111;-0.37500
863889;-0.37500
866666;-0.36500
869444;-0.38000
872222;-0.38500
875000;-0.40000
877778;-0.38000
880555;-0.37500
883333;-0.36000
886111;-0.36500
888889;-0.37500
891666;-0.39000
894444;-0.37500
897222;-0.37500
900000;-0.37500
902778;-0.38500
905555;-0.39500
908333;-0.39000
911111;-0.39000
913889;-0.38000
916666;-0.36000
919444;-0.37500
922222;-0.38000
925000;-0.38000
927778;-0.37500
930555;-0.38000
933333;-0.36500
936111;-0.37500
938889;-0.38500
941666;-0.38500
944444;-0.38000
947222;-0.37500
950000;-0.37500
952778;-0.39000
955555;-0.38500
958333;-0.39000
961111;-0.38000
963889;-0.37500
966666;-0.37000
969444;-0.38000
972222;-0.39000
975000;-0.39500
977778;-0.39000
980555;-0.37500
983333;-0.38000
986111;-0.38000
988889;-0.37000
991666;-0.38000
994444;-0.37500
997222;-0.35000
1000000;-0.34000
1002777;-0.35000
1005555;-0.36000
1008333;-0.37000
1011111;-0.37500
1013889;-0.36000
1016666;-0.35000
1019444;-0.37000
1022222;-0.38000
1025000;-0.38000
1027777;-0.37000
1030555;-0.36500
1033333;-0.36000
1036111;-0.36500
1038889;-0.37500
1041666;-0.40500
1044444;-0.39500
1047222;-0.37500
1050000;-0.38500
1052777;-0.38000
1055555;-0.41000
1058333;-0.40500
1061111;-0.40000
1063889;-0.38500
1066666;-0.38500
1069444;-0.38500
1072222;-0.40000
1075000;-0.40000
1077777;-0.40000
1080555;-0.38000
1083333;-0.38500
1086111;-0.39000
1088889;-0.37000
1091666;-0.36000
1094444;-0.35500
1097222;-0.33000
1100000;-0.33000
1102777;-0.32500
1105555;-0.33000
1108333;-0.33000
1111111;-0.31000
1113889;-0.28500
1116666;-0.28000
1119444;-0.28000
1122222;-0.29000
1125000;-0.29500
1127777;-0.28000
1130555;-0.27000
1133333;-0.27500
1136111;-0.26000
1138889;-0.27000
1141666;-0.28500
1144444;-0.28500
1147222;-0.27500
1150000;-0.28500
1152777;-0.28500
1155555;-0.26500
1158333;-0.25000
1161111;-0.24000
1163889;-0.23500
1166666;-0.23000
1169444;-0.25000
1172222;-0.26000
1175000;-0.27000
1177777;-0.26000
1180555;-0.25000
1183333;-0.24000
1186111;-0.26000
1188889;-0.26000
1191666;-0.27000
1194444;-0.27000
1197222;-0.27000
1200000;-0.26500
1202777;-0.28500
1205555;-0.29500
1208333;-0.31000
1211111;-0.29500
1213889;-0.28500
1216666;-0.27500
1219444;-0.28000
1222222;-0.28500
1225000;-0.29000
1227777;-0.27000
1230555;-0.26000
1233333;-0.26500
1236111;-0.28000
1238889;-0.28500
1241666;-0.30500
1244444;-0.29000
1247222;-0.28000
1250000;-0.27000
1252777;-0.28500
1255555;-0.29500
1258333;-0.30500
1261111;-0.30000
1263889;-0.29000
1266666;-0.30500
1269444;-0.30000
1272222;-0.31000
1275000;-0.30000
1277777;-0.31500
1280555;-0.32000
1283333;-0.31500
1286111;-0.32500
1288889;-0.32000
1291666;-0.32500
1294444;-0.32500
1297222;-0.31500
1300000;-0.31000
1302777;-0.31000
1305555;-0.31500
1308333;-0.32000
1311111;-0.31000
1313889;-0.31000
1316666;-0.30500
1319444;-0.31500
1322222;-0.31500
1325000;-0.31500
1327777;-0.30000
1330555;-0.30000
1333333;-0.30000
1336111;-0.30000
1338889;-0.31000
1341666;-0.32000
1344444;-0.31000
1347222;-0.31000
1350000;-0.30500
1352777;-0.32000
1355555;-0.34500
1358333;-0.33500
1361111;-0.33000
1363889;-0.32000
1366666;-0.32500
1369444;-0.33000
1372222;-0.34000
1375000;-0.34500
1377777;-0.32000
1380555;-0.32000
1383333;-0.30500
1386111;-0.31500
1388888;-0.32000
1391666;-0.33500
1394444;-0.32500
1397222;-0.31500
1400000;-0.32000
1402777;-0.32000
1405555;-0.32500
1408333;-0.32000
1411111;-0.31500
1413888;-0.29000
1416666;-0.27500
1419444;-0.26500
1422222;-0.28500
1425000;-0.27500
1427777;-0.25500
1430555;-0.23500
1433333;-0.22500
1436111;-0.22500
1438888;-0.22500
1441666;-0.23500
1444444;-0.22500
1447222;-0.21500
1450000;-0.20500
1452777;-0.19500
1455555;-0.20000
1458333;-0.22000
1461111;-0.21000
1463888;-0.20000
1466666;-0.20500
1469444;-0.20500
1472222;-0.23000
1475000;-0.25500
1477777;-0.24500
1480555;-0.23000
1483333;-0.21000
1486111;-0.20500
1488888;-0.20000
1491666;-0.21500
1494444;-0.20000
1497222;-0.17000
1500000;-0.16500
1502777;-0.19000
1505555;-0.23000
1508333;-0.26000
1511111;-0.26500
1513888;-0.26000
1516666;-0.27500
1519444;-0.31500
1522222;-0.33000
1525000;-0.35000
1527777;-0.35000
1530555;-0.34500
1533333;-0.34000
1536111;-0.34000
1538888;-0.34500
1541666;-0.35500
1544444;-0.35000
1547222;-0.33500
1550000;-0.34500
1552777;-0.34500
1555555;-0.36000
1558333;-0.37500
1561111;-0.37500
1563888;-0.36000
1566666;-0.34500
1569444;-0.36000
1572222;-0.36000
1575000;-0.36000
1577777;-0.36000
1580555;-0.35500
1583333;-0.35000
1586111;-0.35500
1588888;-0.37500
1591666;-0.38000
1594444;-0.39500
1597222;-0.40500
1600000;-0.42000
1602777;-0.46500
1605555;-0.48000
1608333;-0.53000
1611111;-0.57000
1613888;-0.58500
1616666;-0.51000
1619444;-0.44000
1622222;-0.34000
1625000;-0.24500
1627777;-0.15000
1630555;-0.02500
1633333;0.13500
1636111;0.35500
1638888;0.58500
1641666;0.79500
1644444;0.96500
1647222;1.04000
1650000;0.97500
1652777;0.72000
1655555;0.33500
1658333;-0.06500
1661111;-0.32500
1663888;-0.44000
1666666;-0.48500
1669444;-0.47000
1672222;-0.43500
1675000;-0.40500
1677777;-0.39500
1680555;-0.39000
1683333;-0.39000
1686111;-0.40000
1688888;-0.40500
1691666;-0.40000
1694444;-0.40500
1697222;-0.42000
1700000;-0.41000
1702777;-0.40500
1705555;-0.42500
1708333;-0.43500
1711111;-0.42000
1713888;-0.40000
1716666;-0.39000
1719444;-0.38500
1722222;-0.40000
1725000;-0.40500
1727777;-0.41000
1730555;-0.38500
1733333;-0.38000
1736111;-0.39500
1738888;-0.40500
1741666;-0.41000
1744444;-0.40500
1747222;-0.39000
1750000;-0.40000
1752777;-0.40500
1755555;-0.42000
1758333;-0.42000
1761111;-0.42000
1763888;-0.42000
1766666;-0.41500
1769444;-0.41500
1772222;-0.42500
1775000;-0.43000
1777777;-0.42000
1780555;-0.41000
1783333;-0.40500
1786111;-0.40500
1788888;-0.42500
1791666;-0.43500
1794444;-0.43500
1797222;-0.42000
1799999;-0.40000
1802777;-0.39000
1805555;-0.41000
1808333;-0.43000
1811111;-0.42000
1813888;-0.40500
1816666;-0.42500
1819444;-0.42500
1822222;-0.43500
1824999;-0.43500
1827777;-0.41500
1830555;-0.40500
1833333;-0.40500
1836111;-0.41500
1838888;-0.42500
1841666;-0.43000
1844444;-0.41000
1847222;-0.39500
1849999;-0.38500
1852777;-0.40500
1855555;-0.40500
1858333;-0.41500
1861111;-0.42500
1863888;-0.41000
1866666;-0.40500
1869444;-0.41000
1872222;-0.42500
1874999;-0.47000
1877777;-0.46000
1880555;-0.44500
1883333;-0.42000
1886111;-0.42500
1888888;-0.44000
1891666;-0.45500
1894444;-0.45500
1897222;-0.45500
1899999;-0.46000
1902777;-0.47000
1905555;-0.48000
1908333;-0.48500
1911111;-0.46500
1913888;-0.46500
1916666;-0.46500
1919444;-0.47500
1922222;-0.49000
1924999;-0.49000
1927777;-0.47500
1930555;-0.47000
1933333;-0.46500
1936111;-0.46000
1938888;-0.44000
1941666;-0.44500
1944444;-0.43000
1947222;-0.40000
1949999;-0.38500
1952777;-0.37500
1955555;-0.36000
1958333;-0.35000
1961111;-0.34000
1963888;-0.33500
1966666;-0.31500
1969444;-0.30500
1972222;-0.31000
1974999;-0.31000
1977777;-0.29500
1980555;-0.29000
1983333;-0.27500
1986111;-0.27500
1988888;-0.28500
1991666;-0.29000
1994444;-0.28000
1997222;-0.27000
1999999;-0.26500
2002777;-0.26500
2005555;-0.27500
2008333;-0.28000
2011111;-0.28000
2013888;-0.27000
2016666;-0.25500
2019444;-0.25500
2022222;-0.26500
2024999;-0.27000
2027777;-0.27500
2030555;-0.26500
2033333;-0.26500
2036111;-0.27000
2038888;-0.27500
2041666;-0.29000
2044444;-0.29000
2047222;-0.28000
2049999;-0.27500
2052777;-0.27500
2055555;-0.28000
2058333;-0.28500
2061111;-0.30000
2063888;-0.29000
2066666;-0.28500
2069444;-0.29000
2072222;-0.29500
2074999;-0.31000
2077777;-0.30500
2080555;-0.29500
2083333;-0.29000
2086111;-0.29000
2088888;-0.30000
2091666;-0.31500
2094444;-0.31500
2097222;-0.31500
2099999;-0.30000
2102777;-0.30000
2105555;-0.30500
2108333;-0.32000
2111111;-0.32000
2113888;-0.30000
2116666;-0.30000
2119444;-0.30500
2122222;-0.32000
2124999;-0.32500
2127777;-0.32500
2130555;-0.32000
2133333;-0.31000
2136111;-0.31000
2138888;-0.31000
2141666;-0.32000
2144444;-0.31000
2147222;-0.30000
2149999;-0.30500
2152777;-0.30500
2155555;-0.31000
2158333;-0.31000
2161111;-0.32000
2163888;-0.29500
2166666;-0.29000
2169444;-0.29500
2172222;-0.30000
2174999;-0.32000
2177777;-0.30500
2180555;-0.29500
2183333;-0.29500
2186110;-0.29000
2188888;-0.29000
2191666;-0.30500
2194444;-0.30000
2197222;-0.28500
2199999;-0.28000
2202777;-0.28500
2205555;-0.29000
2208333;-0.29500
2211110;-0.28500
2213888;-0.28000
2216666;-0.26000
2219444;-0.28000
2222222;-0.28000
2224999;-0.29500
2227777;-0.28500
2230555;-0.28000
2233333;-0.27000
2236110;-0.26500
2238888;-0.28500
2241666;-0.27500
2244444;-0.25500
2247222;-0.24500
2249999;-0.23000
2252777;-0.23000
2255555;-0.22500
2258333;-0.22000
2261110;-0.20000
2263888;-0.20000
2266666;-0.18000
2269444;-0.17500
2272222;-0.18000
2274999;-0.18500
2277777;-0.17000
2280555;-0.14500
2283333;-0.14000
2286110;-0.15500
2288888;-0.15500
2291666;-0.17500
2294444;-0.18000
2297222;-0.17000
2299999;-0.16000
2302777;-0.16000
2305555;-0.17000
2308333;-0.17500
2311110;-0.15500
2313888;-0.13000
2316666;-0.14000
2319444;-0.18500
2322222;-0.21000
2324999;-0.24500
2327777;-0.24500
2330555;-0.25500
2333333;-0.25500
2336110;-0.27000
2338888;-0.29500
2341666;-0.30000
2344444;-0.30500
2347222;-0.27500
2349999;-0.27500
2352777;-0.28500
2355555;-0.30500
2358333;-0.31500
2361110;-0.31000
2363888;-0.30500
2366666;-0.30000
2369444;-0.30500
2372222;-0.31000
2374999;-0.31500
2377777;-0.31000
2380555;-0.30000
2383333;-0.29000
2386110;-0.29500
2388888;-0.29500
2391666;-0.30500
2394444;-0.30000
2397222;-0.30000
2399999;-0.29500
2402777;-0.29500
2405555;-0.31000
2408333;-0.32500
2411110;-0.31500
2413888;-0.33500
2416666;-0.36500
2419444;-0.41500
2422222;-0.44000
2424999;-0.47000
2427777;-0.49000
2430555;-0.49500
2433333;-0.43000
2436110;-0.28500
2438888;-0.12500
2441666;0.06500
2444444;0.31000
2447222;0.61000
2449999;0.90000
2452777;1.11500
2455555;1.18500
2458333;1.07500
2461110;0.73500
2463888;0.24000
2466666;-0.20500
2469444;-0.42000
2472222;-0.46500
2474999;-0.41500
2477777;-0.36000
2480555;-0.32500
2483333;-0.32000
2486110;-0.33000
2488888;-0.35000
2491666;-0.36500
2494444;-0.34500
2497222;-0.34000
2499999;-0.33500
2502777;-0.34500
2505555;-0.35500
2508333;-0.36000
2511110;-0.36000
2513888;-0.35000
2516666;-0.33500
2519444;-0.34000
2522222;-0.36000
2524999;-0.36500
2527777;-0.36500
2530555;-0.35000
2533333;-0.36000
2536110;-0.36000
2538888;-0.36500
2541666;-0.38000
2544444;-0.36500
2547222;-0.35500
2549999;-0.35000
2552777;-0.36000
2555555;-0.36500
2558333;-0.37000
2561110;-0.36000
2563888;-0.34000
2566666;-0.34500
2569444;-0.34000
2572222;-0.37000
2574999;-0.37000
2577777;-0.36000
2580555;-0.35500
2583333;-0.35000
2586110;-0.36000
2588888;-0.36500
2591666;-0.37500
2594444;-0.36500
2597221;-0.35500
2599999;-0.34500
2602777;-0.35000
2605555;-0.36000
2608333;-0.37000
2611110;-0.36500
2613888;-0.36000
2616666;-0.36500
2619444;-0.36000
2622221;-0.37000
2624999;-0.38500
2627777;-0.36500
2630555;-0.36500
2633333;-0.36000
2636110;-0.36000
2638888;-0.36000
2641666;-0.36500
2644444;-0.36000
2647221;-0.35500
2649999;-0.35500
2652777;-0.35000
2655555;-0.35500
2658333;-0.37000
2661110;-0.36000
2663888;-0.36500
2666666;-0.35500
2669444;-0.36500
2672221;-0.37500
2674999;-0.37500
2677777;-0.38000
2680555;-0.37500
2683333;-0.37500
2686110;-0.37000
2688888;-0.38500
2691666;-0.39000
2694444;-0.39000
2697221;-0.38000
2699999;-0.38500
2702777;-0.40000
2705555;-0.39500
2708333;-0.40500
2711110;-0.40500
2713888;-0.39000
2716666;-0.37500
2719444;-0.38500
2722221;-0.37000
2724999;-0.38500
2727777;-0.38000
2730555;-0.36000
2733333;-0.35000
2736110;-0.34000
2738888;-0.33500
2741666;-0.35000
2744444;-0.34000
2747221;-0.32000
2749999;-0.31000
2752777;-0.31000
2755555;-0.30000
2758333;-0.29000
2761110;-0.27500
2763888;-0.26000
2766666;-0.23500
2769444;-0.23500
2772221;-0.23500
2774999;-0.22500
2777777;-0.22500
2780555;-0.21500
2783333;-0.20000
2786110;-0.19500
2788888;-0.21000
2791666;-0.21000
2794444;-0.21500
2797221;-0.19500
2799999;-0.18500
2802777;-0.19000
2805555;-0.20000
2808333;-0.22500
2811110;-0.20000
2813888;-0.20000
2816666;-0.18000
2819444;-0.19000
2822221;-0.20000
2824999;-0.20500
2827777;-0.21500
2830555;-0.20500
2833333;-0.19500
2836110;-0.19500
2838888;-0.20500
2841666;-0.21000
2844444;-0.20000
2847221;-0.20000
2849999;-0.19000
2852777;-0.20000
2855555;-0.21500
2858333;-0.22000
2861110;-0.21000
2863888;-0.21000
2866666;-0.20500
2869444;-0.21000
2872221;-0.21000
2874999;-0.23500
2877777;-0.22500
2880555;-0.21500
2883333;-0.21500
2886110;-0.23000
2888888;-0.23000
2891666;-0.24500
2894444;-0.24000
2897221;-0.22500
2899999;-0.22000
2902777;-0.21500
2905555;-0.23000
2908333;-0.23500
2911110;-0.23000
2913888;-0.22000
2916666;-0.22000
2919444;-0.22500
2922221;-0.22500
2924999;-0.24000
2927777;-0.23500
2930555;-0.23000
2933333;-0.23000
2936110;-0.22500
2938888;-0.24000
2941666;-0.24500
2944444;-0.23500
2947221;-0.23000
2949999;-0.21000
2952777;-0.22000
2955555;-0.22500
2958333;-0.24000
2961110;-0.23000
2963888;-0.22500
2966666;-0.20500
2969444;-0.20000
2972221;-0.21000
2974999;-0.20500
2977777;-0.19000
2980555;-0.18000
2983332;-0.15500
2986110;-0.15500
2988888;-0.15000
2991666;-0.15500
2994444;-0.14500
2997221;-0.13500
2999999;-0.11500
3002777;-0.11500
3005555;-0.13500
3008332;-0.11000
3011110;-0.10000
3013888;-0.10000
3016666;-0.10000
3019444;-0.12000
3022221;-0.13000
3024999;-0.15000
3027777;-0.14000
3030555;-0.11500
3033332;-0.11000
3036110;-0.10000
3038888;-0.09000
3041666;-0.08000
3044444;-0.06000
3047221;-0.07500
3049999;-0.12000
3052777;-0.15500
3055555;-0.16000
3058332;-0.18500
3061110;-0.19000
3063888;-0.21500
3066666;-0.21500
3069444;-0.23500
3072221;-0.25500
3074999;-0.26000
3077777;-0.25000
3080555;-0.25000
3083332;-0.24000
3086110;-0.24500
3088888;-0.25000
3091666;-0.27500
3094444;-0.25000
3097221;-0.25500
3099999;-0.25500
3102777;-0.25000
3105555;-0.27000
3108332;-0.26500
3111110;-0.27000
3113888;-0.26000
3116666;-0.26500
3119444;-0.26500
3122221;-0.26500
3124999;-0.28000
3127777;-0.28500
3130555;-0.29000
3133332;-0.31000
3136110;-0.34000
3138888;-0.40000
3141666;-0.42500
3144444;-0.46000
3147221;-0.49500
3149999;-0.47000
3152777;-0.37000
3155555;-0.21500
3158332;-0.09500
3161110;0.02000
3163888;0.14500
3166666;0.33000
3169444;0.60500
3172221;0.90500
3174999;1.13000
3177777;1.25500
3180555;1.23000
3183332;0.98000
3186110;0.49000
3188888;-0.00500
3191666;-0.32000
3194444;-0.42500
3197221;-0.38500
3199999;-0.32000
3202777;-0.29000
3205555;-0.29500
3208332;-0.31500
3211110;-0.31000
3213888;-0.30000
3216666;-0.30500
3219444;-0.30500
3222221;-0.32500
3224999;-0.34000
3227777;-0.33000
3230555;-0.32500
3233332;-0.31000
3236110;-0.31500
3238888;-0.31500
3241666;-0.33000
3244444;-0.33000
3247221;-0.30500
3249999;-0.31000
3252777;-0.31000
3255555;-0.31500
3258332;-0.33500
3261110;-0.32000
3263888;-0.31000
3266666;-0.30500
3269444;-0.31000
3272221;-0.32000
3274999;-0.33500
3277777;-0.32000
3280555;-0.32000
3283332;-0.30500
3286110;-0.31500
3288888;-0.33000
3291666;-0.33000
3294444;-0.33000
3297221;-0.32000
3299999;-0.31500
3302777;-0.31500
3305555;-0.32000
3308332;-0.32000
3311110;-0.32500
3313888;-0.31500
3316666;-0.30500
3319444;-0.31000
3322221;-0.32000
3324999;-0.33000
3327777;-0.33000
3330555;-0.32500
3333332;-0.32000
3336110;-0.31000
3338888;-0.32500
3341666;-0.31500
3344444;-0.32000
3347221;-0.30000
3349999;-0.31000
3352777;-0.31500
3355555;-0.31500
3358332;-0.32500
3361110;-0.31500
3363888;-0.30000
3366666;-0.31500
3369444;-0.31500
3372221;-0.32500
3374999;-0.32500
3377777;-0.32000
3380555;-0.31500
3383332;-0.31500
3386110;-0.32000
3388888;-0.32500
3391666;-0.33000
3394443;-0.33500
3397221;-0.32500
3399999;-0.32500
3402777;-0.32500
3405555;-0.34000
3408332;-0.34500
3411110;-0.34000
3413888;-0.33000
3416666;-0.32500
3419443;-0.33500
3422221;-0.34000
3424999;-0.34500
3427777;-0.34000
3430555;-0.33000
3433332;-0.31500
3436110;-0.32000
3438888;-0.32000
3441666;-0.33500
3444443;-0.31500
3447221;-0.31000
3449999;-0.29000
3452777;-0.28000
3455555;-0.28000
3458332;-0.27000
3461110;-0.26000
3463888;-0.24500
3466666;-0.23000
3469443;-0.22000
3472221;-0.22500
3474999;-0.23000
3477777;-0.21000
3480555;-0.20500
3483332;-0.20000
3486110;-0.20000
3488888;-0.20000
3491666;-0.20000
3494443;-0.19500
3497221;-0.18000
3499999;-0.17000
3502777;-0.18500
3505555;-0.18000
3508332;-0.19500
3511110;-0.18500
3513888;-0.18000
3516666;-0.18000
3519443;-0.18000
3522221;-0.19000
3524999;-0.20000
3527777;-0.19500
3530555;-0.18000
3533332;-0.18000
3536110;-0.18500
3538888;-0.19000
3541666;-0.20500
3544443;-0.20000
3547221;-0.19000
3549999;-0.17000
3552777;-0.19000
3555555;-0.20500
3558332;-0.20500
3561110;-0.20500
3563888;-0.20000
3566666;-0.21000
3569443;-0.21000
3572221;-0.21000
3574999;-0.21500
3577777;-0.21500
3580555;-0.20500
3583332;-0.21000
3586110;-0.21000
3588888;-0.21500
3591666;-0.23000
3594443;-0.23000
3597221;-0.20500
3599999;-0.20500
3602777;-0.21500
3605555;-0.23000
3608332;-0.24500
3611110;-0.23000
3613888;-0.22500
3616666;-0.23000
3619443;-0.21500
3622221;-0.24000
3624999;-0.23500
3627777;-0.24000
3630555;-0.24000
3633332;-0.24500
3636110;-0.23000
3638888;-0.23500
3641666;-0.26000
3644443;-0.24500
3647221;-0.25000
3649999;-0.24000
3652777;-0.24000
3655555;-0.24500
3658332;-0.25500
3661110;-0.24500
3663888;-0.24500
3666666;-0.23500
3669443;-0.23500
3672221;-0.24500
3674999;-0.24500
3677777;-0.24000
3680555;-0.24000
3683332;-0.23000
3686110;-0.24500
3688888;-0.24000
3691666;-0.24000
3694443;-0.25000
3697221;-0.23500
3699999;-0.24000
3702777;-0.23500
3705555;-0.23500
3708332;-0.24000
3711110;-0.21500
3713888;-0.21000
3716666;-0.19500
3719443;-0.17500
3722221;-0.17500
3724999;-0.18000
3727777;-0.17000
3730555;-0.14500
3733332;-0.15500
3736110;-0.16000
3738888;-0.16500
3741666;-0.15500
3744443;-0.14000
3747221;-0.13000
3749999;-0.12500
3752777;-0.11500
3755555;-0.11500
3758332;-0.13000
3761110;-0.12000
3763888;-0.11500
3766666;-0.12500
3769443;-0.14000
3772221;-0.14500
3774999;-0.15000
3777777;-0.13000
3780554;-0.12000
3783332;-0.10500
3786110;-0.08500
3788888;-0.08500
3791666;-0.10000
3794443;-0.13000
3797221;-0.16000
3799999;-0.17500
3802777;-0.19500
3805554;-0.20500
3808332;-0.23500
3811110;-0.24500
3813888;-0.25000
3816666;-0.24000
3819443;-0.24000
3822221;-0.25000
3824999;-0.26000
3827777;-0.26000
3830554;-0.25500
3833332;-0.25500
3836110;-0.26000
3838888;-0.26000
3841666;-0.27000
3844443;-0.27000
3847221;-0.26500
3849999;-0.26000
3852777;-0.26500
3855554;-0.27000
3858332;-0.28000
3861110;-0.28500
3863888;-0.28000
3866666;-0.26500
3869443;-0.27000
3872221;-0.28500
3874999;-0.29500
3877777;-0.29500
3880554;-0.28500
3883332;-0.28500
3886110;-0.30000
3888888;-0.34500
3891666;-0.39500
3894443;-0.42000
3897221;-0.44000
3899999;-0.46500
3902777;-0.47500
3905554;-0.42500
3908332;-0.29000
3911110;-0.11000
3913888;0.08500
3916666;0.31500
3919443;0.61500
3922221;0.88000
3924999;1.08500
3927777;1.14000
3930554;1.02500
3933332;0.67000
3936110;0.17500
3938888;-0.23500
3941666;-0.42000
3944443;-0.42000
3947221;-0.35000
3949999;-0.31000
3952777;-0.29500
3955554;-0.30500
3958332;-0.31500
3961110;-0.32000
3963888;-0.31000
3966666;-0.30000
3969443;-0.30500
3972221;-0.31500
3974999;-0.33000
3977777;-0.32000
3980554;-0.31500
3983332;-0.31000
3986110;-0.32000
3988888;-0.32500
3991666;-0.33500
3994443;-0.33000
3997221;-0.33000
3999999;-0.31000
4002777;-0.31500
4005554;-0.32500
4008332;-0.33500
4011110;-0.33000
4013888;-0.32000
4016666;-0.31500
4019443;-0.31000
4022221;-0.32500
4024999;-0.34500
4027777;-0.32500
4030554;-0.32000
4033332;-0.31000
4036110;-0.32000
4038888;-0.32500
4041666;-0.33000
4044443;-0.32000
4047221;-0.32000
4049999;-0.31000
4052777;-0.30500
4055554;-0.31500
4058332;-0.33000
4061110;-0.33500
4063888;-0.32000
4066666;-0.32000
4069443;-0.31000
4072221;-0.32000
4074999;-0.31000
4077777;-0.31500
4080554;-0.31500
4083332;-0.30000
4086110;-0.31500
4088888;-0.33000
4091666;-0.34000
4094443;-0.34000
4097221;-0.33000
4099999;-0.32000
4102777;-0.31500
4105554;-0.32500
4108332;-0.34000
4111110;-0.33000
4113888;-0.32500
4116666;-0.32500
4119443;-0.33000
4122221;-0.32000
4124999;-0.33000
4127777;-0.32500
4130554;-0.32000
4133332;-0.32000
4136110;-0.34000
4138888;-0.34000
4141666;-0.35000
4144443;-0.34000
4147221;-0.33000
4149999;-0.32500
4152777;-0.32000
4155554;-0.33500
4158332;-0.34500
4161110;-0.34000
4163888;-0.32500
4166666;-0.32500
4169443;-0.34500
4172221;-0.33500
4174999;-0.35000
4177777;-0.36000
4180554;-0.35000
4183332;-0.34000
4186110;-0.34000
4188888;-0.35500
4191665;-0.36000
4194443;-0.35500
4197221;-0.34500
4199999;-0.32500
4202777;-0.34000
4205554;-0.33500
4208332;-0.33500
4211110;-0.31500
4213888;-0.30500
4216665;-0.29000
4219443;-0.28000
4222221;-0.26500
4224999;-0.25500
4227777;-0.25500
4230554;-0.24500
4233332;-0.21500
4236110;-0.22500
4238888;-0.22500
4241665;-0.23500
4244443;-0.22000
4247221;-0.22000
4249999;-0.21500
4252777;-0.21500
4255554;-0.22000
4258332;-0.23500
4261110;-0.23000
4263888;-0.22500
4266665;-0.20500
4269443;-0.21000
4272221;-0.22500
4274999;-0.23500
4277777;-0.23000
4280554;-0.21500
4283332;-0.20000
4286110;-0.21500
4288888;-0.22000
4291665;-0.24000
4294443;-0.23000
4297221;-0.22000
4299999;-0.22000
4302777;-0.22000
4305554;-0.23000
4308332;-0.23000
4311110;-0.23000
4313888;-0.21000
4316665;-0.22500
4319443;-0.22000
4322221;-0.23000
4324999;-0.24000
4327777;-0.24000
4330554;-0.24000
4333332;-0.24000
4336110;-0.23500
4338888;-0.24000
4341665;-0.25000
4344443;-0.26000
4347221;-0.25500
4349999;-0.24000
4352777;-0.25000
4355554;-0.27000
4358332;-0.26500
4361110;-0.27000
4363888;-0.25000
4366665;-0.24500
4369443;-0.26000
4372221;-0.27000
4374999;-0.28000
4377777;-0.27000
4380554;-0.26500
4383332;-0.26000
4386110;-0.26500
4388888;-0.27000
4391665;-0.29500
4394443;-0.29000
4397221;-0.29500
4399999;-0.28500
4402777;-0.29000
4405554;-0.29500
4408332;-0.31000
4411110;-0.30500
4413888;-0.29000
4416665;-0.27000
4419443;-0.27000
4422221;-0.28000
4424999;-0.30000
4427777;-0.28500
4430554;-0.27500
4433332;-0.26000
4436110;-0.27000
4438888;-0.28000
4441665;-0.31000
4444443;-0.30500
4447221;-0.28000
4449999;-0.28000
4452777;-0.28000
4455554;-0.27500
4458332;-0.30000
4461110;-0.29500
4463888;-0.29000
4466665;-0.28000
4469443;-0.27500
4472221;-0.29500
4474999;-0.30500
4477777;-0.29500
4480554;-0.29000
4483332;-0.27500
4486110;-0.27500
4488888;-0.29000
4491665;-0.30500
4494443;-0.30500
4497221;-0.28500
4499999;-0.29500
4502777;-0.29500
4505554;-0.29500
4508332;-0.29500
4511110;-0.29500
4513888;-0.28000
4516665;-0.26500
4519443;-0.24500
4522221;-0.25000
4524999;-0.26000
4527777;-0.25500
4530554;-0.24500
4533332;-0.21500
4536110;-0.20500
4538888;-0.21000
4541665;-0.21500
4544443;-0.21000
4547221;-0.20500
4549999;-0.19000
4552777;-0.19000
4555554;-0.19500
4558332;-0.19000
4561110;-0.19000
4563888;-0.18500
4566665;-0.18500
4569443;-0.19500
4572221;-0.20000
4574999;-0.19500
4577776;-0.19500
4580554;-0.17500
4583332;-0.16000
4586110;-0.16000
4588888;-0.16000
4591665;-0.18500
4594443;-0.21000
4597221;-0.22500
4599999;-0.23500
4602776;-0.24500
4605554;-0.27500
4608332;-0.30000
4611110;-0.30000
4613888;-0.30000
4616665;-0.30000
4619443;-0.30500
4622221;-0.31000
4624999;-0.31000
4627776;-0.31000
4630554;-0.31500
4633332;-0.31000
4636110;-0.32500
4638888;-0.32500
4641665;-0.34500
4644443;-0.34500
4647221;-0.32500
4649999;-0.32000
4652776;-0.32000
4655554;-0.32500
4658332;-0.34500
4661110;-0.34500
4663888;-0.33000
4666665;-0.33500
4669443;-0.34000
4672221;-0.35000
4674999;-0.36000
4677776;-0.36000
4680554;-0.34000
4683332;-0.33500
4686110;-0.37000
4688888;-0.41500
4691665;-0.47000
4694443;-0.50000
4697221;-0.53000
4699999;-0.54500
4702776;-0.51000
4705554;-0.41000
4708332;-0.27500
4711110;-0.12000
4713888;0.08500
4716665;0.33000
4719443;0.63000
4722221;0.85000
4724999;0.99000
4727776;0.98500
4730554;0.78500
4733332;0.38500
4736110;-0.06000
4738888;-0.35500
4741665;-0.48500
4744443;-0.48000
4747221;-0.45000
4749999;-0.40000
4752776;-0.38000
4755554;-0.38000
4758332;-0.38000
4761110;-0.37500
4763888;-0.36000
4766665;-0.36500
4769443;-0.37500
4772221;-0.38500
4774999;-0.42000
4777776;-0.40000
4780554;-0.39000
4783332;-0.37500
4786110;-0.37500
4788888;-0.36500
4791665;-0.38500
4794443;-0.37500
4797221;-0.37500
4799999;-0.37000
4802776;-0.38500
4805554;-0.40000
4808332;-0.41500
4811110;-0.41000
4813888;-0.39000
4816665;-0.38500
4819443;-0.38500
4822221;-0.40000
4824999;-0.41500
4827776;-0.42000
4830554;-0.39000
4833332;-0.38000
4836110;-0.38000
4838888;-0.38000
4841665;-0.39500
4844443;-0.42000
4847221;-0.41000
4849999;-0.39500
4852776;-0.39500
4855554;-0.38500
4858332;-0.40000
4861110;-0.39500
4863888;-0.39000
4866665;-0.40000
4869443;-0.39500
4872221;-0.40500
4874999;-0.41500
4877776;-0.40500
4880554;-0.40500
4883332;-0.40000
4886110;-0.40000
4888888;-0.41000
4891665;-0.40500
4894443;-0.38500
4897221;-0.37000
4899999;-0.37000
4902776;-0.37000
4905554;-0.38500
4908332;-0.40000
4911110;-0.39500
4913888;-0.38500
4916665;-0.39000
4919443;-0.40000
4922221;-0.40500
4924999;-0.39500
4927776;-0.39000
4930554;-0.39000
4933332;-0.39000
4936110;-0.39500
4938888;-0.41000
4941665;-0.43500
4944443;-0.40000
4947221;-0.40500
4949999;-0.40000
4952776;-0.41000
4955554;-0.41000
4958332;-0.43500
4961110;-0.43000
4963887;-0.42000
4966665;-0.41500
4969443;-0.43500
4972221;-0.44500
4974999;-0.45000
4977776;-0.44500
4980554;-0.43500
4983332;-0.42500
4986110;-0.44500
4988887;-0.44500
4991665;-0.46000
4994443;-0.45000
4997221;-0.45500
4999999;-0.44500
5002776;-0.44000
5005554;-0.45000
5008332;-0.45500
5011110;-0.45000
5013887;-0.44000
5016665;-0.43000
5019443;-0.41000
5022221;-0.41500
5024999;-0.40500
5027776;-0.39000
5030554;-0.39500
5033332;-0.36500
5036110;-0.35000
5038887;-0.35500
5041665;-0.35000
5044443;-0.33000
5047221;-0.31000
5049999;-0.29500
5052776;-0.28000
5055554;-0.28500
5058332;-0.28500
5061110;-0.27500
5063887;-0.26000
5066665;-0.25000
5069443;-0.25000
5072221;-0.26000
5074999;-0.27500
5077776;-0.27000
5080554;-0.26000
5083332;-0.24000
5086110;-0.23500
5088887;-0.26000
5091665;-0.25000
5094443;-0.26000
5097221;-0.25500
5099999;-0.25500
5102776;-0.25000
5105554;-0.25000
5108332;-0.25000
5111110;-0.24500
5113887;-0.24500
5116665;-0.25000
5119443;-0.24000
5122221;-0.25500
5124999;-0.25500
5127776;-0.26000
5130554;-0.26000
5133332;-0.24500
5136110;-0.25000
5138887;-0.26000
5141665;-0.27000
5144443;-0.27000
5147221;-0.25500
5149999;-0.24500
5152776;-0.25000
5155554;-0.25500
5158332;-0.26500
5161110;-0.25000
5163887;-0.26000
5166665;-0.25500
5169443;-0.25500
5172221;-0.27000
5174999;-0.28000
5177776;-0.28500
5180554;-0.26500
5183332;-0.27000
5186110;-0.27000
5188887;-0.27500
5191665;-0.29500
5194443;-0.28500
5197221;-0.27500
5199999;-0.27500
5202776;-0.27000
5205554;-0.28000
5208332;-0.28500
5211110;-0.29000
5213887;-0.28000
5216665;-0.27000
5219443;-0.27000
5222221;-0.29000
5224999;-0.30000
5227776;-0.29000
5230554;-0.28000
5233332;-0.28500
5236110;-0.28500
5238887;-0.28500
5241665;-0.29500
5244443;-0.29000
5247221;-0.28500
5249999;-0.27500
5252776;-0.27500
5255554;-0.28000
5258332;-0.29000
5261110;-0.29500
5263887;-0.27500
5266665;-0.28000
5269443;-0.27500
5272221;-0.27500
5274999;-0.28000
5277776;-0.28500
5280554;-0.27000
5283332;-0.26000
5286110;-0.26500
5288887;-0.27500
5291665;-0.29000
5294443;-0.27500
5297221;-0.27500
5299999;-0.26000
5302776;-0.26500
5305554;-0.27000
5308332;-0.28000
5311110;-0.28000
5313887;-0.27500
5316665;-0.27500
5319443;-0.27000
5322221;-0.28500
5324999;-0.28500
5327776;-0.27500
5330554;-0.26500
5333332;-0.25000
5336110;-0.24500
5338887;-0.24000
5341665;-0.24500
5344443;-0.22000
5347221;-0.22000
5349999;-0.19000
5352776;-0.18500
5355554;-0.19500
5358332;-0.20500
5361110;-0.19000
5363887;-0.17500
5366665;-0.15500
5369443;-0.15000
5372221;-0.16000
5374998;-0.16000
5377776;-0.15500
5380554;-0.13000
5383332;-0.13000
5386110;-0.11500
5388887;-0.13500
5391665;-0.15000
5394443;-0.16000
5397221;-0.15000
5399998;-0.14500
5402776;-0.14000
5405554;-0.14500
5408332;-0.15000
5411110;-0.14500
5413887;-0.13000
5416665;-0.11000
5419443;-0.11000
5422221;-0.14500
5424998;-0.18500
5427776;-0.21000
5430554;-0.21500
5433332;-0.20500
5436110;-0.22500
5438887;-0.24500
5441665;-0.26500
5444443;-0.27000
5447221;-0.27000
5449998;-0.27500
5452776;-0.28500
5455554;-0.28000
5458332;-0.29000
5461110;-0.29000
5463887;-0.29000
5466665;-0.28500
5469443;-0.29000
5472221;-0.30500
5474998;-0.30500
5477776;-0.31000
5480554;-0.30500
5483332;-0.30000
5486110;-0.30000
5488887;-0.31500
5491665;-0.32000
5494443;-0.31000
5497221;-0.30500
5499998;-0.29500
5502776;-0.29000
5505554;-0.29000
5508332;-0.30000
5511110;-0.29000
5513887;-0.29000
5516665;-0.28500
5519443;-0.29500
5522221;-0.30500
5524998;-0.34000
5527776;-0.37000
5530554;-0.39500
5533332;-0.41500
5536110;-0.44500
5538887;-0.48000
5541665;-0.50000
5544443;-0.46000
5547221;-0.32000
5549998;-0.15500
5552776;0.03000
5555554;0.22500
5558332;0.46500
5561110;0.75000
5563887;0.99000
5566665;1.13500
5569443;1.16000
5572221;1.02000
5574998;0.69500
5577776;0.22000
5580554;-0.18000
5583332;-0.40500
5586110;-0.45000
5588887;-0.42000
5591665;-0.37500
5594443;-0.34500
5597221;-0.33500
5599998;-0.33000
5602776;-0.33500
5605554;-0.34000
5608332;-0.34500
5611110;-0.35000
5613887;-0.34000
5616665;-0.34500
5619443;-0.35000
5622221;-0.35000
5624998;-0.36000
5627776;-0.36500
5630554;-0.35000
5633332;-0.34000
5636110;-0.34500
5638887;-0.35500
5641665;-0.37000
5644443;-0.36500
5647221;-0.37000
5649998;-0.35500
5652776;-0.36000
5655554;-0.36500
5658332;-0.38500
5661110;-0.37000
5663887;-0.36000
5666665;-0.34500
5669443;-0.35500
5672221;-0.35500
5674998;-0.37000
5677776;-0.37000
5680554;-0.35500
5683332;-0.34000
5686110;-0.36000
5688887;-0.36000
5691665;-0.36500
5694443;-0.36500
5697221;-0.36000
5699998;-0.34000
5702776;-0.35000
5705554;-0.36000
5708332;-0.36000
5711110;-0.35500
5713887;-0.34500
5716665;-0.34000
5719443;-0.34500
5722221;-0.34500
5724998;-0.36000
5727776;-0.37500
5730554;-0.36000
5733332;-0.36500
5736110;-0.36000
5738887;-0.36500
5741665;-0.37000
5744443;-0.37500
5747221;-0.35000
5749998;-0.36000
5752776;-0.36500
5755554;-0.36500
5758332;-0.37000
5761109;-0.37500
5763887;-0.36500
5766665;-0.36000
5769443;-0.36000
5772221;-0.36500
5774998;-0.37500
5777776;-0.38000
5780554;-0.36500
5783332;-0.36500
5786109;-0.36500
5788887;-0.37000
5791665;-0.38500
5794443;-0.38500
5797221;-0.38000
5799998;-0.37000
5802776;-0.38000
5805554;-0.38500
5808332;-0.40000
5811109;-0.41000
5813887;-0.40000
5816665;-0.39000
5819443;-0.39500
5822221;-0.41000
5824998;-0.41500
5827776;-0.40000
5830554;-0.39000
5833332;-0.39000
5836109;-0.39000
5838887;-0.41000
5841665;-0.41000
5844443;-0.39500
5847221;-0.38500
5849998;-0.37000
5852776;-0.36000
5855554;-0.37500
5858332;-0.37500
5861109;-0.35000
5863887;-0.33000
5866665;-0.31500
5869443;-0.30500
5872221;-0.31000
5874998;-0.31000
5877776;-0.29000
5880554;-0.27500
5883332;-0.25000
5886109;-0.25500
5888887;-0.25000
5891665;-0.26000
5894443;-0.24500
5897221;-0.23000
5899998;-0.21000
5902776;-0.21500
5905554;-0.22000
5908332;-0.23000
5911109;-0.21500
5913887;-0.20500
5916665;-0.20000
5919443;-0.20500
5922221;-0.21500
5924998;-0.22000
5927776;-0.23000
5930554;-0.23000
5933332;-0.20500
5936109;-0.21000
5938887;-0.22000
5941665;-0.22500
5944443;-0.22000
5947221;-0.21000
5949998;-0.20000
5952776;-0.21500
5955554;-0.23500
5958332;-0.23500
5961109;-0.23000
5963887;-0.21000
5966665;-0.21500
5969443;-0.21500
5972221;-0.22000
5974998;-0.23000
5977776;-0.23000
5980554;-0.22000
5983332;-0.22000
5986109;-0.21500
5988887;-0.22500
5991665;-0.24000
5994443;-0.23000
5997221;-0.22000
5999998;-0.23500
6002776;-0.23500
6005554;-0.24000
6008332;-0.24000
6011109;-0.24500
6013887;-0.23500
6016665;-0.22000
6019443;-0.24000
6022221;-0.24500
6024998;-0.25500
6027776;-0.25000
6030554;-0.25000
6033332;-0.25000
6036109;-0.26000
6038887;-0.27000
6041665;-0.28500
6044443;-0.27000
6047221;-0.27000
6049998;-0.26000
6052776;-0.27000
6055554;-0.27500
6058332;-0.28000
6061109;-0.27000
6063887;-0.27500
6066665;-0.26000
6069443;-0.27000
6072221;-0.28000
6074998;-0.28500
6077776;-0.29000
6080554;-0.26500
6083332;-0.27000
6086109;-0.27500
6088887;-0.27000
6091665;-0.28500
6094443;-0.28500
6097221;-0.27000
6099998;-0.26500
6102776;-0.26500
6105554;-0.27000
6108332;-0.28000
6111109;-0.27000
6113887;-0.24500
6116665;-0.23500
6119443;-0.24000
6122221;-0.24000
6124998;-0.23500
6127776;-0.24000
6130554;-0.21000
6133332;-0.20500
6136109;-0.20000
6138887;-0.20500
6141665;-0.21000
6144443;-0.21000
6147221;-0.20000
6149998;-0.18000
6152776;-0.18500
6155554;-0.19500
6158332;-0.20000
6161109;-0.19000
6163887;-0.17500
6166665;-0.15000
6169443;-0.14500
6172220;-0.15500
6174998;-0.16000
6177776;-0.16500
6180554;-0.17500
6183332;-0.17500
6186109;-0.17000
6188887;-0.18000
6191665;-0.18000
6194443;-0.17500
6197220;-0.15500
6199998;-0.15500
6202776;-0.13500
6205554;-0.12500
6208332;-0.14500
6211109;-0.18000
6213887;-0.20500
6216665;-0.23000
6219443;-0.22500
6222220;-0.23500
6224998;-0.26000
6227776;-0.27500
6230554;-0.28500
6233332;-0.28500
6236109;-0.28500
6238887;-0.30000
6241665;-0.31000
6244443;-0.31000
6247220;-0.30000
6249998;-0.29500
6252776;-0.29000
6255554;-0.31500
6258332;-0.32500
6261109;-0.32500
6263887;-0.31500
6266665;-0.31500
6269443;-0.32500
6272220;-0.32000
6274998;-0.32500
6277776;-0.33000
6280554;-0.33000
6283332;-0.31500
6286109;-0.32000
6288887;-0.32500
6291665;-0.34000
6294443;-0.34000
6297220;-0.31500
6299998;-0.31500
6302776;-0.32500
6305554;-0.34000
6308332;-0.38000
6311109;-0.42000
6313887;-0.43000
6316665;-0.44500
6319443;-0.44500
6322220;-0.49500
6324998;-0.53500
6327776;-0.53000
6330554;-0.43500
6333332;-0.27500
6336109;-0.10500
6338887;0.07000
6341665;0.26000
6344443;0.53000
6347220;0.82500
6349998;1.04500
6352776;1.16000
6355554;1.17000
6358332;0.96000
6361109;0.55500
6363887;0.08000
6366665;-0.26000
6369443;-0.41500
6372220;-0.43500
6374998;-0.40500
6377776;-0.36000
6380554;-0.33000
6383332;-0.33000
6386109;-0.33500
6388887;-0.34500
6391665;-0.35500
6394443;-0.35500
6397220;-0.35000
6399998;-0.34500
6402776;-0.34500
6405554;-0.35500
6408332;-0.37000
6411109;-0.37000
6413887;-0.36500
6416665;-0.35500
6419443;-0.36500
6422220;-0.36000
6424998;-0.36500
6427776;-0.37500
6430554;-0.37500
6433332;-0.36000
6436109;-0.35500
6438887;-0.37500
6441665;-0.37500
6444443;-0.38000
6447220;-0.37000
6449998;-0.36500
6452776;-0.36500
6455554;-0.37500
6458332;-0.38500
6461109;-0.37500
6463887;-0.37500
6466665;-0.36500
6469443;-0.37000
6472220;-0.38500
6474998;-0.38000
6477776;-0.37500
6480554;-0.37000
6483332;-0.37500
6486109;-0.37000
6488887;-0.38000
6491665;-0.38500
6494443;-0.38500
6497220;-0.37000
6499998;-0.37000
6502776;-0.37000
6505554;-0.37500
6508332;-0.39000
6511109;-0.39000
6513887;-0.38500
6516665;-0.37000
6519443;-0.37000
6522220;-0.38500
6524998;-0.39000
6527776;-0.39500
6530554;-0.38000
6533332;-0.36500
6536109;-0.36000
6538887;-0.37000
6541665;-0.38000
6544443;-0.38000
6547220;-0.37500
6549998;-0.37500
6552776;-0.37000
6555554;-0.38000
6558331;-0.39000
6561109;-0.38000
6563887;-0.36500
6566665;-0.36500
6569443;-0.37000
6572220;-0.38000
6574998;-0.39000
6577776;-0.38000
6580554;-0.38000
6583331;-0.38000
6586109;-0.38500
6588887;-0.39000
6591665;-0.40000
6594443;-0.39500
6597220;-0.38500
6599998;-0.38000
6602776;-0.38000
6605554;-0.39000
6608331;-0.39500
6611109;-0.40000
6613887;-0.38500
6616665;-0.38000
6619443;-0.37500
6622220;-0.38500
6624998;-0.39500
6627776;-0.38000
6630554;-0.37000
6633331;-0.36000
6636109;-0.35500
6638887;-0.36000
6641665;-0.36000
6644443;-0.36500
6647220;-0.35000
6649998;-0.34500
6652776;-0.33500
6655554;-0.33500
6658331;-0.32500
6661109;-0.32000
6663887;-0.30500
6666665;-0.29000
6669443;-0.28000
6672220;-0.27500
6674998;-0.27500
6677776;-0.27500
6680554;-0.25500
6683331;-0.24500
6686109;-0.24500
6688887;-0.24500
6691665;-0.25500
6694443;-0.24500
6697220;-0.23500
6699998;-0.22500
6702776;-0.23000
6705554;-0.24000
6708331;-0.24000
6711109;-0.24500
6713887;-0.25000
6716665;-0.22500
6719443;-0.23500
6722220;-0.23500
6724998;-0.25500
6727776;-0.25000
6730554;-0.24500
6733331;-0.23500
6736109;-0.24000
6738887;-0.24000
6741665;-0.24500
6744443;-0.24500
6747220;-0.24000
6749998;-0.24000
6752776;-0.23500
6755554;-0.25500
6758331;-0.27000
6761109;-0.26500
6763887;-0.25500
6766665;-0.24500
6769443;-0.25500
6772220;-0.26500
6774998;-0.27500
6777776;-0.27500
6780554;-0.27500
6783331;-0.27000
6786109;-0.26500
6788887;-0.27500
6791665;-0.28000
6794443;-0.29500
6797220;-0.28000
6799998;-0.28000
6802776;-0.27500
6805554;-0.28000
6808331;-0.29500
6811109;-0.29500
6813887;-0.28500
6816665;-0.27500
6819443;-0.29000
6822220;-0.29000
6824998;-0.30000
6827776;-0.30000
6830554;-0.29000
6833331;-0.28500
6836109;-0.28500
6838887;-0.29000
6841665;-0.30500
6844443;-0.29500
6847220;-0.29000
6849998;-0.28500
6852776;-0.28000
6855554;-0.29500
6858331;-0.30500
6861109;-0.30000
6863887;-0.29500
6866665;-0.29000
6869443;-0.30000
6872220;-0.30000
6874998;-0.30500
6877776;-0.30500
6880554;-0.29000
6883331;-0.29000
6886109;-0.28500
6888887;-0.30500
6891665;-0.30000
6894443;-0.30000
6897220;-0.29000
6899998;-0.27500
6902776;-0.28500
6905554;-0.28000
6908331;-0.29500
6911109;-0.29000
6913887;-0.29000
6916665;-0.27000
6919443;-0.27500
6922220;-0.27500
6924998;-0.28500
6927776;-0.27000
6930554;-0.24500
6933331;-0.22500
6936109;-0.24000
6938887;-0.22000
6941665;-0.22500
6944442;-0.21500
6947220;-0.21000
6949998;-0.19500
6952776;-0.19000
6955554;-0.19000
6958331;-0.19500
6961109;-0.19500
6963887;-0.16500
6966665;-0.14500
6969442;-0.14500
6972220;-0.15500
6974998;-0.16000
6977776;-0.16500
6980554;-0.17000
6983331;-0.16500
6986109;-0.16500
6988887;-0.16000
6991665;-0.16000
6994442;-0.16000
6997220;-0.14500
6999998;-0.13000
7002776;-0.11500
7005554;-0.11000
7008331;-0.15000
7011109;-0.18500
7013887;-0.20500
7016665;-0.20500
7019442;-0.22000
7022220;-0.23500
7024998;-0.26500
7027776;-0.27000
7030554;-0.26500
7033331;-0.26500
7036109;-0.28000
7038887;-0.28000
7041665;-0.29000
7044442;-0.28500
7047220;-0.27000
7049998;-0.27000
7052776;-0.27000
7055554;-0.28000
7058331;-0.30500
7061109;-0.29500
7063887;-0.29500
7066665;-0.28000
7069442;-0.29000
7072220;-0.29500
7074998;-0.31000
7077776;-0.30500
7080554;-0.31500
7083331;-0.29500
7086109;-0.30000
7088887;-0.30500
7091665;-0.31500
7094442;-0.31000
7097220;-0.29500
7099998;-0.29500
7102776;-0.30500
7105554;-0.30500
7108331;-0.32500
7111109;-0.34000
7113887;-0.34500
7116665;-0.36000
7119442;-0.40000
7122220;-0.43500
7124998;-0.46500
7127776;-0.48500
7130554;-0.51000
7133331;-0.47500
7136109;-0.36500
7138887;-0.23000
7141665;-0.07500
7144442;0.11500
7147220;0.38000
7149998;0.65500
7152776;0.92000
7155554;1.07000
7158331;1.09000
7161109;0.95500
7163887;0.62000
7166665;0.19000
7169442;-0.20000
7172220;-0.42500
7174998;-0.46500
7177776;-0.42000
7180554;-0.35500
7183331;-0.32500
7186109;-0.33500
7188887;-0.34500
7191665;-0.36000
7194442;-0.36000
7197220;-0.35000
7199998;-0.34000
7202776;-0.34500
7205554;-0.35500
7208331;-0.37000
7211109;-0.36500
7213887;-0.34500
7216665;-0.34500
7219442;-0.36000
7222220;-0.34500
7224998;-0.36500
7227776;-0.34000
7230554;-0.34500
7233331;-0.34000
7236109;-0.34000
7238887;-0.34500
7241665;-0.35500
7244442;-0.36000
7247220;-0.34500
7249998;-0.34000
7252776;-0.34000
7255554;-0.35000
7258331;-0.36500
7261109;-0.36500
7263887;-0.35000
7266665;-0.34000
7269442;-0.34500
7272220;-0.35500
7274998;-0.35500
7277776;-0.36500
7280554;-0.35000
7283331;-0.34500
7286109;-0.34500
7288887;-0.35500
7291665;-0.36500
7294442;-0.37000
7297220;-0.37000
7299998;-0.35500
7302776;-0.35000
7305554;-0.35000
7308331;-0.36500
7311109;-0.35500
7313887;-0.34500
7316665;-0.35000
7319442;-0.34000
7322220;-0.37000
7324998;-0.36500
7327776;-0.36500
7330554;-0.35500
7333331;-0.35000
7336109;-0.35000
7338887;-0.37000
7341665;-0.37500
7344442;-0.37000
7347220;-0.35000
7349998;-0.34500
7352776;-0.34500
7355553;-0.35000
7358331;-0.36500
7361109;-0.35000
7363887;-0.36000
7366665;-0.35000
7369442;-0.35000
7372220;-0.35500
7374998;-0.36500
7377776;-0.37000
7380553;-0.36000
7383331;-0.36000
7386109;-0.36500
7388887;-0.36500
7391665;-0.36500
7394442;-0.36000
7397220;-0.35500
7399998;-0.36500
7402776;-0.35500
7405553;-0.36500
7408331;-0.37500
7411109;-0.37500
7413887;-0.37000
7416665;-0.37000
7419442;-0.37000
7422220;-0.38000
7424998;-0.37500
7427776;-0.38000
7430553;-0.35500
7433331;-0.35000
7436109;-0.34500
7438887;-0.35000
7441665;-0.35000
7444442;-0.33000
7447220;-0.31500
7449998;-0.30500
7452776;-0.29500
7455553;-0.30000
7458331;-0.30500
7461109;-0.28500
7463887;-0.27500
7466665;-0.26500
7469442;-0.23000
7472220;-0.24500
7474998;-0.25000
7477776;-0.25000
7480553;-0.25500
7483331;-0.23000
7486109;-0.23000
7488887;-0.24000
7491665;-0.24500
7494442;-0.23000
7497220;-0.21500
7499998;-0.22000
7502776;-0.21500
7505553;-0.22000
7508331;-0.24500
7511109;-0.24500
7513887;-0.22000
7516665;-0.21000
7519442;-0.21500
7522220;-0.22500
7524998;-0.22000
7527776;-0.22500
7530553;-0.21500
7533331;-0.22500
7536109;-0.21500
7538887;-0.22500
7541665;-0.24000
7544442;-0.24000
7547220;-0.23500
7549998;-0.23000
7552776;-0.22500
7555553;-0.23500
7558331;-0.25500
7561109;-0.24000
7563887;-0.24500
7566665;-0.23500
7569442;-0.24000
7572220;-0.24500
7574998;-0.26500
7577776;-0.26000
7580553;-0.25000
7583331;-0.25000
7586109;-0.24500
7588887;-0.25500
7591665;-0.27000
7594442;-0.26000
7597220;-0.25000
7599998;-0.25000
7602776;-0.25000
7605553;-0.27000
7608331;-0.27500
7611109;-0.26000
7613887;-0.26500
7616665;-0.26500
7619442;-0.27500
7622220;-0.27500
7624998;-0.28500
7627776;-0.27000
7630553;-0.26500
7633331;-0.25000
7636109;-0.27000
7638887;-0.27000
7641665;-0.28500
7644442;-0.27000
7647220;-0.26500
7649998;-0.27500
7652776;-0.28000
7655553;-0.28500
7658331;-0.29000
7661109;-0.30500
7663887;-0.30000
7666665;-0.28500
7669442;-0.28500
7672220;-0.29500
7674998;-0.30000
7677776;-0.29500
7680553;-0.29500
7683331;-0.28500
7686109;-0.28500
7688887;-0.29500
7691665;-0.31000
7694442;-0.30000
7697220;-0.27500
7699998;-0.26000
7702776;-0.25500
7705553;-0.27000
7708331;-0.28500
7711109;-0.29000
7713887;-0.28500
7716665;-0.27500
7719442;-0.27500
7722220;-0.28000
7724998;-0.28000
7727776;-0.28000
7730553;-0.27000
7733331;-0.25500
7736109;-0.25500
7738887;-0.25000
7741664;-0.25500
7744442;-0.26000
7747220;-0.25000
7749998;-0.23000
7752776;-0.21500
7755553;-0.22000
7758331;-0.22000
7761109;-0.21500
7763887;-0.19500
7766664;-0.18000
7769442;-0.17000
7772220;-0.17000
7774998;-0.16500
7777776;-0.15500
7780553;-0.14000
7783331;-0.13500
7786109;-0.13000
7788887;-0.17500
7791664;-0.18500
7794442;-0.19000
7797220;-0.18000
7799998;-0.15500
7802776;-0.15500
7805553;-0.16000
7808331;-0.17000
7811109;-0.16000
7813887;-0.14500
7816664;-0.14500
7819442;-0.18000
7822220;-0.21500
7824998;-0.22500
7827776;-0.23000
7830553;-0.24500
7833331;-0.26500
7836109;-0.28000
7838887;-0.29500
7841664;-0.31000
7844442;-0.29500
7847220;-0.29000
7849998;-0.29500
7852776;-0.30000
7855553;-0.30500
7858331;-0.31500
7861109;-0.32500
7863887;-0.32000
7866664;-0.31500
7869442;-0.31500
7872220;-0.31500
7874998;-0.31500
7877776;-0.31500
7880553;-0.31000
7883331;-0.30500
7886109;-0.31500
7888887;-0.33500
7891664;-0.34000
7894442;-0.32500
7897220;-0.32500
7899998;-0.31000
7902776;-0.31500
7905553;-0.32000
7908331;-0.33500
7911109;-0.33000
7913887;-0.33500
7916664;-0.33500
7919442;-0.35500
7922220;-0.41000
7924998;-0.44000
7927776;-0.46500
7930553;-0.48500
7933331;-0.51500
7936109;-0.50000
7938887;-0.42000
7941664;-0.27000
7944442;-0.09000
7947220;0.13500
7949998;0.40500
7952776;0.69500
7955553;0.92000
7958331;1.00500
7961109;0.94500
7963887;0.67500
7966664;0.27000
7969442;-0.13000
7972220;-0.37500
7974998;-0.47000
7977776;-0.47500
7980553;-0.41500
7983331;-0.36500
7986109;-0.36500
7988887;-0.37500
7991664;-0.38500
7994442;-0.37000
7997220;-0.36000
7999998;-0.34000
8002776;-0.36500
8005553;-0.36500
8008331;-0.37000
8011109;-0.38000
8013887;-0.36500
8016664;-0.37000
8019442;-0.36500
8022220;-0.37000
8024998;-0.37500
8027776;-0.37000
8030553;-0.36500
8033331;-0.35500
8036109;-0.36000
8038887;-0.36500
8041664;-0.38000
8044442;-0.38000
8047220;-0.37500
8049998;-0.36500
8052776;-0.36000
8055553;-0.37000
8058331;-0.39000
8061109;-0.38000
8063887;-0.37000
8066664;-0.35500
8069442;-0.37000
8072220;-0.38500
8074998;-0.39000
8077776;-0.38000
8080553;-0.37000
8083331;-0.36000
8086109;-0.35500
8088887;-0.36000
8091664;-0.38000
8094442;-0.39000
8097220;-0.38000
8099998;-0.37000
8102776;-0.36000
8105553;-0.36500
8108331;-0.38000
8111109;-0.38500
8113887;-0.38000
8116664;-0.36500
8119442;-0.36000
8122220;-0.36500
8124998;-0.38500
8127776;-0.38500
8130553;-0.37500
8133331;-0.37000
8136109;-0.36000
8138887;-0.36500
8141664;-0.37500
8144442;-0.37000
8147220;-0.37500
8149998;-0.38000
8152775;-0.37500
8155553;-0.37500
8158331;-0.39000
8161109;-0.39000
8163887;-0.38000
8166664;-0.37000
8169442;-0.37000
8172220;-0.38500
8174998;-0.39500
8177775;-0.39500
8180553;-0.39000
8183331;-0.38000
8186109;-0.38000
8188887;-0.39500
8191664;-0.42000
8194442;-0.42000
8197220;-0.43000
8199998;-0.41500
8202775;-0.43500
8205553;-0.43500
8208331;-0.43000
8211109;-0.42000
8213887;-0.41000
8216664;-0.40500
8219442;-0.40500
8222220;-0.41000
8224998;-0.42500
8227775;-0.43000
8230553;-0.42500
8233331;-0.40500
8236109;-0.41500
8238887;-0.39500
8241664;-0.39000
8244442;-0.37500
8247220;-0.37500
8249998;-0.35500
8252775;-0.33500
8255553;-0.32500
8258331;-0.33000
8261109;-0.32500
8263887;-0.31000
8266664;-0.29000
8269442;-0.28000
8272220;-0.27500
8274998;-0.27500
8277775;-0.26000
8280553;-0.25000
8283331;-0.23500
8286109;-0.24000
8288887;-0.23500
8291664;-0.25000
8294442;-0.26000
8297220;-0.23500
8299998;-0.23000
8302775;-0.23500
8305553;-0.24500
8308331;-0.25500
8311109;-0.24500
8313887;-0.23000
8316664;-0.22000
8319442;-0.23000
8322220;-0.24500
8324998;-0.25500
8327775;-0.26000
8330553;-0.24000
8333331;-0.24000
8336109;-0.25500
8338887;-0.26000
8341664;-0.26000
8344442;-0.26500
8347220;-0.26000
8349998;-0.23500
8352775;-0.25500
8355553;-0.25000
8358331;-0.26000
8361109;-0.25500
8363887;-0.25000
8366664;-0.24500
8369442;-0.25500
8372220;-0.26000
8374998;-0.27000
8377775;-0.28000
8380553;-0.27500
8383331;-0.26500
8386109;-0.25500
8388887;-0.27000
8391664;-0.28000
8394442;-0.28500
8397220;-0.27500
8399998;-0.26500
8402775;-0.27000
8405553;-0.29500
8408331;-0.29000
8411109;-0.29000
8413887;-0.28500
8416664;-0.27500
8419442;-0.28500
8422220;-0.28500
8424998;-0.28500
8427775;-0.29000
8430553;-0.29500
8433331;-0.27000
8436109;-0.29000
8438887;-0.29000
8441664;-0.30500
8444442;-0.30500
8447220;-0.29500
8449998;-0.29000
8452775;-0.29000
8455553;-0.29500
8458331;-0.30500
8461109;-0.30000
8463887;-0.29500
8466664;-0.27000
8469442;-0.27500
8472220;-0.29000
8474998;-0.29000
8477775;-0.30000
8480553;-0.29000
8483331;-0.27500
8486109;-0.27500
8488887;-0.27500
8491664;-0.31000
8494442;-0.30000
8497220;-0.28000
8499998;-0.27000
8502775;-0.27500
8505553;-0.27000
8508331;-0.28000
8511109;-0.27500
8513887;-0.26500
8516664;-0.26500
8519442;-0.28000
8522220;-0.29000
8524998;-0.29500
8527775;-0.29000
8530553;-0.28000
8533331;-0.26500
8536109;-0.25500
8538886;-0.25000
8541664;-0.24000
8544442;-0.25000
8547220;-0.24500
8549998;-0.21500
8552775;-0.22000
8555553;-0.21000
8558331;-0.20500
8561109;-0.20500
8563886;-0.19500
8566664;-0.17500
8569442;-0.17000
8572220;-0.17000
8574998;-0.17000
8577775;-0.16500
8580553;-0.16000
8583331;-0.15500
8586109;-0.18000
8588886;-0.17500
8591664;-0.18500
8594442;-0.17500
8597220;-0.16000
8599998;-0.15500
8602775;-0.16500
8605553;-0.15500
8608331;-0.15000
8611109;-0.13500
8613886;-0.14500
8616664;-0.17000
8619442;-0.19500
8622220;-0.22000
8624998;-0.24500
8627775;-0.24500
8630553;-0.25000
8633331;-0.24500
8636109;-0.26000
8638886;-0.27000
8641664;-0.29500
8644442;-0.30000
8647220;-0.29500
8649998;-0.27500
8652775;-0.27000
8655553;-0.28500
8658331;-0.30000
8661109;-0.30500
8663886;-0.29500
8666664;-0.29000
8669442;-0.30000
8672220;-0.30000
8674998;-0.31000
8677775;-0.31000
8680553;-0.29500
8683331;-0.28000
8686109;-0.29000
8688886;-0.29500
8691664;-0.31000
8694442;-0.31000
8697220;-0.30000
8699998;-0.29000
8702775;-0.29500
8705553;-0.32000
8708331;-0.35500
8711109;-0.40500
8713886;-0.42000
8716664;-0.42000
8719442;-0.44500
8722220;-0.48500
8724998;-0.49000
8727775;-0.41500
8730553;-0.26500
8733331;-0.09500
8736109;0.08000
8738886;0.27500
8741664;0.53500
8744442;0.82500
8747220;1.02500
8749998;1.14500
8752775;1.10000
8755553;0.86000
8758331;0.46000
8761109;0.02000
8763886;-0.27500
8766664;-0.39500
8769442;-0.44500
8772220;-0.46500
8774998;-0.43500
8777775;-0.38500
8780553;-0.36000
8783331;-0.32000
8786109;-0.33000
8788886;-0.33000
8791664;-0.34000
8794442;-0.35000
8797220;-0.33500
8799998;-0.32500
8802775;-0.33500
8805553;-0.35000
8808331;-0.34500
8811109;-0.34500
8813886;-0.33500
8816664;-0.33000
8819442;-0.33000
8822220;-0.34000
8824998;-0.34500
8827775;-0.34000
8830553;-0.32500
8833331;-0.33000
8836109;-0.33000
8838886;-0.33000
8841664;-0.34500
8844442;-0.33500
8847220;-0.33000
8849998;-0.32000
8852775;-0.33500
8855553;-0.33500
8858331;-0.34500
8861109;-0.34000
8863886;-0.33000
8866664;-0.34000
8869442;-0.34000
8872220;-0.34500
8874998;-0.34500
8877775;-0.35000
8880553;-0.34500
8883331;-0.33500
8886109;-0.33500
8888886;-0.34500
8891664;-0.35000
8894442;-0.36000
8897220;-0.33000
8899998;-0.33000
8902775;-0.34500
8905553;-0.34500
8908331;-0.34500
8911109;-0.35500
8913886;-0.34500
8916664;-0.32000
8919442;-0.33500
8922220;-0.33000
8924998;-0.35000
8927775;-0.35000
8930553;-0.34500
8933331;-0.34500
8936109;-0.35000
8938886;-0.36000
8941664;-0.36500
8944442;-0.36500
8947220;-0.35000
8949997;-0.34000
8952775;-0.34500
8955553;-0.35000
8958331;-0.36000
8961109;-0.35000
8963886;-0.35000
8966664;-0.35000
8969442;-0.34000
8972220;-0.36000
8974997;-0.37000
8977775;-0.37000
8980553;-0.36500
8983331;-0.35500
8986109;-0.35500
8988886;-0.37500
8991664;-0.38500
8994442;-0.38500
8997220;-0.37500
8999997;-0.38000
9002775;-0.38500
9005553;-0.40000
9008331;-0.40000
9011109;-0.41500
9013886;-0.39500
9016664;-0.37000
9019442;-0.37500
9022220;-0.38000
9024997;-0.39500
9027775;-0.39500
9030553;-0.38500
9033331;-0.36500
9036109;-0.36500
9038886;-0.37000
9041664;-0.37000
9044442;-0.36000
9047220;-0.34000
9049997;-0.32000
9052775;-0.30500
9055553;-0.30500
9058331;-0.29000
9061109;-0.28500
9063886;-0.26500
9066664;-0.24000
9069442;-0.24000
9072220;-0.24000
9074997;-0.23000
9077775;-0.23000
9080553;-0.21500
9083331;-0.20000
9086109;-0.19500
9088886;-0.20000
9091664;-0.21500
9094442;-0.21000
9097220;-0.19500
9099997;-0.18500
9102775;-0.19500
9105553;-0.19500
9108331;-0.21000
9111109;-0.20500
9113886;-0.20000
9116664;-0.18000
9119442;-0.19000
9122220;-0.20500
9124997;-0.20500
9127775;-0.21000
9130553;-0.19500
9133331;-0.18000
9136109;-0.18500
9138886;-0.19500
9141664;-0.21000
9144442;-0.21000
9147220;-0.19000
9149997;-0.17000
9152775;-0.15500
9155553;-0.14500
9158331;-0.13000
9161109;-0.13000
9163886;-0.11000
9166664;-0.08500
9169442;-0.07000
9172220;-0.08000
9174997;-0.08000
9177775;-0.09000
9180553;-0.09000
9183331;-0.08000
9186109;-0.09000
9188886;-0.08000
9191664;-0.08000
9194442;-0.08500
9197220;-0.09500
9199997;-0.10000
9202775;-0.12000
9205553;-0.13000
9208331;-0.12500
9211109;-0.14500
9213886;-0.13000
9216664;-0.14000
9219442;-0.15500
9222220;-0.17000
9224997;-0.19000
9227775;-0.22000
9230553;-0.23000
9233331;-0.23000
9236109;-0.23500
9238886;-0.25000
9241664;-0.26500
9244442;-0.28500
9247220;-0.28000
9249997;-0.27500
9252775;-0.28000
9255553;-0.28000
9258331;-0.28500
9261109;-0.29500
9263886;-0.29000
9266664;-0.28500
9269442;-0.28500
9272220;-0.28500
9274997;-0.29500
9277775;-0.30000
9280553;-0.29000
9283331;-0.28000
9286109;-0.29500
9288886;-0.29000
9291664;-0.30500
9294442;-0.31000
9297220;-0.30000
9299997;-0.29500
9302775;-0.30000
9305553;-0.30500
9308331;-0.31000
9311109;-0.33500
9313886;-0.38000
9316664;-0.41000
9319442;-0.43000
9322220;-0.44500
9324997;-0.46500
9327775;-0.51500
9330553;-0.55000
9333331;-0.56500
9336108;-0.53000
9338886;-0.41500
9341664;-0.26000
9344442;-0.08500
9347220;0.13500
9349997;0.35500
9352775;0.61500
9355553;0.89000
9358331;1.13000
9361108;1.27000
9363886;1.28000
9366664;1.04000
9369442;0.54000
9372220;-0.00500
9374997;-0.34000
9377775;-0.41500
9380553;-0.34500
9383331;-0.27500
9386108;-0.27500
9388886;-0.28500
9391664;-0.29500
9394442;-0.30500
9397220;-0.30500
9399997;-0.29000
9402775;-0.30000
9405553;-0.31000
9408331;-0.32000
9411108;-0.32500
9413886;-0.32000
9416664;-0.31000
9419442;-0.31500
9422220;-0.32000
9424997;-0.32000
9427775;-0.34500
9430553;-0.32000
9433331;-0.32000
9436108;-0.32500
9438886;-0.32000
9441664;-0.33500
9444442;-0.34000
9447220;-0.33000
9449997;-0.32000
9452775;-0.32500
9455553;-0.33500
9458331;-0.33500
9461108;-0.35000
9463886;-0.33000
9466664;-0.33000
9469442;-0.33500
9472220;-0.34500
9474997;-0.34500
9477775;-0.34000
9480553;-0.34500
9483331;-0.33500
9486108;-0.32500
9488886;-0.33500
9491664;-0.34500
9494442;-0.34000
9497220;-0.33500
9499997;-0.32000
9502775;-0.32500
9505553;-0.33000
9508331;-0.34000
9511108;-0.34000
9513886;-0.32500
9516664;-0.32000
9519442;-0.31500
9522220;-0.33500
9524997;-0.34000
9527775;-0.34000
9530553;-0.33500
9533331;-0.32500
9536108;-0.33000
9538886;-0.33500
9541664;-0.34500
9544442;-0.35000
9547220;-0.34000
9549997;-0.32000
9552775;-0.33000
9555553;-0.34000
9558331;-0.35000
9561108;-0.34500
9563886;-0.34500
9566664;-0.33500
9569442;-0.35000
9572220;-0.33500
9574997;-0.34500
9577775;-0.35500
9580553;-0.36500
9583331;-0.34500
9586108;-0.34500
9588886;-0.34000
9591664;-0.35000
9594442;-0.35500
9597220;-0.34500
9599997;-0.34000
9602775;-0.35000
9605553;-0.36000
9608331;-0.36000
9611108;-0.37000
9613886;-0.37500
9616664;-0.35500
9619442;-0.34500
9622220;-0.35500
9624997;-0.36500
9627775;-0.35000
9630553;-0.33500
9633331;-0.31500
9636108;-0.30500
9638886;-0.30000
9641664;-0.30500
9644442;-0.30000
9647220;-0.28000
9649997;-0.25500
9652775;-0.25500
9655553;-0.25500
9658331;-0.25500
9661108;-0.25000
9663886;-0.24000
9666664;-0.22000
9669442;-0.23000
9672220;-0.23500
9674997;-0.23500
9677775;-0.24000
9680553;-0.23500
9683331;-0.21500
9686108;-0.22500
9688886;-0.22500
9691664;-0.23500
9694442;-0.24000
9697220;-0.22500
9699997;-0.21500
9702775;-0.22000
9705553;-0.22000
9708331;-0.22000
9711108;-0.22000
9713886;-0.22000
9716664;-0.21500
9719442;-0.22000
9722220;-0.23000
9724997;-0.23000
9727775;-0.24000
9730553;-0.23500
9733331;-0.23500
9736108;-0.23500
9738886;-0.24500
9741664;-0.25500
9744442;-0.26000
9747219;-0.24500
9749997;-0.23500
9752775;-0.24000
9755553;-0.25500
9758331;-0.26500
9761108;-0.27000
9763886;-0.25500
9766664;-0.25500
9769442;-0.24500
9772219;-0.26000
9774997;-0.26500
9777775;-0.27000
9780553;-0.26500
9783331;-0.26000
9786108;-0.26500
9788886;-0.28000
9791664;-0.27500
9794442;-0.28000
9797219;-0.26000
9799997;-0.26500
9802775;-0.27000
9805553;-0.27500
9808331;-0.27000
9811108;-0.27500
9813886;-0.27000
9816664;-0.27500
9819442;-0.28500
9822219;-0.29000
9824997;-0.28500
9827775;-0.28000
9830553;-0.28000
9833331;-0.26500
9836108;-0.26000
9838886;-0.27500
9841664;-0.27500
9844442;-0.27000
9847219;-0.27500
9849997;-0.26000
9852775;-0.26500
9855553;-0.27000
9858331;-0.27000
9861108;-0.27000
9863886;-0.26000
9866664;-0.25000
9869442;-0.24500
9872219;-0.26000
9874997;-0.27000
9877775;-0.26500
9880553;-0.26500
9883331;-0.24500
9886108;-0.25000
9888886;-0.26500
9891664;-0.27000
9894442;-0.27500
9897219;-0.27000
9899997;-0.25000
9902775;-0.26000
9905553;-0.26000
9908331;-0.26500
9911108;-0.27000
9913886;-0.26000
9916664;-0.24500
9919442;-0.25500
9922219;-0.25500
9924997;-0.25500
9927775;-0.25500
9930553;-0.25500
9933331;-0.24500
9936108;-0.24000
9938886;-0.25500
9941664;-0.26000
9944442;-0.26000
9947219;-0.25500
9949997;-0.25000
9952775;-0.25000
9955553;-0.25000
9958331;-0.25500
9961108;-0.25000
9963886;-0.25500
9966664;-0.24000
9969442;-0.25000
9972219;-0.25000
9974997;-0.26000
9977775;-0.26000
9980553;-0.24500
9983331;-0.26000
9986108;-0.24000
9988886;-0.26000
9991664;-0.25500
9994442;-0.26500
9997219;-0.24500
9999997;-0.24000
10002775;-0.23500
10005553;-0.24000
10008331;-0.25000
10011108;-0.25500
10013886;-0.25000
10016664;-0.23500
10019442;-0.24000
10022219;-0.25500
10024997;-0.25000
10027775;-0.24000
10030553;-0.24000
10033331;-0.23000
10036108;-0.23500
10038886;-0.24000
10041664;-0.25500
10044442;-0.25000
10047219;-0.24500
10049997;-0.23000
10052775;-0.21000
10055553;-0.23000
10058331;-0.22500
10061108;-0.20500
10063886;-0.19500
10066664;-0.18000
10069442;-0.19000
10072219;-0.18000
10074997;-0.18000
10077775;-0.18500
10080553;-0.16500
10083331;-0.14000
10086108;-0.14000
10088886;-0.15000
10091664;-0.13000
10094442;-0.12000
10097219;-0.13000
10099997;-0.12000
10102775;-0.13500
10105553;-0.14000
10108331;-0.16000
10111108;-0.16500
10113886;-0.14500
10116664;-0.12500
10119442;-0.15000
10122219;-0.14000
10124997;-0.13000
10127775;-0.12000
10130553;-0.09500
10133330;-0.11500
10136108;-0.15000
10138886;-0.18500
10141664;-0.20000
10144442;-0.22000
10147219;-0.22000
10149997;-0.23500
10152775;-0.26000
10155553;-0.26500
10158330;-0.28000
10161108;-0.28500
10163886;-0.26000
10166664;-0.26500
10169442;-0.27000
10172219;-0.27500
10174997;-0.31000
10177775;-0.30500
10180553;-0.28000
10183330;-0.27000
10186108;-0.28500
10188886;-0.28000
10191664;-0.29000
10194442;-0.29000
10197219;-0.28500
10199997;-0.27500
10202775;-0.28000
10205553;-0.29000
10208330;-0.30500
10211108;-0.29500
10213886;-0.30000
10216664;-0.30000
10219442;-0.33500
10222219;-0.37500
10224997;-0.41500
10227775;-0.44500
10230553;-0.44500
10233330;-0.46500
10236108;-0.47500
10238886;-0.43000
10241664;-0.30000
10244442;-0.12500
10247219;0.07000
10249997;0.30500
10252775;0.61500
10255553;0.89500
10258330;1.09000
10261108;1.15000
10263886;1.02500
10266664;0.67000
10269442;0.16000
10272219;-0.24500
10274997;-0.44500
10277775;-0.45500
10280553;-0.40000
10283330;-0.33500
10286108;-0.31500
10288886;-0.31500
10291664;-0.32000
10294442;-0.33500
10297219;-0.33500
10299997;-0.32500
10302775;-0.32500
10305553;-0.34500
10308330;-0.35500
10311108;-0.35500
10313886;-0.35000
10316664;-0.35500
10319442;-0.34500
10322219;-0.35500
10324997;-0.36500
10327775;-0.36500
10330553;-0.35500
10333330;-0.36000
10336108;-0.35500
10338886;-0.36000
10341664;-0.35500
10344442;-0.37000
10347219;-0.36000
10349997;-0.35500
10352775;-0.36000
10355553;-0.36500
10358330;-0.37000
10361108;-0.37000
10363886;-0.36500
10366664;-0.34000
10369442;-0.34500
10372219;-0.35000
10374997;-0.35500
10377775;-0.36500
10380553;-0.36000
10383330;-0.34500
10386108;-0.34500
10388886;-0.36500
10391664;-0.35500
10394442;-0.36000
10397219;-0.35000
10399997;-0.34500
10402775;-0.34000
10405553;-0.34500
10408330;-0.35500
10411108;-0.36000
10413886;-0.35000
10416664;-0.33500
10419442;-0.33500
10422219;-0.34000
10424997;-0.36000
10427775;-0.36500
10430553;-0.35000
10433330;-0.34000
10436108;-0.34000
10438886;-0.34500
10441664;-0.36500
10444442;-0.37000
10447219;-0.37000
10449997;-0.34500
10452775;-0.35000
10455553;-0.35000
10458330;-0.36500
10461108;-0.36000
10463886;-0.36500
10466664;-0.34000
10469442;-0.34000
10472219;-0.34500
10474997;-0.37000
10477775;-0.38000
10480553;-0.36500
10483330;-0.35500
10486108;-0.35500
10488886;-0.37500
10491664;-0.37500
10494442;-0.38000
10497219;-0.36500
10499997;-0.35000
10502775;-0.35000
10505553;-0.35000
10508330;-0.36500
10511108;-0.37500
10513886;-0.36000
10516664;-0.36500
10519441;-0.35500
10522219;-0.34500
10524997;-0.35500
10527775;-0.34000
10530553;-0.33000
10533330;-0.30000
10536108;-0.30500
10538886;-0.30000
10541664;-0.28500
10544441;-0.28000
10547219;-0.26000
10549997;-0.24500
10552775;-0.24000
10555553;-0.23500
10558330;-0.25000
10561108;-0.25000
10563886;-0.22000
10566664;-0.21500
10569441;-0.21500
10572219;-0.21000
10574997;-0.22000
10577775;-0.22500
10580553;-0.21500
10583330;-0.22000
10586108;-0.23500
10588886;-0.22000
10591664;-0.23000
10594441;-0.22500
10597219;-0.22000
10599997;-0.20500
10602775;-0.20000
10605553;-0.20000
10608330;-0.20500
10611108;-0.20500
10613886;-0.20000
10616664;-0.19000
10619441;-0.20000
10622219;-0.21000
10624997;-0.23000
10627775;-0.23500
10630553;-0.22000
10633330;-0.20500
10636108;-0.20500
10638886;-0.22500
10641664;-0.23000
10644441;-0.23500
10647219;-0.22500
10649997;-0.22000
10652775;-0.23000
10655553;-0.24500
10658330;-0.25500
10661108;-0.24500
10663886;-0.23500
10666664;-0.22500
10669441;-0.22000
10672219;-0.22500
10674997;-0.24000
10677775;-0.25500
10680553;-0.25500
10683330;-0.25000
10686108;-0.24500
10688886;-0.26000
10691664;-0.26000
10694441;-0.27500
10697219;-0.26500
10699997;-0.26000
10702775;-0.26500
10705553;-0.27000
10708330;-0.28500
10711108;-0.29500
10713886;-0.29000
10716664;-0.28500
10719441;-0.28000
10722219;-0.29000
10724997;-0.28500
10727775;-0.29000
10730553;-0.28000
10733330;-0.28000
10736108;-0.28500
10738886;-0.29500
10741664;-0.29500
10744441;-0.30500
10747219;-0.29000
10749997;-0.28000
10752775;-0.28000
10755553;-0.28500
10758330;-0.29500
10761108;-0.29500
10763886;-0.29000
10766664;-0.29000
10769441;-0.29000
10772219;-0.30000
10774997;-0.31500
10777775;-0.31500
10780553;-0.30500
10783330;-0.29000
10786108;-0.29500
10788886;-0.29500
10791664;-0.31000
10794441;-0.31000
10797219;-0.30000
10799997;-0.28500
10802775;-0.30500
10805553;-0.30500
10808330;-0.31000
10811108;-0.31000
10813886;-0.30500
10816664;-0.30000
10819441;-0.30500
10822219;-0.30000
10824997;-0.31000
10827775;-0.32000
10830553;-0.30500
10833330;-0.29500
10836108;-0.29500
10838886;-0.29000
10841664;-0.30000
10844441;-0.29500
10847219;-0.28500
10849997;-0.28000
10852775;-0.28500
10855553;-0.29500
10858330;-0.29500
10861108;-0.29500
10863886;-0.28500
10866664;-0.27000
10869441;-0.25000
10872219;-0.24500
10874997;-0.25000
10877775;-0.25000
10880553;-0.25000
10883330;-0.24000
10886108;-0.21500
10888886;-0.20500
10891664;-0.20500
10894441;-0.19000
10897219;-0.18500
10899997;-0.17500
10902775;-0.18000
10905553;-0.19000
10908330;-0.20500
10911108;-0.20000
10913886;-0.19000
10916664;-0.18500
10919441;-0.19000
10922219;-0.19500
10924997;-0.21500
10927775;-0.22500
10930552;-0.21000
10933330;-0.19500
10936108;-0.20500
10938886;-0.23500
10941664;-0.25500
10944441;-0.28500
10947219;-0.25500
10949997;-0.23000
10952775;-0.19500
10955552;-0.20000
10958330;-0.24000
10961108;-0.26500
10963886;-0.27000
10966664;-0.28000
10969441;-0.30000
10972219;-0.33000
10974997;-0.34500
10977775;-0.35500
10980552;-0.34000
10983330;-0.32500
10986108;-0.32500
10988886;-0.33000
10991664;-0.33000
10994441;-0.33500
10997219;-0.32500
10999997;-0.32000
11002775;-0.33000
11005552;-0.34500
11008330;-0.36000
11011108;-0.35500
11013886;-0.35500
11016664;-0.34500
11019441;-0.35500
11022219;-0.35500
11024997;-0.35500
11027775;-0.37500
11030552;-0.36000
11033330;-0.35500
11036108;-0.37000
11038886;-0.40000
11041664;-0.44000
11044441;-0.48000
11047219;-0.49000
11049997;-0.50500
11052775;-0.54500
11055552;-0.54000
11058330;-0.48000
11061108;-0.36000
11063886;-0.21000
11066664;-0.03500
11069441;0.17500
11072219;0.44000
11074997;0.70500
11077775;0.90500
11080552;1.01500
11083330;0.98000
11086108;0.72000
11088886;0.31000
11091664;-0.08500
11094441;-0.35000
11097219;-0.46000
11099997;-0.47000
11102775;-0.44500
11105552;-0.42000
11108330;-0.41000
11111108;-0.40500
11113886;-0.39000
11116664;-0.39500
11119441;-0.39000
11122219;-0.40500
11124997;-0.41000
11127775;-0.40000
11130552;-0.40000
11133330;-0.38000
11136108;-0.39000
11138886;-0.40000
11141664;-0.40000
11144441;-0.39500
11147219;-0.37500
11149997;-0.38000
11152775;-0.38000
11155552;-0.39500
11158330;-0.41000
11161108;-0.41500
11163886;-0.41500
11166664;-0.40500
11169441;-0.40000
11172219;-0.40000
11174997;-0.40000
11177775;-0.40000
11180552;-0.40000
11183330;-0.39500
11186108;-0.40000
11188886;-0.39500
11191664;-0.40500
11194441;-0.41500
11197219;-0.39500
11199997;-0.38500
11202775;-0.41500
11205552;-0.42000
11208330;-0.41000
11211108;-0.40500
11213886;-0.40000
11216664;-0.38500
11219441;-0.38000
11222219;-0.39000
11224997;-0.38500
11227775;-0.40000
11230552;-0.39000
11233330;-0.40000
11236108;-0.40500
11238886;-0.40500
11241664;-0.42500
11244441;-0.42500
11247219;-0.41500
11249997;-0.40000
11252775;-0.41000
11255552;-0.39500
11258330;-0.40500
11261108;-0.41500
11263886;-0.38500
11266664;-0.38000
11269441;-0.38000
11272219;-0.39000
11274997;-0.40500
11277775;-0.40000
11280552;-0.39500
11283330;-0.40000
11286108;-0.39000
11288886;-0.40000
11291664;-0.40500
11294441;-0.41500
11297219;-0.42000
11299997;-0.40500
11302775;-0.39500
11305552;-0.40000
11308330;-0.40500
11311108;-0.41500
11313886;-0.42000
11316663;-0.42000
11319441;-0.42000
11322219;-0.44000
11324997;-0.47000
11327775;-0.47500
11330552;-0.45500
11333330;-0.45000
11336108;-0.45500
11338886;-0.46500
11341663;-0.45000
11344441;-0.45500
11347219;-0.45000
11349997;-0.45000
11352775;-0.45000
11355552;-0.46500
11358330;-0.46500
11361108;-0.47500
11363886;-0.46500
11366663;-0.46000
11369441;-0.44500
11372219;-0.45500
11374997;-0.45500
11377775;-0.44500
11380552;-0.42000
11383330;-0.40500
11386108;-0.39500
11388886;-0.38500
11391663;-0.38000
11394441;-0.37500
11397219;-0.35000
11399997;-0.33000
11402775;-0.32500
11405552;-0.32000
11408330;-0.32500
11411108;-0.32000
11413886;-0.29500
11416663;-0.28000
11419441;-0.27500
11422219;-0.27500
11424997;-0.28000
11427775;-0.28500
11430552;-0.27000
11433330;-0.26000
11436108;-0.26000
11438886;-0.26500
11441663;-0.28000
11444441;-0.27500
11447219;-0.27000
11449997;-0.25500
11452775;-0.25500
11455552;-0.26500
11458330;-0.27000
11461108;-0.26500
11463886;-0.26000
11466663;-0.25000
11469441;-0.26000
11472219;-0.26500
11474997;-0.26500
11477775;-0.26500
11480552;-0.26500
11483330;-0.25500
11486108;-0.26000
11488886;-0.26000
11491663;-0.28000
11494441;-0.27500
11497219;-0.28000
11499997;-0.27500
11502775;-0.27000
11505552;-0.28500
11508330;-0.28500
11511108;-0.29500
11513886;-0.27500
11516663;-0.28000
11519441;-0.27500
11522219;-0.28000
11524997;-0.29500
11527775;-0.29500
11530552;-0.29000
11533330;-0.29000
11536108;-0.28500
11538886;-0.29500
11541663;-0.29500
11544441;-0.30000
11547219;-0.29500
11549997;-0.28500
11552775;-0.28500
11555552;-0.29000
11558330;-0.29500
11561108;-0.30000
11563886;-0.29500
11566663;-0.29000
11569441;-0.29000
11572219;-0.28500
11574997;-0.30000
11577775;-0.31000
11580552;-0.29500
11583330;-0.28500
11586108;-0.29500
11588886;-0.29000
11591663;-0.30000
11594441;-0.30500
11597219;-0.29000
11599997;-0.28000
11602775;-0.29000
11605552;-0.29000
11608330;-0.30000
11611108;-0.30500
11613886;-0.29500
11616663;-0.30000
11619441;-0.30000
11622219;-0.30500
11624997;-0.31500
11627775;-0.30000
11630552;-0.29500
11633330;-0.27500
11636108;-0.27500
11638886;-0.29000
11641663;-0.29500
11644441;-0.29000
11647219;-0.28500
11649997;-0.27500
11652775;-0.26000
11655552;-0.27000
11658330;-0.27500
11661108;-0.27500
11663886;-0.28500
11666663;-0.27000
11669441;-0.27500
11672219;-0.27500
11674997;-0.28500
11677775;-0.29000
11680552;-0.28000
11683330;-0.26500
11686108;-0.27000
11688886;-0.28500
11691663;-0.30000
11694441;-0.28500
11697219;-0.28500
11699997;-0.27500
11702775;-0.27500
11705552;-0.26500
11708330;-0.27500
11711108;-0.25000
11713886;-0.23000
11716663;-0.21500
11719441;-0.21500
11722219;-0.21500
11724997;-0.21000
11727774;-0.21000
11730552;-0.19500
11733330;-0.18000
11736108;-0.17000
11738886;-0.16500
11741663;-0.17500
11744441;-0.17500
11747219;-0.16000
11749997;-0.15000
11752774;-0.16000
11755552;-0.16000
11758330;-0.18000
11761108;-0.19000
11763886;-0.19000
11766663;-0.17000
11769441;-0.16500
11772219;-0.19000
11774997;-0.20000
11777774;-0.19500
11780552;-0.19000
11783330;-0.15500
11786108;-0.14000
11788886;-0.16000
11791663;-0.20000
11794441;-0.22500
11797219;-0.24000
11799997;-0.24500
11802774;-0.25500
11805552;-0.27000
11808330;-0.28500
11811108;-0.30500
11813886;-0.29500
11816663;-0.29000
11819441;-0.28500
11822219;-0.30000
11824997;-0.30500
11827774;-0.30500
11830552;-0.29500
11833330;-0.30500
11836108;-0.29500
11838886;-0.30500
11841663;-0.30500
11844441;-0.31000
11847219;-0.31500
11849997;-0.30000
11852774;-0.30500
11855552;-0.32000
11858330;-0.32500
11861108;-0.31500
11863886;-0.30000
11866663;-0.30000
11869441;-0.30500
11872219;-0.30500
11874997;-0.31000
11877774;-0.31500
11880552;-0.31000
11883330;-0.30500
11886108;-0.33000
11888886;-0.36000
11891663;-0.41000
11894441;-0.42500
11897219;-0.44500
11899997;-0.46500
11902774;-0.47500
11905552;-0.44000
11908330;-0.31500
11911108;-0.14000
11913886;0.05500
11916663;0.28000
11919441;0.54500
11922219;0.83000
11924997;1.05500
11927774;1.17000
11930552;1.18000
11933330;0.96000
11936108;0.51500
11938886;0.00000
11941663;-0.34500
11944441;-0.46000
11947219;-0.43000
11949997;-0.36000
11952774;-0.32000
11955552;-0.31500
11958330;-0.34500
11961108;-0.33500
11963886;-0.33000
11966663;-0.33000
11969441;-0.33500
11972219;-0.34000
11974997;-0.34000
11977774;-0.35500
11980552;-0.35000
11983330;-0.33500
11986108;-0.33500
11988886;-0.34500
11991663;-0.35500
11994441;-0.34500
11997219;-0.33500
11999997;-0.33000
12002774;-0.33500
12005552;-0.35500
12008330;-0.35500
12011108;-0.34500
12013886;-0.33000
12016663;-0.33000
12019441;-0.32500
12022219;-0.33500
12024997;-0.34000
12027774;-0.34500
12030552;-0.34000
12033330;-0.33000
12036108;-0.33500
12038886;-0.34500
12041663;-0.35500
12044441;-0.36500
12047219;-0.35500
12049997;-0.35000
12052774;-0.34500
12055552;-0.34500
12058330;-0.36000
12061108;-0.35000
12063886;-0.35500
12066663;-0.33500
12069441;-0.34500
12072219;-0.33500
12074997;-0.34000
12077774;-0.35500
12080552;-0.34500
12083330;-0.33500
12086108;-0.34500
12088886;-0.34000
12091663;-0.34000
12094441;-0.36000
12097219;-0.34000
12099997;-0.33500
12102774;-0.33000
12105552;-0.35000
12108330;-0.34500
12111108;-0.35500
12113885;-0.33500
12116663;-0.34000
12119441;-0.33500
12122219;-0.34000
12124997;-0.35000
12127774;-0.35500
12130552;-0.35000
12133330;-0.33000
12136108;-0.33500
12138885;-0.33500
12141663;-0.35000
12144441;-0.36000
12147219;-0.35500
12149997;-0.34500
12152774;-0.34000
12155552;-0.35500
12158330;-0.35500
12161108;-0.37500
12163885;-0.36500
12166663;-0.34500
12169441;-0.36000
12172219;-0.36500
12174997;-0.37500
12177774;-0.38500
12180552;-0.37000
12183330;-0.37000
12186108;-0.38000
12188885;-0.39000
12191663;-0.41000
12194441;-0.40000
12197219;-0.38500
12199997;-0.37500
12202774;-0.36500
12205552;-0.36000
12208330;-0.37000
12211108;-0.36500
12213885;-0.35500
12216663;-0.33500
12219441;-0.33500
12222219;-0.32000
12224997;-0.32500
12227774;-0.31500
12230552;-0.30000
12233330;-0.29000
12236108;-0.27500
12238885;-0.27500
12241663;-0.26500
12244441;-0.26000
12247219;-0.24500
12249997;-0.21500
12252774;-0.21500
12255552;-0.23000
12258330;-0.21500
12261108;-0.21500
12263885;-0.21000
12266663;-0.19500
12269441;-0.18000
12272219;-0.18500
12274997;-0.19500
12277774;-0.19500
12280552;-0.18000
12283330;-0.18000
12286108;-0.19000
12288885;-0.19000
12291663;-0.20000
12294441;-0.18500
12297219;-0.18500
12299997;-0.17000
12302774;-0.17500
12305552;-0.19000
12308330;-0.18500
12311108;-0.19500
12313885;-0.18000
12316663;-0.18000
12319441;-0.18000
12322219;-0.18000
12324997;-0.19500
12327774;-0.20000
12330552;-0.18500
12333330;-0.18500
12336108;-0.18000
12338885;-0.19000
12341663;-0.18500
12344441;-0.19000
12347219;-0.18500
12349997;-0.18500
12352774;-0.19000
12355552;-0.19000
12358330;-0.20000
12361108;-0.20500
12363885;-0.20500
12366663;-0.20500
12369441;-0.20500
12372219;-0.21000
12374997;-0.22000
12377774;-0.23000
12380552;-0.22500
12383330;-0.22000
12386108;-0.21000
12388885;-0.20500
12391663;-0.22000
12394441;-0.23000
12397219;-0.22500
12399997;-0.21000
12402774;-0.22000
12405552;-0.21000
12408330;-0.23000
12411108;-0.24000
12413885;-0.23000
12416663;-0.22500
12419441;-0.23000
12422219;-0.22000
12424997;-0.24000
12427774;-0.22500
12430552;-0.22500
12433330;-0.21500
12436108;-0.21500
12438885;-0.23000
12441663;-0.23500
12444441;-0.24500
12447219;-0.23000
12449997;-0.21500
12452774;-0.23000
12455552;-0.23000
12458330;-0.23500
12461108;-0.24500
12463885;-0.23500
12466663;-0.22000
12469441;-0.23000
12472219;-0.23000
12474997;-0.22000
12477774;-0.24000
12480552;-0.23000
12483330;-0.22500
12486108;-0.22000
12488885;-0.23000
12491663;-0.22500
12494441;-0.22500
12497219;-0.23000
12499996;-0.22000
12502774;-0.21500
12505552;-0.23500
12508330;-0.24000
12511108;-0.23500
12513885;-0.23000
12516663;-0.22500
12519441;-0.21500
12522219;-0.21500
12524996;-0.22500
12527774;-0.23500
12530552;-0.22500
12533330;-0.22000
12536108;-0.21000
12538885;-0.21000
12541663;-0.20500
12544441;-0.21500
12547219;-0.21000
12549996;-0.19000
12552774;-0.18500
12555552;-0.16500
12558330;-0.17000
12561108;-0.15000
12563885;-0.14000
12566663;-0.13500
12569441;-0.14500
12572219;-0.13000
12574996;-0.13500
12577774;-0.13500
12580552;-0.11500
12583330;-0.09000
12586108;-0.08500
12588885;-0.10500
12591663;-0.11000
12594441;-0.12500
12597219;-0.11500
12599996;-0.11500
12602774;-0.11500
12605552;-0.13000
12608330;-0.12500
12611108;-0.12000
12613885;-0.13500
12616663;-0.13000
12619441;-0.12000
12622219;-0.11500
12624996;-0.10000
12627774;-0.09500
12630552;-0.09500
12633330;-0.13000
12636108;-0.16000
12638885;-0.16000
12641663;-0.17500
12644441;-0.18500
12647219;-0.19500
12649996;-0.20000
12652774;-0.19500
12655552;-0.20500
12658330;-0.21500
12661108;-0.23500
12663885;-0.23000
12666663;-0.23500
12669441;-0.22500
12672219;-0.22500
12674996;-0.24000
12677774;-0.25000
12680552;-0.24000
12683330;-0.23000
12686108;-0.23500
12688885;-0.24000
12691663;-0.24500
12694441;-0.25000
12697219;-0.24500
12699996;-0.24000
12702774;-0.24500
12705552;-0.24500
12708330;-0.25000
12711108;-0.26000
12713885;-0.25500
12716663;-0.24000
12719441;-0.25000
12722219;-0.25500
12724996;-0.26500
12727774;-0.28500
12730552;-0.31000
12733330;-0.34000
12736108;-0.36500
12738885;-0.39000
12741663;-0.42500
12744441;-0.45500
12747219;-0.42500
12749996;-0.31500
12752774;-0.14500
12755552;0.03500
12758330;0.21500
12761108;0.46000
12763885;0.75000
12766663;1.01500
12769441;1.19500
12772219;1.25500
12774996;1.16000
12777774;0.82500
12780552;0.36000
12783330;-0.08000
12786108;-0.33000
12788885;-0.37000
12791663;-0.33000
12794441;-0.28500
12797219;-0.27000
12799996;-0.26000
12802774;-0.27000
12805552;-0.29500
12808330;-0.29000
12811108;-0.29000
12813885;-0.28000
12816663;-0.28000
12819441;-0.28500
12822219;-0.29000
12824996;-0.30500
12827774;-0.30500
12830552;-0.30500
12833330;-0.28500
12836108;-0.29000
12838885;-0.29000
12841663;-0.30000
12844441;-0.31500
12847219;-0.29500
12849996;-0.30000
12852774;-0.30000
12855552;-0.30500
12858330;-0.30500
12861108;-0.31500
12863885;-0.31500
12866663;-0.30500
12869441;-0.30500
12872219;-0.32000
12874996;-0.32500
12877774;-0.32000
12880552;-0.31000
12883330;-0.30500
12886108;-0.30500
12888885;-0.31500
12891663;-0.31500
12894441;-0.32000
12897219;-0.30500
12899996;-0.29000
12902774;-0.30000
12905552;-0.31000
12908330;-0.31500
12911107;-0.33000
12913885;-0.32000
12916663;-0.30500
12919441;-0.30500
12922219;-0.31500
12924996;-0.32000
12927774;-0.31500
12930552;-0.31500
12933330;-0.31000
12936107;-0.30500
12938885;-0.31500
12941663;-0.31500
12944441;-0.32500
12947219;-0.31500
12949996;-0.30500
12952774;-0.30000
12955552;-0.32000
12958330;-0.33500
12961107;-0.33000
12963885;-0.32500
12966663;-0.32000
12969441;-0.31000
12972219;-0.32000
12974996;-0.32500
12977774;-0.33500
12980552;-0.31500
12983330;-0.32000
12986107;-0.31500
12988885;-0.32500
12991663;-0.33000
12994441;-0.33000
12997219;-0.32500
12999996;-0.33500
13002774;-0.32500
13005552;-0.32500
13008330;-0.34000
13011107;-0.33500
13013885;-0.33500
13016663;-0.33000
13019441;-0.33000
13022219;-0.32500
13024996;-0.34000
13027774;-0.34500
13030552;-0.33000
13033330;-0.32500
13036107;-0.31500
13038885;-0.31500
13041663;-0.33500
13044441;-0.34000
13047219;-0.32500
13049996;-0.31000
13052774;-0.31500
13055552;-0.32000
13058330;-0.33000
13061107;-0.33000
13063885;-0.31000
13066663;-0.30000
13069441;-0.29500
13072219;-0.28500
13074996;-0.28500
13077774;-0.28500
13080552;-0.27000
13083330;-0.25000
13086107;-0.24000
13088885;-0.25000
13091663;-0.23500
13094441;-0.23500
13097219;-0.22500
13099996;-0.21000
13102774;-0.20000
13105552;-0.20500
13108330;-0.20500
13111107;-0.21000
13113885;-0.20000
13116663;-0.18500
13119441;-0.19000
13122219;-0.19000
13124996;-0.19000
13127774;-0.20000
13130552;-0.19000
13133330;-0.18500
13136107;-0.18500
13138885;-0.19000
13141663;-0.19500
13144441;-0.20000
13147219;-0.19500
13149996;-0.18000
13152774;-0.18000
13155552;-0.19500
13158330;-0.20000
13161107;-0.20500
13163885;-0.18500
13166663;-0.19000
13169441;-0.18000
13172219;-0.19500
13174996;-0.20500
13177774;-0.20500
13180552;-0.20500
13183330;-0.18500
13186107;-0.19500
13188885;-0.20500
13191663;-0.22500
13194441;-0.22000
13197219;-0.21000
13199996;-0.21500
13202774;-0.21000
13205552;-0.21500
13208330;-0.22000
13211107;-0.23500
13213885;-0.21500
13216663;-0.22000
13219441;-0.21500
13222219;-0.22500
13224996;-0.23000
13227774;-0.24500
13230552;-0.23500
13233330;-0.22500
13236107;-0.22000
13238885;-0.23000
13241663;-0.24500
13244441;-0.25000
13247219;-0.25000
13249996;-0.23000
13252774;-0.23000
13255552;-0.23000
13258330;-0.24500
13261107;-0.25500
13263885;-0.25000
13266663;-0.24000
13269441;-0.24500
13272219;-0.24500
13274996;-0.26500
13277774;-0.26500
13280552;-0.26500
13283330;-0.25000
13286107;-0.25500
13288885;-0.25000
13291663;-0.27000
13294441;-0.26000
13297218;-0.26000
13299996;-0.24500
13302774;-0.24500
13305552;-0.25500
13308330;-0.26500
13311107;-0.27500
13313885;-0.26000
13316663;-0.25500
13319441;-0.23500
13322218;-0.26500
13324996;-0.26000
13327774;-0.27500
13330552;-0.25500
13333330;-0.25000
13336107;-0.25000
13338885;-0.24500
13341663;-0.26000
13344441;-0.26000
13347218;-0.25500
13349996;-0.24500
13352774;-0.25000
13355552;-0.25000
13358330;-0.25000
13361107;-0.25000
13363885;-0.24500
13366663;-0.22500
13369441;-0.23000
13372218;-0.23500
13374996;-0.23500
13377774;-0.23500
13380552;-0.20000
13383330;-0.18500
13386107;-0.17000
13388885;-0.18000
13391663;-0.17000
13394441;-0.18500
13397218;-0.17000
13399996;-0.15500
13402774;-0.15000
13405552;-0.13500
13408330;-0.14000
13411107;-0.13500
13413885;-0.13000
13416663;-0.11000
13419441;-0.11000
13422218;-0.12000
13424996;-0.14000
13427774;-0.13000
13430552;-0.14000
13433330;-0.14000
13436107;-0.14000
13438885;-0.14500
13441663;-0.14000
13444441;-0.14500
13447218;-0.14000
13449996;-0.13500
13452774;-0.14500
13455552;-0.15000
13458330;-0.15000
13461107;-0.14000
13463885;-0.11000
13466663;-0.10000
13469441;-0.09500
13472218;-0.13500
13474996;-0.17000
13477774;-0.19500
13480552;-0.19500
13483330;-0.19500
13486107;-0.22500
13488885;-0.24000
13491663;-0.26500
13494441;-0.27000
13497218;-0.27000
13499996;-0.26500
13502774;-0.26000
13505552;-0.26000
13508330;-0.27000
13511107;-0.28000
13513885;-0.27500
13516663;-0.26000
13519441;-0.26000
13522218;-0.26500
13524996;-0.27500
13527774;-0.28500
13530552;-0.27500
13533330;-0.27500
13536107;-0.26000
13538885;-0.26500
13541663;-0.27000
13544441;-0.28500
13547218;-0.27000
13549996;-0.27000
13552774;-0.27000
13555552;-0.28000
13558330;-0.30500
13561107;-0.34000
13563885;-0.37000
13566663;-0.39500
13569441;-0.41000
13572218;-0.44500
13574996;-0.47500
13577774;-0.46500
13580552;-0.39000
13583330;-0.25000
13586107;-0.09000
13588885;0.06000
13591663;0.25500
13594441;0.52500
13597218;0.84000
13599996;1.06500
13602774;1.17500
