time_ms;ecg_value
0;-0.14500
2778;-0.15500
5556;-0.14500
8333;-0.12000
11111;-0.11000
13889;-0.14000
16667;-0.16500
19444;-0.19500
22222;-0.21500
25000;-0.23500
27778;-0.24000
30556;-0.23000
33333;-0.26000
36111;-0.26500
38889;-0.28500
41667;-0.28000
44444;-0.27500
47222;-0.27500
50000;-0.27000
52778;-0.28500
55556;-0.30500
58333;-0.30500
61111;-0.28500
63889;-0.26500
66667;-0.27500
69444;-0.28500
72222;-0.29500
75000;-0.29000
77778;-0.28500
80556;-0.28000
83333;-0.29000
86111;-0.28500
88889;-0.29000
91667;-0.29000
94444;-0.29000
97222;-0.28000
100000;-0.29500
102778;-0.30500
105556;-0.30500
108333;-0.33500
111111;-0.35000
113889;-0.39000
116667;-0.40500
119444;-0.42000
122222;-0.45500
125000;-0.51000
127778;-0.52000
130556;-0.47000
133333;-0.36500
136111;-0.25500
138889;-0.13000
141667;0.10000
144444;0.35500
147222;0.60000
150000;0.75500
152778;0.79000
155556;0.65000
158333;0.36000
161111;-0.02000
163889;-0.30500
166667;-0.45000
169444;-0.47000
172222;-0.42500
175000;-0.36500
177778;-0.34500
180556;-0.34500
183333;-0.34000
186111;-0.35000
188889;-0.35500
191667;-0.35000
194444;-0.34500
197222;-0.33000
200000;-0.34000
202778;-0.33500
205555;-0.34500
208333;-0.33500
211111;-0.33500
213889;-0.32500
216667;-0.33000
219444;-0.35000
222222;-0.35500
225000;-0.35500
227778;-0.34000
230555;-0.33500
233333;-0.32500
236111;-0.34000
238889;-0.36000
241667;-0.34500
244444;-0.34000
247222;-0.34000
250000;-0.34000
252778;-0.35000
255555;-0.36000
258333;-0.35000
261111;-0.34500
263889;-0.34000
266667;-0.34000
269444;-0.34000
272222;-0.35000
275000;-0.34000
277778;-0.34000
280555;-0.32500
283333;-0.32500
286111;-0.32500
288889;-0.34000
291667;-0.34000
294444;-0.33000
297222;-0.31500
300000;-0.33000
302778;-0.34000
305555;-0.35000
308333;-0.35000
311111;-0.34000
313889;-0.33500
316667;-0.33500
319444;-0.33500
322222;-0.35000
325000;-0.35500
327778;-0.34000
330555;-0.32000
333333;-0.32500
336111;-0.32000
338889;-0.33500
341667;-0.32500
344444;-0.31500
347222;-0.30500
350000;-0.32000
352778;-0.32000
355555;-0.33500
358333;-0.32500
361111;-0.33000
363889;-0.32000
366667;-0.32000
369444;-0.32500
372222;-0.35000
375000;-0.34000
377778;-0.33000
380555;-0.32000
383333;-0.32500
386111;-0.34000
388889;-0.35000
391667;-0.35500
394444;-0.35000
397222;-0.33000
400000;-0.33000
402778;-0.33500
405555;-0.34500
408333;-0.34000
411111;-0.34000
413889;-0.33000
416667;-0.32000
419444;-0.32500
422222;-0.34000
425000;-0.33000
427778;-0.32500
430555;-0.31500
433333;-0.30500
436111;-0.31500
438889;-0.31000
441667;-0.30500
444444;-0.28500
447222;-0.26500
450000;-0.26500
452778;-0.25500
455555;-0.26500
458333;-0.25500
461111;-0.23500
463889;-0.22000
466667;-0.23000
469444;-0.23000
472222;-0.22000
475000;-0.22000
477778;-0.21500
480555;-0.21500
483333;-0.21000
486111;-0.22000
488889;-0.23000
491667;-0.22500
494444;-0.22000
497222;-0.21000
500000;-0.20500
502778;-0.22500
505555;-0.23500
508333;-0.23000
511111;-0.22500
513889;-0.20000
516667;-0.20500
519444;-0.22500
522222;-0.23000
525000;-0.23000
527778;-0.22000
530555;-0.21500
533333;-0.21500
536111;-0.21500
538889;-0.23000
541667;-0.23000
544444;-0.22000
547222;-0.20500
550000;-0.21500
552778;-0.21500
555555;-0.23000
558333;-0.23500
561111;-0.22500
563889;-0.22500
566667;-0.23000
569444;-0.23500
572222;-0.24500
575000;-0.25000
577778;-0.24500
580555;-0.23000
583333;-0.22500
586111;-0.23500
588889;-0.24500
591667;-0.24500
594444;-0.24000
597222;-0.23000
600000;-0.24000
602778;-0.23500
605555;-0.27000
608333;-0.24500
611111;-0.25000
613889;-0.25000
616666;-0.24000
619444;-0.25000
622222;-0.25500
625000;-0.25000
627778;-0.24000
630555;-0.23500
633333;-0.24000
636111;-0.25000
638889;-0.26000
641666;-0.25500
644444;-0.24500
647222;-0.24000
650000;-0.25500
652778;-0.26000
655555;-0.27000
658333;-0.26000
661111;-0.25500
663889;-0.25500
666666;-0.25500
669444;-0.25500
672222;-0.26000
675000;-0.26000
677778;-0.25500
680555;-0.23000
683333;-0.22500
686111;-0.22500
688889;-0.24500
691666;-0.23500
694444;-0.23500
697222;-0.22500
700000;-0.23000
702778;-0.24000
705555;-0.25500
708333;-0.24000
711111;-0.23500
713889;-0.22500
716666;-0.23000
719444;-0.25000
722222;-0.26000
725000;-0.24500
727778;-0.24000
730555;-0.23000
733333;-0.22000
736111;-0.22000
738889;-0.22500
741666;-0.22000
744444;-0.20500
747222;-0.20000
750000;-0.19500
752778;-0.19000
755555;-0.19000
758333;-0.18000
761111;-0.16500
763889;-0.16000
766666;-0.15000
769444;-0.15500
772222;-0.15500
775000;-0.14000
777778;-0.13000
780555;-0.11500
783333;-0.11500
786111;-0.12000
788889;-0.15000
791666;-0.14500
794444;-0.15500
797222;-0.14500
800000;-0.14500
802778;-0.14500
805555;-0.15500
808333;-0.15500
811111;-0.13500
813889;-0.12500
816666;-0.10500
819444;-0.14000
822222;-0.17000
825000;-0.19500
827778;-0.18500
830555;-0.17500
833333;-0.19000
836111;-0.21000
838889;-0.22500
841666;-0.23000
844444;-0.23500
847222;-0.23000
850000;-0.25500
852778;-0.26000
855555;-0.28000
858333;-0.28000
861111;-0.26500
863889;-0.26500
866666;-0.26500
869444;-0.28000
872222;-0.28000
875000;-0.27500
877778;-0.27000
880555;-0.27500
883333;-0.28000
886111;-0.29000
888889;-0.30000
891666;-0.29500
894444;-0.28500
897222;-0.27000
900000;-0.26500
902778;-0.28500
905555;-0.29000
908333;-0.27500
911111;-0.28500
913889;-0.29500
916666;-0.32000
919444;-0.36000
922222;-0.41500
925000;-0.41000
927778;-0.42500
930555;-0.46500
933333;-0.51500
936111;-0.48000
938889;-0.42000
941666;-0.29500
944444;-0.17000
947222;0.01000
950000;0.24000
952778;0.49000
955555;0.69000
958333;0.83000
961111;0.92000
963889;0.97500
966666;0.95500
969444;0.85000
972222;0.67500
975000;0.47500
977778;0.27000
980555;0.04500
983333;-0.18000
986111;-0.35500
988889;-0.46000
991666;-0.46000
994444;-0.43000
997222;-0.37000
1000000;-0.34500
1002777;-0.35000
1005555;-0.36000
1008333;-0.36000
1011111;-0.35000
1013889;-0.35500
1016666;-0.35000
1019444;-0.34500
1022222;-0.35000
1025000;-0.33500
1027777;-0.33500
1030555;-0.33500
1033333;-0.33500
1036111;-0.33500
1038889;-0.35000
1041666;-0.34500
1044444;-0.34000
1047222;-0.33000
1050000;-0.34500
1052777;-0.35000
1055555;-0.35000
1058333;-0.35500
1061111;-0.33500
1063889;-0.33000
1066666;-0.33500
1069444;-0.34500
1072222;-0.36000
1075000;-0.35500
1077777;-0.35500
1080555;-0.36000
1083333;-0.35000
1086111;-0.36500
1088889;-0.38500
1091666;-0.37500
1094444;-0.34500
1097222;-0.34000
1100000;-0.34000
1102777;-0.35000
1105555;-0.36000
1108333;-0.38000
1111111;-0.35000
1113889;-0.34000
1116666;-0.35000
1119444;-0.34500
1122222;-0.36000
1125000;-0.36000
1127777;-0.35000
1130555;-0.34000
1133333;-0.34000
1136111;-0.34000
1138889;-0.36000
1141666;-0.36500
1144444;-0.35500
1147222;-0.34000
1150000;-0.35000
1152777;-0.36000
1155555;-0.36500
1158333;-0.38000
1161111;-0.36000
1163889;-0.34500
1166666;-0.34500
1169444;-0.35500
1172222;-0.36000
1175000;-0.36000
1177777;-0.36000
1180555;-0.34500
1183333;-0.35000
1186111;-0.36000
1188889;-0.36000
1191666;-0.35000
1194444;-0.35500
1197222;-0.34000
1200000;-0.34500
1202777;-0.35500
1205555;-0.36000
1208333;-0.36500
1211111;-0.36000
1213889;-0.34000
1216666;-0.36000
1219444;-0.36500
1222222;-0.37500
1225000;-0.38000
1227777;-0.38000
1230555;-0.37500
1233333;-0.38000
1236111;-0.38500
1238889;-0.39000
1241666;-0.39500
1244444;-0.38000
1247222;-0.36500
1250000;-0.36500
1252777;-0.36500
1255555;-0.38000
1258333;-0.36000
1261111;-0.34000
1263889;-0.32000
1266666;-0.31000
1269444;-0.31000
1272222;-0.31000
1275000;-0.29500
1277777;-0.28000
1280555;-0.26000
1283333;-0.25000
1286111;-0.26000
1288889;-0.27000
1291666;-0.26000
1294444;-0.25500
1297222;-0.25000
1300000;-0.25000
1302777;-0.24500
1305555;-0.27500
1308333;-0.25500
1311111;-0.24500
1313889;-0.23500
1316666;-0.25000
1319444;-0.24500
1322222;-0.25500
1325000;-0.24000
1327777;-0.24500
1330555;-0.22500
1333333;-0.24000
1336111;-0.25000
1338889;-0.26000
1341666;-0.25500
1344444;-0.24500
1347222;-0.24500
1350000;-0.23500
1352777;-0.25000
1355555;-0.26500
1358333;-0.26000
1361111;-0.24500
1363889;-0.23500
1366666;-0.24500
1369444;-0.26000
1372222;-0.28000
1375000;-0.27000
1377777;-0.27000
1380555;-0.26500
1383333;-0.27000
1386111;-0.26500
1388888;-0.28500
1391666;-0.28000
1394444;-0.28500
1397222;-0.27500
1400000;-0.28000
1402777;-0.28500
1405555;-0.29500
1408333;-0.28500
1411111;-0.28500
1413888;-0.28500
1416666;-0.29000
1419444;-0.29500
1422222;-0.30000
1425000;-0.30500
1427777;-0.29000
1430555;-0.29000
1433333;-0.28000
1436111;-0.30000
1438888;-0.31000
1441666;-0.29000
1444444;-0.30000
1447222;-0.29000
1450000;-0.29000
1452777;-0.29000
1455555;-0.30000
1458333;-0.28500
1461111;-0.29000
1463888;-0.27500
1466666;-0.29500
1469444;-0.30000
1472222;-0.30500
1475000;-0.29500
1477777;-0.30000
1480555;-0.28500
1483333;-0.28500
1486111;-0.30500
1488888;-0.31500
1491666;-0.31000
1494444;-0.30000
1497222;-0.28500
1500000;-0.29000
1502777;-0.30000
1505555;-0.30500
1508333;-0.30000
1511111;-0.30000
1513888;-0.29500
1516666;-0.28500
1519444;-0.30500
1522222;-0.32000
1525000;-0.31000
1527777;-0.29500
1530555;-0.28000
1533333;-0.28000
1536111;-0.30500
1538888;-0.32500
1541666;-0.32000
1544444;-0.30500
1547222;-0.30000
1550000;-0.29000
1552777;-0.31000
1555555;-0.29500
1558333;-0.28000
1561111;-0.27000
1563888;-0.25000
1566666;-0.25500
1569444;-0.25000
1572222;-0.24000
1575000;-0.23500
1577777;-0.22500
1580555;-0.22500
1583333;-0.22000
1586111;-0.21500
1588888;-0.21000
1591666;-0.20500
1594444;-0.20000
1597222;-0.17500
1600000;-0.17000
1602777;-0.17000
1605555;-0.19000
1608333;-0.19500
1611111;-0.19000
1613888;-0.19000
1616666;-0.18500
1619444;-0.19000
1622222;-0.19500
1625000;-0.20000
1627777;-0.19500
1630555;-0.18500
1633333;-0.17500
1636111;-0.17000
1638888;-0.19000
1641666;-0.21500
1644444;-0.23000
1647222;-0.23500
1650000;-0.24500
1652777;-0.26500
1655555;-0.29000
1658333;-0.30000
1661111;-0.30500
1663888;-0.31000
1666666;-0.31000
1669444;-0.31500
1672222;-0.31500
1675000;-0.31000
1677777;-0.32000
1680555;-0.30000
1683333;-0.31500
1686111;-0.31500
1688888;-0.32000
1691666;-0.31500
1694444;-0.32000
1697222;-0.31000
1700000;-0.31500
1702777;-0.31500
1705555;-0.32500
1708333;-0.32500
1711111;-0.31500
1713888;-0.31000
1716666;-0.32500
1719444;-0.33000
1722222;-0.33500
1725000;-0.33500
1727777;-0.32000
1730555;-0.31500
1733333;-0.33000
1736111;-0.32000
1738888;-0.33500
1741666;-0.35000
1744444;-0.34000
1747222;-0.37000
1750000;-0.40500
1752777;-0.44000
1755555;-0.45000
1758333;-0.47500
1761111;-0.52500
1763888;-0.52500
1766666;-0.48000
1769444;-0.38500
1772222;-0.28500
1775000;-0.14000
1777777;0.05000
1780555;0.31000
1783333;0.55000
1786111;0.73500
1788888;0.82500
1791666;0.77500
1794444;0.54500
1797222;0.20500
1799999;-0.13500
1802777;-0.37000
1805555;-0.48500
1808333;-0.49500
1811111;-0.46500
1813888;-0.41000
1816666;-0.40000
1819444;-0.39500
1822222;-0.40500
1824999;-0.40500
1827777;-0.38500
1830555;-0.37000
1833333;-0.37000
1836111;-0.37500
1838888;-0.40000
1841666;-0.39500
1844444;-0.38000
1847222;-0.37500
1849999;-0.36500
1852777;-0.38000
1855555;-0.39000
1858333;-0.38000
1861111;-0.37000
1863888;-0.36000
1866666;-0.36500
1869444;-0.38000
1872222;-0.40000
1874999;-0.40500
1877777;-0.40000
1880555;-0.37500
1883333;-0.38500
1886111;-0.39000
1888888;-0.39000
1891666;-0.39500
1894444;-0.37500
1897222;-0.37000
1899999;-0.38000
1902777;-0.38500
1905555;-0.39000
1908333;-0.38000
1911111;-0.37500
1913888;-0.38500
1916666;-0.37000
1919444;-0.38000
1922222;-0.38500
1924999;-0.38000
1927777;-0.37000
1930555;-0.36500
1933333;-0.37000
1936111;-0.37000
1938888;-0.39000
1941666;-0.37000
1944444;-0.37000
1947222;-0.36000
1949999;-0.37500
1952777;-0.38000
1955555;-0.38000
1958333;-0.38500
1961111;-0.38000
1963888;-0.36500
1966666;-0.36000
1969444;-0.38000
1972222;-0.39000
1974999;-0.38500
1977777;-0.37000
1980555;-0.35500
1983333;-0.35500
1986111;-0.36500
1988888;-0.38000
1991666;-0.37000
1994444;-0.37000
1997222;-0.36000
1999999;-0.36000
2002777;-0.38000
2005555;-0.37500
2008333;-0.38000
2011111;-0.37500
2013888;-0.37000
2016666;-0.36000
2019444;-0.37500
2022222;-0.38500
2024999;-0.38000
2027777;-0.39000
2030555;-0.38000
2033333;-0.40000
2036111;-0.41500
2038888;-0.41000
2041666;-0.41500
2044444;-0.41500
2047222;-0.40500
2049999;-0.40500
2052777;-0.41000
2055555;-0.42500
2058333;-0.42000
2061111;-0.40000
2063888;-0.39000
2066666;-0.38000
2069444;-0.38000
2072222;-0.37000
2074999;-0.37500
2077777;-0.33500
2080555;-0.31500
2083333;-0.30500
2086111;-0.30500
2088888;-0.30500
2091666;-0.29000
2094444;-0.27500
2097222;-0.26500
2099999;-0.26000
2102777;-0.26000
2105555;-0.26000
2108333;-0.27000
2111111;-0.25500
2113888;-0.23500
2116666;-0.23500
2119444;-0.25000
2122222;-0.25500
2124999;-0.25500
2127777;-0.24000
2130555;-0.22000
2133333;-0.22500
2136111;-0.23000
2138888;-0.24500
2141666;-0.24000
2144444;-0.22500
2147222;-0.22000
2149999;-0.22500
2152777;-0.23000
2155555;-0.22500
2158333;-0.23000
2161111;-0.22000
2163888;-0.21500
2166666;-0.21500
2169444;-0.21500
2172222;-0.24000
2174999;-0.24000
2177777;-0.24000
2180555;-0.25000
2183333;-0.23000
2186110;-0.24500
2188888;-0.26000
2191666;-0.25000
2194444;-0.23500
2197222;-0.24000
2199999;-0.23500
2202777;-0.23500
2205555;-0.24500
2208333;-0.25000
2211110;-0.24500
2213888;-0.23000
2216666;-0.24000
2219444;-0.24500
2222222;-0.26000
2224999;-0.26000
2227777;-0.24500
2230555;-0.24000
2233333;-0.23000
2236110;-0.25000
2238888;-0.26000
2241666;-0.25000
2244444;-0.24000
2247222;-0.23500
2249999;-0.24000
2252777;-0.25500
2255555;-0.25500
2258333;-0.26000
2261110;-0.25000
2263888;-0.24000
2266666;-0.24000
2269444;-0.25500
2272222;-0.26000
2274999;-0.26500
2277777;-0.26000
2280555;-0.25500
2283333;-0.25500
2286110;-0.26000
2288888;-0.26500
2291666;-0.26000
2294444;-0.25500
2297222;-0.24500
2299999;-0.24000
2302777;-0.23500
2305555;-0.25000
2308333;-0.25000
2311110;-0.24000
2313888;-0.22500
2316666;-0.23000
2319444;-0.24500
2322222;-0.26000
2324999;-0.26000
2327777;-0.25000
2330555;-0.23500
2333333;-0.25000
2336110;-0.24500
2338888;-0.24500
2341666;-0.24000
2344444;-0.22500
2347222;-0.21000
2349999;-0.20000
2352777;-0.21500
2355555;-0.21500
2358333;-0.20000
2361110;-0.17500
2363888;-0.17000
2366666;-0.17000
2369444;-0.17000
2372222;-0.16500
2374999;-0.14500
2377777;-0.14500
2380555;-0.11500
2383333;-0.12500
2386110;-0.13500
2388888;-0.12500
2391666;-0.13000
2394444;-0.12500
2397222;-0.13000
2399999;-0.13000
2402777;-0.14500
2405555;-0.16000
2408333;-0.16000
2411110;-0.14000
2413888;-0.13000
2416666;-0.13000
2419444;-0.14000
2422222;-0.13000
2424999;-0.12500
2427777;-0.12000
2430555;-0.13000
2433333;-0.18000
2436110;-0.20000
2438888;-0.21000
2441666;-0.21000
2444444;-0.23500
2447222;-0.22500
2449999;-0.23500
2452777;-0.25500
2455555;-0.26000
2458333;-0.25500
2461110;-0.24500
2463888;-0.23500
2466666;-0.25500
2469444;-0.27000
2472222;-0.28000
2474999;-0.28500
2477777;-0.26500
2480555;-0.26500
2483333;-0.27500
2486110;-0.28000
2488888;-0.28000
2491666;-0.28500
2494444;-0.27000
2497222;-0.26000
2499999;-0.26000
2502777;-0.28000
2505555;-0.27500
2508333;-0.28000
2511110;-0.28000
2513888;-0.27000
2516666;-0.27000
2519444;-0.27500
2522222;-0.29500
2524999;-0.29500
2527777;-0.28000
2530555;-0.29500
2533333;-0.34500
2536110;-0.36500
2538888;-0.41000
2541666;-0.42500
2544444;-0.45000
2547222;-0.48500
2549999;-0.48500
2552777;-0.42000
2555555;-0.33000
2558333;-0.21000
2561110;-0.04500
2563888;0.19000
2566666;0.45000
2569444;0.67500
2572222;0.81000
2574999;0.83500
2577777;0.71500
2580555;0.42000
2583333;0.04500
2586110;-0.26000
2588888;-0.42500
2591666;-0.45500
2594444;-0.41000
2597221;-0.35500
2599999;-0.34000
2602777;-0.34000
2605555;-0.35500
2608333;-0.34500
2611110;-0.35000
2613888;-0.34000
2616666;-0.34000
2619444;-0.33500
2622221;-0.34500
2624999;-0.35000
2627777;-0.34500
2630555;-0.33000
2633333;-0.34000
2636110;-0.36000
2638888;-0.34000
2641666;-0.34500
2644444;-0.32500
2647221;-0.32500
2649999;-0.34500
2652777;-0.33500
2655555;-0.34000
2658333;-0.33500
2661110;-0.33000
2663888;-0.33000
2666666;-0.33500
2669444;-0.35000
2672221;-0.34000
2674999;-0.34500
2677777;-0.34000
2680555;-0.34000
2683333;-0.34000
2686110;-0.34000
2688888;-0.34500
2691666;-0.35000
2694444;-0.34500
2697221;-0.34000
2699999;-0.33000
2702777;-0.34000
2705555;-0.34000
2708333;-0.34500
2711110;-0.33000
2713888;-0.31500
2716666;-0.33000
2719444;-0.33000
2722221;-0.35000
2724999;-0.34500
2727777;-0.33500
2730555;-0.32500
2733333;-0.32000
2736110;-0.33500
2738888;-0.34000
2741666;-0.34000
2744444;-0.33500
2747221;-0.32500
2749999;-0.33500
2752777;-0.34500
2755555;-0.35000
2758333;-0.35000
2761110;-0.33500
2763888;-0.32500
2766666;-0.32500
2769444;-0.34000
2772221;-0.35000
2774999;-0.33500
2777777;-0.32000
2780555;-0.32000
2783333;-0.32000
2786110;-0.32500
2788888;-0.32500
2791666;-0.33000
2794444;-0.31500
2797221;-0.32000
2799999;-0.32000
2802777;-0.33000
2805555;-0.33500
2808333;-0.33000
2811110;-0.32500
2813888;-0.32000
2816666;-0.32500
2819444;-0.34000
2822221;-0.33500
2824999;-0.33500
2827777;-0.33000
2830555;-0.32000
2833333;-0.32500
2836110;-0.33000
2838888;-0.33000
2841666;-0.33500
2844444;-0.32500
2847221;-0.31500
2849999;-0.31500
2852777;-0.31500
2855555;-0.32000
2858333;-0.31000
2861110;-0.29000
2863888;-0.27500
2866666;-0.26500
2869444;-0.27500
2872221;-0.26500
2874999;-0.26000
2877777;-0.25000
2880555;-0.23000
2883333;-0.23000
2886110;-0.23000
2888888;-0.24500
2891666;-0.24000
2894444;-0.22500
2897221;-0.21500
2899999;-0.22000
2902777;-0.22000
2905555;-0.24000
2908333;-0.23000
2911110;-0.23500
2913888;-0.22500
2916666;-0.22500
2919444;-0.23000
2922221;-0.24000
2924999;-0.23500
2927777;-0.22500
2930555;-0.21000
2933333;-0.22000
2936110;-0.22500
2938888;-0.24000
2941666;-0.24000
2944444;-0.22500
2947221;-0.22500
2949999;-0.24000
2952777;-0.24000
2955555;-0.25000
2958333;-0.25000
2961110;-0.24000
2963888;-0.23500
2966666;-0.24000
2969444;-0.24500
2972221;-0.26000
2974999;-0.25500
2977777;-0.25000
2980555;-0.25000
2983332;-0.24500
2986110;-0.25500
2988888;-0.26500
2991666;-0.26000
2994444;-0.26500
2997221;-0.23500
2999999;-0.23500
3002777;-0.24500
3005555;-0.26500
3008332;-0.27000
3011110;-0.27000
3013888;-0.25000
3016666;-0.26000
3019444;-0.28000
3022221;-0.27500
3024999;-0.27000
3027777;-0.27000
3030555;-0.26000
3033332;-0.26000
3036110;-0.27000
3038888;-0.28500
3041666;-0.27500
3044444;-0.26500
3047221;-0.25000
3049999;-0.25500
3052777;-0.26000
3055555;-0.27500
3058332;-0.27500
3061110;-0.25500
3063888;-0.26500
3066666;-0.27000
3069444;-0.28000
3072221;-0.28500
3074999;-0.28000
3077777;-0.28000
3080555;-0.27000
3083332;-0.27500
3086110;-0.27000
3088888;-0.28500
3091666;-0.27500
3094444;-0.27500
3097221;-0.24500
3099999;-0.24000
3102777;-0.25500
3105555;-0.26000
3108332;-0.26000
3111110;-0.23500
3113888;-0.22000
3116666;-0.22000
3119444;-0.22000
3122221;-0.23000
3124999;-0.22500
3127777;-0.20000
3130555;-0.18500
3133332;-0.19000
3136110;-0.17500
3138888;-0.18500
3141666;-0.16000
3144444;-0.16000
3147221;-0.13500
3149999;-0.14000
3152777;-0.16000
3155555;-0.15500
3158332;-0.17000
3161110;-0.18000
3163888;-0.18000
3166666;-0.17000
3169444;-0.17000
3172221;-0.18000
3174999;-0.17500
3177777;-0.16000
3180555;-0.14000
3183332;-0.14000
3186110;-0.16000
3188888;-0.19500
3191666;-0.22500
3194444;-0.24000
3197221;-0.23000
3199999;-0.25500
3202777;-0.27000
3205555;-0.28000
3208332;-0.30000
3211110;-0.28500
3213888;-0.27500
3216666;-0.28000
3219444;-0.30500
3222221;-0.29500
3224999;-0.31000
3227777;-0.30000
3230555;-0.29000
3233332;-0.30000
3236110;-0.32000
3238888;-0.32500
3241666;-0.32000
3244444;-0.31000
3247221;-0.29500
3249999;-0.30000
3252777;-0.31500
3255555;-0.31000
3258332;-0.31000
3261110;-0.30500
3263888;-0.30500
3266666;-0.30500
3269444;-0.31500
3272221;-0.32000
3274999;-0.34000
3277777;-0.34500
3280555;-0.36500
3283332;-0.40000
3286110;-0.41500
3288888;-0.44000
3291666;-0.44500
3294444;-0.45000
3297221;-0.48500
3299999;-0.52500
3302777;-0.53000
3305555;-0.47000
3308332;-0.37500
3311110;-0.24000
3313888;-0.06000
3316666;0.17000
3319444;0.43500
3322221;0.64500
3324999;0.75500
3327777;0.74000
3330555;0.56000
3333332;0.22000
3336110;-0.11500
3338888;-0.35500
3341666;-0.47500
3344444;-0.48500
3347221;-0.42500
3349999;-0.38500
3352777;-0.37000
3355555;-0.38500
3358332;-0.39000
3361110;-0.38000
3363888;-0.36000
3366666;-0.37000
3369444;-0.37000
3372221;-0.37500
3374999;-0.39000
3377777;-0.37500
3380555;-0.37000
3383332;-0.36500
3386110;-0.37000
3388888;-0.38000
3391666;-0.38000
3394443;-0.36000
3397221;-0.35000
3399999;-0.36000
3402777;-0.36500
3405555;-0.37000
3408332;-0.37000
3411110;-0.36000
3413888;-0.36000
3416666;-0.36500
3419443;-0.37500
3422221;-0.38500
3424999;-0.39500
3427777;-0.38500
3430555;-0.37500
3433332;-0.37500
3436110;-0.38000
3438888;-0.39500
3441666;-0.39000
3444443;-0.39000
3447221;-0.36500
3449999;-0.37500
3452777;-0.37500
3455555;-0.39000
3458332;-0.41500
3461110;-0.40500
3463888;-0.38000
3466666;-0.37000
3469443;-0.36500
3472221;-0.38500
3474999;-0.38000
3477777;-0.37000
3480555;-0.35500
3483332;-0.36500
3486110;-0.37000
3488888;-0.38000
3491666;-0.38500
3494443;-0.37500
3497221;-0.36500
3499999;-0.38500
3502777;-0.39000
3505555;-0.40500
3508332;-0.39500
3511110;-0.39000
3513888;-0.37500
3516666;-0.37000
3519443;-0.38000
3522221;-0.38500
3524999;-0.37500
3527777;-0.38500
3530555;-0.37000
3533332;-0.38500
3536110;-0.40000
3538888;-0.40000
3541666;-0.40000
3544443;-0.38500
3547221;-0.37500
3549999;-0.38000
3552777;-0.39000
3555555;-0.40500
3558332;-0.40000
3561110;-0.40000
3563888;-0.38000
3566666;-0.39000
3569443;-0.40500
3572221;-0.41000
3574999;-0.42000
3577777;-0.41500
3580555;-0.39500
3583332;-0.40000
3586110;-0.41000
3588888;-0.41500
3591666;-0.42500
3594443;-0.42000
3597221;-0.40500
3599999;-0.41000
3602777;-0.41000
3605555;-0.40000
3608332;-0.39000
3611110;-0.36000
3613888;-0.34000
3616666;-0.34000
3619443;-0.34500
3622221;-0.35500
3624999;-0.33500
3627777;-0.30500
3630555;-0.30000
3633332;-0.28000
3636110;-0.29000
3638888;-0.29500
3641666;-0.29500
3644443;-0.27500
3647221;-0.26500
3649999;-0.27000
3652777;-0.27500
3655555;-0.29000
3658332;-0.29000
3661110;-0.28000
3663888;-0.27000
3666666;-0.28500
3669443;-0.28000
3672221;-0.29000
3674999;-0.29500
3677777;-0.28500
3680555;-0.27000
3683332;-0.27000
3686110;-0.28000
3688888;-0.30500
3691666;-0.30500
3694443;-0.30000
3697221;-0.28500
3699999;-0.27500
3702777;-0.28500
3705555;-0.29000
3708332;-0.29500
3711110;-0.28500
3713888;-0.29500
3716666;-0.28500
3719443;-0.30000
3722221;-0.30000
3724999;-0.30000
3727777;-0.30000
3730555;-0.29500
3733332;-0.29000
3736110;-0.31000
3738888;-0.31000
3741666;-0.30500
3744443;-0.30000
3747221;-0.30000
3749999;-0.29500
3752777;-0.29500
3755555;-0.32000
3758332;-0.32000
3761110;-0.30500
3763888;-0.30000
3766666;-0.31500
3769443;-0.32000
3772221;-0.33000
3774999;-0.33500
3777777;-0.32500
3780554;-0.31500
3783332;-0.31500
3786110;-0.32000
3788888;-0.34500
3791666;-0.35500
3794443;-0.34000
3797221;-0.32000
3799999;-0.32000
3802777;-0.33000
3805554;-0.33500
3808332;-0.34500
3811110;-0.32500
3813888;-0.31000
3816666;-0.31000
3819443;-0.31500
3822221;-0.32000
3824999;-0.33000
3827777;-0.31500
3830554;-0.31500
3833332;-0.31500
3836110;-0.33500
3838888;-0.34000
3841666;-0.34500
3844443;-0.31500
3847221;-0.31000
3849999;-0.30500
3852777;-0.30000
3855554;-0.30500
3858332;-0.29500
3861110;-0.28500
3863888;-0.27000
3866666;-0.28000
3869443;-0.29000
3872221;-0.28500
3874999;-0.28500
3877777;-0.27500
3880554;-0.25000
3883332;-0.25000
3886110;-0.25000
3888888;-0.24000
3891666;-0.23500
3894443;-0.21500
3897221;-0.21000
3899999;-0.20000
3902777;-0.21000
3905554;-0.20500
3908332;-0.22500
3911110;-0.21500
3913888;-0.21500
3916666;-0.22500
3919443;-0.24500
3922221;-0.24000
3924999;-0.23000
3927777;-0.22500
3930554;-0.20500
3933332;-0.21000
3936110;-0.20000
3938888;-0.19500
3941666;-0.22500
3944443;-0.25000
3947221;-0.26500
3949999;-0.27500
3952777;-0.29000
3955554;-0.31000
3958332;-0.33500
3961110;-0.33500
3963888;-0.33000
3966666;-0.33500
3969443;-0.34000
3972221;-0.33000
3974999;-0.34000
3977777;-0.33500
3980554;-0.33000
3983332;-0.34000
3986110;-0.34000
3988888;-0.35000
3991666;-0.36000
3994443;-0.35500
3997221;-0.35500
3999999;-0.35500
4002777;-0.36500
4005554;-0.37000
4008332;-0.36000
4011110;-0.35500
4013888;-0.35500
4016666;-0.35500
4019443;-0.36000
4022221;-0.37000
4024999;-0.39000
4027777;-0.40500
4030554;-0.44000
4033332;-0.46000
4036110;-0.48000
4038888;-0.47000
4041666;-0.47500
4044443;-0.50000
4047221;-0.54000
4049999;-0.58500
4052777;-0.59500
4055554;-0.54500
4058332;-0.45500
4061110;-0.35500
4063888;-0.22500
4066666;-0.07500
4069443;0.14500
4072221;0.43500
4074999;0.65500
4077777;0.79500
4080554;0.79000
4083332;0.57000
4086110;0.23500
4088888;-0.12500
4091666;-0.37000
4094443;-0.48000
4097221;-0.50500
4099999;-0.48500
4102777;-0.45000
4105554;-0.44500
4108332;-0.42500
4111110;-0.41500
4113888;-0.40000
4116666;-0.39500
4119443;-0.40500
4122221;-0.40500
4124999;-0.41500
4127777;-0.40500
4130554;-0.39500
4133332;-0.40000
4136110;-0.41000
4138888;-0.41000
4141666;-0.40500
4144443;-0.41500
4147221;-0.40000
4149999;-0.41000
4152777;-0.42000
4155554;-0.42000
4158332;-0.42500
4161110;-0.42000
4163888;-0.40500
4166666;-0.40500
4169443;-0.41000
4172221;-0.41000
4174999;-0.42000
4177777;-0.40500
4180554;-0.40000
4183332;-0.40000
4186110;-0.40500
4188888;-0.42000
4191665;-0.41500
4194443;-0.41000
4197221;-0.38500
4199999;-0.38500
4202777;-0.39500
4205554;-0.40500
4208332;-0.40500
4211110;-0.40000
4213888;-0.39500
4216665;-0.39500
4219443;-0.40000
4222221;-0.41000
4224999;-0.42500
4227777;-0.42000
4230554;-0.40500
4233332;-0.41000
4236110;-0.41500
4238888;-0.42500
4241665;-0.43000
4244443;-0.43000
4247221;-0.41500
4249999;-0.40500
4252777;-0.43000
4255554;-0.43500
4258332;-0.43000
4261110;-0.41500
4263888;-0.40500
4266665;-0.40500
4269443;-0.41000
4272221;-0.41500
4274999;-0.40500
4277777;-0.39500
4280554;-0.39000
4283332;-0.40500
4286110;-0.41500
4288888;-0.42000
4291665;-0.42500
4294443;-0.42000
4297221;-0.41000
4299999;-0.41500
4302777;-0.41500
4305554;-0.42500
4308332;-0.44000
4311110;-0.43500
4313888;-0.42500
4316665;-0.43000
4319443;-0.43500
4322221;-0.44000
4324999;-0.44500
4327777;-0.44000
4330554;-0.43500
4333332;-0.41500
4336110;-0.42500
4338888;-0.42500
4341665;-0.43500
4344443;-0.42500
4347221;-0.40000
4349999;-0.39500
4352777;-0.39000
4355554;-0.39000
4358332;-0.39000
4361110;-0.38000
4363888;-0.37000
4366665;-0.37000
4369443;-0.35500
4372221;-0.34500
4374999;-0.34500
4377777;-0.32000
4380554;-0.31500
4383332;-0.31500
4386110;-0.30500
4388888;-0.30500
4391665;-0.31000
4394443;-0.29500
4397221;-0.28000
4399999;-0.28000
4402777;-0.28000
4405554;-0.29500
4408332;-0.30500
4411110;-0.28000
4413888;-0.27500
4416665;-0.26500
4419443;-0.28000
4422221;-0.29500
4424999;-0.29000
4427777;-0.28000
4430554;-0.27000
4433332;-0.27000
4436110;-0.28500
4438888;-0.28000
4441665;-0.28000
4444443;-0.28000
4447221;-0.27000
4449999;-0.28000
4452777;-0.29000
4455554;-0.29000
4458332;-0.29500
4461110;-0.28000
4463888;-0.27500
4466665;-0.28000
4469443;-0.28000
4472221;-0.30000
4474999;-0.30000
4477777;-0.27500
4480554;-0.26500
4483332;-0.27500
4486110;-0.28500
4488888;-0.30000
4491665;-0.29500
4494443;-0.29000
4497221;-0.28000
4499999;-0.29000
4502777;-0.28500
4505554;-0.30500
4508332;-0.30500
4511110;-0.30000
4513888;-0.28000
4516665;-0.29000
4519443;-0.29500
4522221;-0.31000
4524999;-0.31500
4527777;-0.31000
4530554;-0.29500
4533332;-0.29000
4536110;-0.30500
4538888;-0.31500
4541665;-0.31500
4544443;-0.30500
4547221;-0.30500
4549999;-0.30000
4552777;-0.31500
4555554;-0.31500
4558332;-0.31000
4561110;-0.31000
4563888;-0.31000
4566665;-0.30000
4569443;-0.31000
4572221;-0.31000
4574999;-0.33000
4577776;-0.30500
4580554;-0.30000
4583332;-0.29000
4586110;-0.29500
4588888;-0.31000
4591665;-0.30500
4594443;-0.28500
4597221;-0.26000
4599999;-0.26500
4602776;-0.27000
4605554;-0.25500
4608332;-0.25000
4611110;-0.24000
4613888;-0.21500
4616665;-0.22000
4619443;-0.22000
4622221;-0.22000
4624999;-0.21500
4627776;-0.20500
4630554;-0.19000
4633332;-0.20000
4636110;-0.20500
4638888;-0.21000
4641665;-0.20000
4644443;-0.19000
4647221;-0.20000
4649999;-0.21000
4652776;-0.22000
4655554;-0.22000
4658332;-0.22000
4661110;-0.19000
4663888;-0.16500
4666665;-0.15500
4669443;-0.14000
4672221;-0.17000
4674999;-0.22000
4677776;-0.23500
4680554;-0.24000
4683332;-0.24000
4686110;-0.27000
4688888;-0.28500
4691665;-0.30500
4694443;-0.31000
4697221;-0.30500
4699999;-0.32500
4702776;-0.34000
4705554;-0.33000
4708332;-0.34500
4711110;-0.34000
4713888;-0.32000
4716665;-0.32500
4719443;-0.33500
4722221;-0.36000
4724999;-0.35000
4727776;-0.34500
4730554;-0.33500
4733332;-0.33500
4736110;-0.34500
4738888;-0.36000
4741665;-0.36500
4744443;-0.34000
4747221;-0.32500
4749999;-0.32500
4752776;-0.35000
4755554;-0.36000
4758332;-0.40500
4761110;-0.43000
4763888;-0.43500
4766665;-0.46000
4769443;-0.50500
4772221;-0.55500
4774999;-0.54500
4777776;-0.45500
4780554;-0.33000
4783332;-0.20500
4786110;-0.05000
4788888;0.14500
4791665;0.39000
4794443;0.61500
4797221;0.77000
4799999;0.85000
4802776;0.92000
4805554;0.91500
4808332;0.81000
4811110;0.58500
4813888;0.25500
4816665;-0.10500
4819443;-0.39000
4822221;-0.50500
4824999;-0.49500
4827776;-0.44500
4830554;-0.40500
4833332;-0.41000
4836110;-0.40000
4838888;-0.40000
4841665;-0.42000
4844443;-0.41000
4847221;-0.41000
4849999;-0.40000
4852776;-0.40500
4855554;-0.39500
4858332;-0.39500
4861110;-0.39500
4863888;-0.39000
4866665;-0.40500
4869443;-0.40500
4872221;-0.41500
4874999;-0.41500
4877776;-0.41000
4880554;-0.41000
4883332;-0.40500
4886110;-0.41000
4888888;-0.43000
4891665;-0.44500
4894443;-0.44500
4897221;-0.42500
4899999;-0.42000
4902776;-0.42500
4905554;-0.43000
4908332;-0.42000
4911110;-0.40500
4913888;-0.38500
4916665;-0.40000
4919443;-0.40500
4922221;-0.40000
4924999;-0.40500
4927776;-0.41000
4930554;-0.40000
4933332;-0.40000
4936110;-0.41000
4938888;-0.41000
4941665;-0.42000
4944443;-0.42000
4947221;-0.41500
4949999;-0.42000
4952776;-0.42500
4955554;-0.45000
4958332;-0.45500
4961110;-0.44500
4963887;-0.42000
4966665;-0.41500
4969443;-0.41000
4972221;-0.41500
4974999;-0.41500
4977776;-0.39500
4980554;-0.41000
4983332;-0.42500
4986110;-0.44000
4988887;-0.45000
4991665;-0.47000
4994443;-0.45500
4997221;-0.43000
4999999;-0.41000
5002776;-0.41000
5005554;-0.42000
5008332;-0.43500
5011110;-0.40500
5013887;-0.38500
5016665;-0.37000
5019443;-0.39500
5022221;-0.43000
5024999;-0.45500
5027776;-0.45500
5030554;-0.43000
5033332;-0.43500
5036110;-0.45500
5038887;-0.47000
5041665;-0.47000
5044443;-0.42000
5047221;-0.40000
5049999;-0.38500
5052776;-0.39500
5055554;-0.43500
5058332;-0.45000
5061110;-0.44500
5063887;-0.42000
5066665;-0.41000
5069443;-0.40500
5072221;-0.39000
5074999;-0.38500
5077776;-0.37500
5080554;-0.37500
5083332;-0.37000
5086110;-0.39500
5088887;-0.40500
5091665;-0.40000
5094443;-0.39500
5097221;-0.38000
5099999;-0.37000
5102776;-0.34500
5105554;-0.34000
5108332;-0.34000
5111110;-0.33000
5113887;-0.33000
5116665;-0.33000
5119443;-0.32500
5122221;-0.32500
5124999;-0.32500
5127776;-0.32000
5130554;-0.32000
5133332;-0.34000
5136110;-0.34500
5138887;-0.34000
5141665;-0.31500
5144443;-0.31000
5147221;-0.31500
5149999;-0.34000
5152776;-0.35500
5155554;-0.35500
5158332;-0.33500
5161110;-0.32500
5163887;-0.30500
5166665;-0.30500
5169443;-0.33500
5172221;-0.35000
5174999;-0.37000
5177776;-0.36500
5180554;-0.35000
5183332;-0.35500
5186110;-0.36500
5188887;-0.38000
5191665;-0.37000
5194443;-0.35500
5197221;-0.32500
5199999;-0.32000
5202776;-0.32000
5205554;-0.34500
5208332;-0.36500
5211110;-0.37500
5213887;-0.36000
5216665;-0.35000
5219443;-0.35000
5222221;-0.37000
5224999;-0.36500
5227776;-0.36500
5230554;-0.35000
5233332;-0.34500
5236110;-0.36500
5238887;-0.38500
5241665;-0.38500
5244443;-0.37000
5247221;-0.35000
5249999;-0.37500
5252776;-0.39000
5255554;-0.38500
5258332;-0.39000
5261110;-0.38000
5263887;-0.40500
5266665;-0.41500
5269443;-0.42500
5272221;-0.38500
5274999;-0.35500
5277776;-0.34500
5280554;-0.36000
5283332;-0.37000
5286110;-0.39000
5288887;-0.39500
5291665;-0.37500
5294443;-0.36000
5297221;-0.35500
5299999;-0.35500
5302776;-0.35000
5305554;-0.36000
5308332;-0.36500
5311110;-0.35000
5313887;-0.32500
5316665;-0.29500
5319443;-0.30500
5322221;-0.33500
5324999;-0.35000
5327776;-0.34500
5330554;-0.32000
5333332;-0.30000
5336110;-0.28500
5338887;-0.28500
5341665;-0.29000
5344443;-0.28000
5347221;-0.23000
5349999;-0.23000
5352776;-0.24500
5355554;-0.26000
5358332;-0.27000
5361110;-0.25500
5363887;-0.26000
5366665;-0.24500
5369443;-0.27000
5372221;-0.26500
5374998;-0.27000
5377776;-0.25000
5380554;-0.22000
5383332;-0.21500
5386110;-0.25000
5388887;-0.28000
5391665;-0.31500
5394443;-0.33000
5397221;-0.33000
5399998;-0.35000
5402776;-0.34500
5405554;-0.37500
5408332;-0.38500
5411110;-0.38000
5413887;-0.35000
5416665;-0.34000
5419443;-0.33500
5422221;-0.34000
5424998;-0.37000
5427776;-0.38500
5430554;-0.38000
5433332;-0.37000
5436110;-0.35000
5438887;-0.35500
5441665;-0.37000
5444443;-0.38000
5447221;-0.38500
5449998;-0.38000
5452776;-0.39000
5455554;-0.39000
5458332;-0.39000
5461110;-0.38500
5463887;-0.38000
5466665;-0.40000
5469443;-0.40000
5472221;-0.40000
5474998;-0.40500
5477776;-0.44500
5480554;-0.46500
5483332;-0.45000
5486110;-0.45500
5488887;-0.49000
5491665;-0.57500
5494443;-0.62500
5497221;-0.62000
5499998;-0.57000
5502776;-0.48500
5505554;-0.37500
5508332;-0.23000
5511110;-0.01000
5513887;0.27000
5516665;0.53000
5519443;0.73000
5522221;0.78500
5524998;0.67500
5527776;0.37000
5530554;0.02000
5533332;-0.29500
5536110;-0.46500
5538887;-0.51500
5541665;-0.51500
5544443;-0.47500
5547221;-0.43500
5549998;-0.40500
5552776;-0.40000
5555554;-0.40500
5558332;-0.40000
5561110;-0.37000
5563887;-0.35000
5566665;-0.33500
5569443;-0.35500
5572221;-0.36500
5574998;-0.37000
5577776;-0.37000
5580554;-0.37500
5583332;-0.40000
5586110;-0.40500
5588887;-0.38500
5591665;-0.37000
5594443;-0.34000
5597221;-0.34000
5599998;-0.34000
5602776;-0.35000
5605554;-0.34500
5608332;-0.36000
5611110;-0.37500
5613887;-0.37000
5616665;-0.34000
5619443;-0.33000
5622221;-0.35000
5624998;-0.35000
5627776;-0.33500
5630554;-0.33000
5633332;-0.32500
5636110;-0.33000
5638887;-0.34000
5641665;-0.33500
5644443;-0.34000
5647221;-0.36500
5649998;-0.39000
5652776;-0.37500
5655554;-0.35000
5658332;-0.34500
5661110;-0.33000
5663887;-0.31500
5666665;-0.31000
5669443;-0.34000
5672221;-0.37000
5674998;-0.38500
5677776;-0.36500
5680554;-0.36000
5683332;-0.36000
5686110;-0.34500
5688887;-0.31500
5691665;-0.30000
5694443;-0.27500
5697221;-0.28500
5699998;-0.29000
5702776;-0.29500
5705554;-0.31500
5708332;-0.32000
5711110;-0.31500
5713887;-0.30500
5716665;-0.30000
5719443;-0.32000
5722221;-0.32500
5724998;-0.31500
5727776;-0.27500
5730554;-0.27000
5733332;-0.29000
5736110;-0.31000
5738887;-0.30000
5741665;-0.29000
5744443;-0.27500
5747221;-0.27500
5749998;-0.28000
5752776;-0.30500
5755554;-0.34000
5758332;-0.35000
5761109;-0.34000
5763887;-0.33000
5766665;-0.33500
5769443;-0.33500
5772221;-0.33500
5774998;-0.32500
5777776;-0.30500
5780554;-0.29500
5783332;-0.29500
5786109;-0.29000
5788887;-0.30000
5791665;-0.28500
5794443;-0.26500
5797221;-0.25000
5799998;-0.24500
5802776;-0.24500
5805554;-0.23500
5808332;-0.23000
5811109;-0.22000
5813887;-0.18500
5816665;-0.17000
5819443;-0.20000
5822221;-0.20500
5824998;-0.18500
5827776;-0.14500
5830554;-0.12500
5833332;-0.13500
5836109;-0.16500
5838887;-0.18500
5841665;-0.19000
5844443;-0.15500
5847221;-0.11000
5849998;-0.09000
5852776;-0.12500
5855554;-0.13000
5858332;-0.13000
5861109;-0.12500
5863887;-0.12000
5866665;-0.13000
5869443;-0.12000
5872221;-0.09500
5874998;-0.08000
5877776;-0.08500
5880554;-0.08000
5883332;-0.09000
5886109;-0.10000
5888887;-0.13000
5891665;-0.15000
5894443;-0.13500
5897221;-0.11500
5899998;-0.11500
5902776;-0.11500
5905554;-0.14500
5908332;-0.13500
5911109;-0.10500
5913887;-0.07500
5916665;-0.08500
5919443;-0.10500
5922221;-0.13500
5924998;-0.15000
5927776;-0.12500
5930554;-0.10500
5933332;-0.10000
5936109;-0.10500
5938887;-0.12500
5941665;-0.14000
5944443;-0.13500
5947221;-0.10000
5949998;-0.11500
5952776;-0.13000
5955554;-0.14500
5958332;-0.13000
5961109;-0.10500
5963887;-0.09000
5966665;-0.12000
5969443;-0.14000
5972221;-0.15500
5974998;-0.15500
5977776;-0.15000
5980554;-0.14000
5983332;-0.11500
5986109;-0.09500
5988887;-0.12500
5991665;-0.15000
5994443;-0.14000
5997221;-0.12500
5999998;-0.14000
6002776;-0.15000
6005554;-0.13000
6008332;-0.09500
6011109;-0.05500
6013887;-0.05000
6016665;-0.06500
6019443;-0.06500
6022221;-0.08000
6024998;-0.08000
6027776;-0.09000
6030554;-0.09000
6033332;-0.08000
6036109;-0.08000
6038887;-0.08000
6041665;-0.10000
6044443;-0.09000
6047221;-0.07500
6049998;-0.04000
6052776;-0.00500
6055554;0.01000
6058332;0.02000
6061109;0.02500
6063887;0.04500
6066665;0.04500
6069443;0.04500
6072221;0.04000
6074998;0.04500
6077776;0.05500
6080554;0.08000
6083332;0.07500
6086109;0.05000
6088887;-0.01000
6091665;-0.03000
6094443;-0.03500
6097221;-0.01500
6099998;0.01000
6102776;0.04000
6105554;0.06500
6108332;0.09000
6111109;0.09000
6113887;0.06500
6116665;0.05000
6119443;0.01500
6122221;-0.00500
6124998;-0.03000
6127776;-0.04500
6130554;-0.04500
6133332;-0.04500
6136109;-0.06000
6138887;-0.10000
6141665;-0.09500
6144443;-0.07000
6147221;-0.03000
6149998;-0.03500
6152776;-0.07500
6155554;-0.10500
6158332;-0.09500
6161109;-0.08500
6163887;-0.07500
6166665;-0.10000
6169443;-0.11500
6172220;-0.13000
6174998;-0.12500
6177776;-0.10000
6180554;-0.08500
6183332;-0.08000
6186109;-0.07000
6188887;-0.07000
6191665;-0.07500
6194443;-0.08500
6197220;-0.09500
6199998;-0.09000
6202776;-0.09000
6205554;-0.08500
6208332;-0.07500
6211109;-0.06500
6213887;-0.07000
6216665;-0.11500
6219443;-0.15500
6222220;-0.19000
6224998;-0.20500
6227776;-0.24000
6230554;-0.25500
6233332;-0.23000
6236109;-0.13000
6238887;-0.03500
6241665;0.07500
6244443;0.21500
6247220;0.40500
6249998;0.66000
6252776;0.86000
6255554;0.96000
6258332;0.94500
6261109;0.81000
6263887;0.53500
6266665;0.18500
6269443;-0.09000
6272220;-0.23500
6274998;-0.24500
6277776;-0.17000
6280554;-0.10500
6283332;-0.11000
6286109;-0.13000
6288887;-0.14000
6291665;-0.14000
6294443;-0.11000
6297220;-0.09000
6299998;-0.08000
6302776;-0.08000
6305554;-0.11500
6308332;-0.14000
6311109;-0.13500
6313887;-0.11500
6316665;-0.10500
6319443;-0.09500
6322220;-0.11000
6324998;-0.12000
6327776;-0.12000
6330554;-0.12000
6333332;-0.10500
6336109;-0.09000
6338887;-0.09500
6341665;-0.11000
6344443;-0.10000
6347220;-0.08500
6349998;-0.09000
6352776;-0.09500
6355554;-0.11000
6358332;-0.13000
6361109;-0.13000
6363887;-0.11500
6366665;-0.10000
6369443;-0.10500
6372220;-0.11500
6374998;-0.12500
6377776;-0.12000
6380554;-0.12500
6383332;-0.13000
6386109;-0.14000
6388887;-0.14500
6391665;-0.13500
6394443;-0.11500
6397220;-0.10000
6399998;-0.09500
6402776;-0.10000
6405554;-0.11000
6408332;-0.11500
6411109;-0.11000
6413887;-0.09000
6416665;-0.10500
6419443;-0.10000
6422220;-0.11000
6424998;-0.11000
6427776;-0.10500
6430554;-0.10500
6433332;-0.10000
6436109;-0.10000
6438887;-0.11500
6441665;-0.12000
6444443;-0.09500
6447220;-0.09500
6449998;-0.09000
6452776;-0.08500
6455554;-0.09500
6458332;-0.10000
6461109;-0.10000
6463887;-0.10000
6466665;-0.10000
6469443;-0.10500
6472220;-0.12500
6474998;-0.13000
6477776;-0.13000
6480554;-0.12500
6483332;-0.13500
6486109;-0.12000
6488887;-0.13500
6491665;-0.13500
6494443;-0.13500
6497220;-0.12500
6499998;-0.12500
6502776;-0.13500
6505554;-0.15000
6508332;-0.16000
6511109;-0.13000
6513887;-0.10000
6516665;-0.10000
6519443;-0.10500
6522220;-0.10500
6524998;-0.10500
6527776;-0.09500
6530554;-0.11000
6533332;-0.13000
6536109;-0.13000
6538887;-0.13500
6541665;-0.12500
6544443;-0.13500
6547220;-0.10500
6549998;-0.10500
6552776;-0.11000
6555554;-0.13000
6558331;-0.13500
6561109;-0.11500
6563887;-0.10500
6566665;-0.08000
6569443;-0.08000
6572220;-0.08000
6574998;-0.06500
6577776;-0.03000
6580554;-0.03000
6583331;-0.02500
6586109;-0.03500
6588887;-0.04000
6591665;-0.03000
6594443;0.00500
6597220;0.01500
6599998;-0.01000
6602776;-0.02000
6605554;-0.02500
6608331;-0.04000
6611109;-0.04500
6613887;-0.05500
6616665;-0.05000
6619443;-0.03000
6622220;-0.03000
6624998;-0.02000
6627776;-0.02500
6630554;-0.02500
6633331;-0.00500
6636109;-0.02500
6638887;-0.04500
6641665;-0.06500
6644443;-0.06000
6647220;-0.05000
6649998;-0.04000
6652776;-0.05000
6655554;-0.03500
6658331;-0.04000
6661109;-0.03000
6663887;-0.02000
6666665;-0.03000
6669443;-0.03500
6672220;-0.05000
6674998;-0.06500
6677776;-0.05500
6680554;-0.05000
6683331;-0.07000
6686109;-0.06000
6688887;-0.08000
6691665;-0.09000
6694443;-0.08500
6697220;-0.08000
6699998;-0.07000
6702776;-0.08000
6705554;-0.08000
6708331;-0.09500
6711109;-0.07500
6713887;-0.06500
6716665;-0.07000
6719443;-0.07500
6722220;-0.09500
6724998;-0.10000
6727776;-0.10500
6730554;-0.10500
6733331;-0.10500
6736109;-0.11000
6738887;-0.12000
6741665;-0.13000
6744443;-0.12000
6747220;-0.11500
6749998;-0.11000
6752776;-0.10500
6755554;-0.10000
6758331;-0.10500
6761109;-0.10500
6763887;-0.11000
6766665;-0.11500
6769443;-0.11500
6772220;-0.13000
6774998;-0.13500
6777776;-0.13500
6780554;-0.12500
6783331;-0.11500
6786109;-0.09500
6788887;-0.09500
6791665;-0.10000
6794443;-0.09500
6797220;-0.08000
6799998;-0.06500
6802776;-0.07000
6805554;-0.09000
6808331;-0.08500
6811109;-0.07000
6813887;-0.06500
6816665;-0.05000
6819443;-0.06000
6822220;-0.05500
6824998;-0.04500
6827776;-0.04500
6830554;-0.04000
6833331;-0.04000
