time_ms;ecg_value
0;-0.53000
2778;-0.56500
5556;-0.62000
8333;-0.63000
11111;-0.58500
13889;-0.49000
16667;-0.37000
19444;-0.25000
22222;-0.08000
25000;0.18000
27778;0.45500
30556;0.65000
33333;0.76500
36111;0.73500
38889;0.54000
41667;0.19500
44444;-0.13500
47222;-0.38500
50000;-0.52500
52778;-0.56500
55556;-0.53000
58333;-0.49000
61111;-0.46500
63889;-0.45500
66667;-0.46000
69444;-0.47000
72222;-0.46500
75000;-0.46000
77778;-0.44500
80556;-0.43500
83333;-0.44000
86111;-0.44000
88889;-0.45000
91667;-0.45500
94444;-0.44500
97222;-0.45500
100000;-0.46000
102778;-0.45500
105556;-0.46000
108333;-0.44500
111111;-0.43500
113889;-0.44000
116667;-0.45000
119444;-0.45500
122222;-0.45000
125000;-0.46000
127778;-0.44500
130556;-0.45000
133333;-0.45000
136111;-0.45500
138889;-0.47000
141667;-0.46000
144444;-0.45500
147222;-0.44500
150000;-0.46000
152778;-0.45500
155556;-0.45500
158333;-0.45500
161111;-0.46000
163889;-0.46500
166667;-0.46500
169444;-0.47500
172222;-0.46500
175000;-0.45000
177778;-0.44500
180556;-0.44500
183333;-0.45500
186111;-0.46000
188889;-0.45500
191667;-0.45500
194444;-0.44000
197222;-0.44000
200000;-0.45000
202778;-0.45500
205555;-0.46000
208333;-0.44500
211111;-0.43500
213889;-0.44500
216667;-0.45500
219444;-0.46500
222222;-0.48500
225000;-0.47500
227778;-0.45500
230555;-0.44500
233333;-0.44500
236111;-0.45000
238889;-0.45500
241667;-0.45000
244444;-0.43500
247222;-0.44500
250000;-0.45000
252778;-0.45000
255555;-0.46000
258333;-0.45000
261111;-0.44000
263889;-0.44500
266667;-0.46000
269444;-0.47500
272222;-0.47500
275000;-0.46500
277778;-0.46000
280555;-0.47000
283333;-0.48000
286111;-0.50000
288889;-0.50000
291667;-0.48500
294444;-0.48500
297222;-0.48500
300000;-0.49000
302778;-0.49500
305555;-0.50500
308333;-0.49000
311111;-0.50000
313889;-0.50500
316667;-0.50500
319444;-0.51000
322222;-0.51500
325000;-0.50500
327778;-0.50000
330555;-0.49500
333333;-0.50500
336111;-0.50000
338889;-0.50000
341667;-0.48000
344444;-0.45500
347222;-0.42500
350000;-0.42500
352778;-0.41500
355555;-0.40500
358333;-0.39500
361111;-0.38000
363889;-0.38500
366667;-0.38000
369444;-0.38500
372222;-0.39500
375000;-0.38500
377778;-0.37000
380555;-0.35500
383333;-0.35500
386111;-0.37000
388889;-0.37000
391667;-0.35500
394444;-0.34500
397222;-0.34000
400000;-0.34500
402778;-0.34000
405555;-0.34500
408333;-0.34000
411111;-0.33500
413889;-0.35000
416667;-0.35000
419444;-0.35000
422222;-0.35500
425000;-0.34000
427778;-0.33500
430555;-0.34500
433333;-0.33500
436111;-0.33500
438889;-0.33500
441667;-0.32500
444444;-0.31500
447222;-0.32000
450000;-0.34000
452778;-0.35000
455555;-0.35000
458333;-0.35000
461111;-0.33500
463889;-0.35000
466667;-0.36500
469444;-0.36500
472222;-0.37000
475000;-0.37000
477778;-0.35500
480555;-0.35500
483333;-0.36000
486111;-0.37000
488889;-0.37000
491667;-0.37000
494444;-0.35500
497222;-0.35500
500000;-0.35500
502778;-0.38000
505555;-0.37000
508333;-0.36500
511111;-0.35000
513889;-0.35000
516667;-0.36500
519444;-0.36000
522222;-0.37500
525000;-0.36500
527778;-0.36000
530555;-0.36000
533333;-0.38000
536111;-0.39000
538889;-0.38500
541667;-0.38000
544444;-0.37500
547222;-0.37500
550000;-0.38500
552778;-0.39500
555555;-0.40500
558333;-0.38500
561111;-0.36500
563889;-0.38000
566667;-0.38500
569444;-0.37500
572222;-0.37500
575000;-0.37000
577778;-0.36000
580555;-0.36000
583333;-0.37000
586111;-0.38000
588889;-0.38000
591667;-0.37000
594444;-0.35500
597222;-0.36500
600000;-0.37000
602778;-0.38000
605555;-0.38000
608333;-0.37500
611111;-0.36500
613889;-0.37000
616666;-0.38500
619444;-0.40000
622222;-0.39000
625000;-0.38500
627778;-0.36500
630555;-0.36500
633333;-0.38500
636111;-0.38000
638889;-0.38500
641666;-0.38500
644444;-0.36500
647222;-0.36000
650000;-0.35500
652778;-0.35000
655555;-0.35000
658333;-0.32000
661111;-0.31000
663889;-0.30000
666666;-0.30500
669444;-0.30500
672222;-0.30500
675000;-0.29000
677778;-0.27500
680555;-0.28500
683333;-0.27500
686111;-0.27000
688889;-0.27000
691666;-0.26500
694444;-0.25500
697222;-0.26500
700000;-0.28500
702778;-0.28500
705555;-0.30000
708333;-0.29500
711111;-0.28000
713889;-0.27500
716666;-0.29000
719444;-0.30500
722222;-0.31000
725000;-0.28000
727778;-0.24500
730555;-0.25000
733333;-0.27500
736111;-0.30000
738889;-0.32500
741666;-0.33500
744444;-0.34500
747222;-0.36000
750000;-0.36000
752778;-0.37000
755555;-0.38500
758333;-0.39000
761111;-0.38500
763889;-0.38500
766666;-0.38500
769444;-0.39000
772222;-0.40000
775000;-0.40500
777778;-0.39500
780555;-0.38500
783333;-0.39500
786111;-0.40000
788889;-0.41000
791666;-0.41000
794444;-0.39000
797222;-0.39500
800000;-0.39500
802778;-0.40000
805555;-0.40000
808333;-0.39000
811111;-0.37000
813889;-0.37000
816666;-0.38000
819444;-0.38000
822222;-0.39500
825000;-0.38500
827778;-0.38000
830555;-0.40000
833333;-0.42500
836111;-0.46000
838889;-0.49500
841666;-0.51500
844444;-0.52000
847222;-0.56000
850000;-0.59500
852778;-0.56500
855555;-0.46500
858333;-0.31000
861111;-0.16500
863889;0.03000
866666;0.29500
869444;0.55000
872222;0.75500
875000;0.86000
877778;0.81500
880555;0.57500
883333;0.20500
886111;-0.18000
888889;-0.44000
891666;-0.52500
894444;-0.52000
897222;-0.47500
900000;-0.44000
902778;-0.43000
905555;-0.44000
908333;-0.43000
911111;-0.41500
913889;-0.40500
916666;-0.42000
919444;-0.42500
922222;-0.43500
925000;-0.42500
927778;-0.41500
930555;-0.41500
933333;-0.42000
936111;-0.42000
938889;-0.42500
941666;-0.41500
944444;-0.40000
947222;-0.41000
950000;-0.40000
952778;-0.42000
955555;-0.41500
958333;-0.41500
961111;-0.40000
963889;-0.41000
966666;-0.41000
969444;-0.42500
972222;-0.43500
975000;-0.42000
977778;-0.41000
980555;-0.40500
983333;-0.42000
986111;-0.43500
988889;-0.42500
991666;-0.41500
994444;-0.42000
997222;-0.41500
1000000;-0.41000
1002777;-0.43000
1005555;-0.43000
1008333;-0.42000
1011111;-0.40500
1013889;-0.40000
1016666;-0.41000
1019444;-0.41500
1022222;-0.41500
1025000;-0.40500
1027777;-0.40000
1030555;-0.40000
1033333;-0.41000
1036111;-0.40500
1038889;-0.41500
1041666;-0.40000
1044444;-0.40000
1047222;-0.41500
1050000;-0.42000
1052777;-0.40500
1055555;-0.42000
1058333;-0.41500
1061111;-0.41000
1063889;-0.41000
1066666;-0.42000
1069444;-0.42500
1072222;-0.41500
1075000;-0.41500
1077777;-0.41000
1080555;-0.40500
1083333;-0.41000
1086111;-0.43000
1088889;-0.42500
1091666;-0.41000
1094444;-0.40500
1097222;-0.40500
1100000;-0.41000
1102777;-0.42000
1105555;-0.42500
1108333;-0.42500
1111111;-0.41500
1113889;-0.42500
1116666;-0.43000
1119444;-0.43500
1122222;-0.44500
1125000;-0.44000
1127777;-0.45000
1130555;-0.45000
1133333;-0.46000
1136111;-0.46500
1138889;-0.46500
1141666;-0.46000
1144444;-0.45500
1147222;-0.45500
1150000;-0.45000
1152777;-0.46000
1155555;-0.46000
1158333;-0.44500
1161111;-0.43000
1163889;-0.43000
1166666;-0.44500
1169444;-0.43500
1172222;-0.42500
1175000;-0.40000
1177777;-0.38500
1180555;-0.37500
1183333;-0.37500
1186111;-0.38000
1188889;-0.37000
1191666;-0.35000
1194444;-0.33000
1197222;-0.32500
1200000;-0.32500
1202777;-0.32000
1205555;-0.31500
1208333;-0.31500
1211111;-0.29500
1213889;-0.30000
1216666;-0.29500
1219444;-0.31000
1222222;-0.30000
1225000;-0.29000
1227777;-0.28000
1230555;-0.28500
1233333;-0.28500
1236111;-0.29000
1238889;-0.30000
1241666;-0.28500
1244444;-0.28000
1247222;-0.28500
1250000;-0.28000
1252777;-0.29500
1255555;-0.30500
1258333;-0.29000
1261111;-0.27500
1263889;-0.29000
1266666;-0.29500
1269444;-0.30000
1272222;-0.31500
1275000;-0.30500
1277777;-0.29000
1280555;-0.30000
1283333;-0.30500
1286111;-0.31000
1288889;-0.31000
1291666;-0.31000
1294444;-0.30000
1297222;-0.29500
1300000;-0.30500
1302777;-0.32000
1305555;-0.31500
1308333;-0.31000
1311111;-0.30000
1313889;-0.29000
1316666;-0.30000
1319444;-0.32000
1322222;-0.32000
1325000;-0.30000
1327777;-0.29500
1330555;-0.29500
1333333;-0.31000
1336111;-0.32000
1338889;-0.31500
1341666;-0.30500
1344444;-0.31000
1347222;-0.32000
1350000;-0.32500
1352777;-0.31000
1355555;-0.32500
1358333;-0.31000
1361111;-0.31000
1363889;-0.31000
1366666;-0.32500
1369444;-0.33000
1372222;-0.33000
1375000;-0.32000
1377777;-0.30000
1380555;-0.31000
1383333;-0.30000
1386111;-0.31500
1388888;-0.32500
1391666;-0.31000
1394444;-0.29500
1397222;-0.30000
1400000;-0.31000
1402777;-0.32000
1405555;-0.33000
1408333;-0.31500
1411111;-0.30000
1413888;-0.31000
1416666;-0.32500
1419444;-0.33000
1422222;-0.34000
1425000;-0.32500
1427777;-0.32000
1430555;-0.32000
1433333;-0.33000
1436111;-0.33500
1438888;-0.33000
1441666;-0.33500
1444444;-0.31500
1447222;-0.31500
1450000;-0.32000
1452777;-0.32000
1455555;-0.33000
1458333;-0.32500
1461111;-0.32500
1463888;-0.32500
1466666;-0.32000
1469444;-0.33500
1472222;-0.33000
1475000;-0.31000
1477777;-0.29500
1480555;-0.29500
1483333;-0.31000
1486111;-0.31000
1488888;-0.31000
1491666;-0.29000
1494444;-0.28500
1497222;-0.27000
1500000;-0.26000
1502777;-0.25000
1505555;-0.26000
1508333;-0.26500
1511111;-0.25000
1513888;-0.24500
1516666;-0.25000
1519444;-0.24500
1522222;-0.24500
1525000;-0.22500
1527777;-0.19500
1530555;-0.20000
1533333;-0.20500
1536111;-0.22000
1538888;-0.22500
1541666;-0.22000
1544444;-0.21500
1547222;-0.23500
1550000;-0.22000
1552777;-0.23000
1555555;-0.23500
1558333;-0.23000
1561111;-0.23000
1563888;-0.22500
1566666;-0.22000
1569444;-0.19500
1572222;-0.18000
1575000;-0.18500
1577777;-0.21000
1580555;-0.24000
1583333;-0.25500
1586111;-0.26500
1588888;-0.28500
1591666;-0.30000
1594444;-0.30000
1597222;-0.30000
1600000;-0.31500
1602777;-0.33500
1605555;-0.34000
1608333;-0.34000
1611111;-0.31500
1613888;-0.32500
1616666;-0.33000
1619444;-0.34000
1622222;-0.35000
1625000;-0.33000
1627777;-0.32000
1630555;-0.33500
1633333;-0.33000
1636111;-0.34000
1638888;-0.34500
1641666;-0.33500
1644444;-0.34000
1647222;-0.33000
1650000;-0.34000
1652777;-0.35000
1655555;-0.35000
1658333;-0.35500
1661111;-0.35000
1663888;-0.35500
1666666;-0.39500
1669444;-0.43000
1672222;-0.47500
1675000;-0.48500
1677777;-0.49500
1680555;-0.55000
1683333;-0.57000
1686111;-0.54500
1688888;-0.44000
1691666;-0.30000
1694444;-0.13500
1697222;0.04000
1700000;0.28500
1702777;0.56500
1705555;0.80500
1708333;0.94500
1711111;0.95000
1713888;0.74000
1716666;0.34000
1719444;-0.07500
1722222;-0.37000
1725000;-0.48000
1727777;-0.46500
1730555;-0.40500
1733333;-0.37000
1736111;-0.36500
1738888;-0.38000
1741666;-0.37500
1744444;-0.36000
1747222;-0.35500
1750000;-0.37000
1752777;-0.37500
1755555;-0.37500
1758333;-0.36500
1761111;-0.36000
1763888;-0.36000
1766666;-0.37500
1769444;-0.39000
1772222;-0.39000
1775000;-0.38500
1777777;-0.37500
1780555;-0.38000
1783333;-0.37000
1786111;-0.38500
1788888;-0.38000
1791666;-0.38000
1794444;-0.37000
1797222;-0.37000
1799999;-0.38500
1802777;-0.39500
1805555;-0.40000
1808333;-0.38500
1811111;-0.36500
1813888;-0.37500
1816666;-0.38500
1819444;-0.38500
1822222;-0.39000
1824999;-0.38500
1827777;-0.37500
1830555;-0.38000
1833333;-0.38000
1836111;-0.39000
1838888;-0.38500
1841666;-0.38000
1844444;-0.37500
1847222;-0.39000
1849999;-0.39000
1852777;-0.38000
1855555;-0.38000
1858333;-0.36500
1861111;-0.35000
1863888;-0.36500
1866666;-0.36500
1869444;-0.36500
1872222;-0.37500
1874999;-0.36500
1877777;-0.37000
1880555;-0.37500
1883333;-0.37500
1886111;-0.38000
1888888;-0.38500
1891666;-0.38000
1894444;-0.36500
1897222;-0.36000
1899999;-0.36000
1902777;-0.37000
1905555;-0.37500
1908333;-0.36500
1911111;-0.35500
1913888;-0.35500
1916666;-0.36500
1919444;-0.36500
1922222;-0.36500
1924999;-0.37000
1927777;-0.35500
1930555;-0.36500
1933333;-0.36000
1936111;-0.36500
1938888;-0.37000
1941666;-0.36000
1944444;-0.34500
1947222;-0.34000
1949999;-0.36000
1952777;-0.36500
1955555;-0.37500
1958333;-0.36500
1961111;-0.36000
1963888;-0.36500
1966666;-0.37000
1969444;-0.39000
1972222;-0.39000
1974999;-0.38500
1977777;-0.36500
1980555;-0.36500
1983333;-0.37000
1986111;-0.38000
1988888;-0.38000
1991666;-0.37500
1994444;-0.36000
1997222;-0.35500
1999999;-0.35500
2002777;-0.37000
2005555;-0.37500
2008333;-0.35500
2011111;-0.33500
2013888;-0.33000
2016666;-0.32000
2019444;-0.32500
2022222;-0.32000
2024999;-0.30500
2027777;-0.29500
2030555;-0.29000
2033333;-0.29000
2036111;-0.30000
2038888;-0.29500
2041666;-0.28000
2044444;-0.27500
2047222;-0.27000
2049999;-0.26500
2052777;-0.27500
2055555;-0.28000
2058333;-0.27000
2061111;-0.26000
2063888;-0.27000
2066666;-0.26500
2069444;-0.28000
2072222;-0.29000
2074999;-0.28000
2077777;-0.26500
2080555;-0.26500
2083333;-0.26500
2086111;-0.27000
2088888;-0.28500
2091666;-0.26500
2094444;-0.25500
2097222;-0.25500
2099999;-0.27000
2102777;-0.27000
2105555;-0.28000
2108333;-0.26500
2111111;-0.26000
2113888;-0.26500
2116666;-0.27500
2119444;-0.28500
2122222;-0.29000
2124999;-0.28000
2127777;-0.28000
2130555;-0.28500
2133333;-0.29000
2136111;-0.29500
2138888;-0.30000
2141666;-0.29500
2144444;-0.28500
2147222;-0.28500
2149999;-0.29500
2152777;-0.30000
2155555;-0.30500
2158333;-0.30500
2161111;-0.30000
2163888;-0.29000
2166666;-0.29000
2169444;-0.31500
2172222;-0.31000
2174999;-0.29000
2177777;-0.28000
2180555;-0.28000
2183333;-0.29000
2186110;-0.30500
2188888;-0.29500
2191666;-0.29500
2194444;-0.29000
2197222;-0.30500
2199999;-0.30500
2202777;-0.32000
2205555;-0.31000
2208333;-0.31500
2211110;-0.30000
2213888;-0.31000
2216666;-0.31000
2219444;-0.32500
2222222;-0.32000
2224999;-0.32000
2227777;-0.30500
2230555;-0.31500
2233333;-0.31000
2236110;-0.32500
2238888;-0.33500
2241666;-0.30500
2244444;-0.31000
2247222;-0.30000
2249999;-0.31000
2252777;-0.31000
2255555;-0.31000
2258333;-0.31000
2261110;-0.29500
2263888;-0.28500
2266666;-0.29500
2269444;-0.30500
2272222;-0.31000
2274999;-0.31000
2277777;-0.30000
2280555;-0.28500
2283333;-0.29500
2286110;-0.30500
2288888;-0.30500
2291666;-0.30000
2294444;-0.29500
2297222;-0.29500
2299999;-0.30500
2302777;-0.31000
2305555;-0.32000
2308333;-0.31500
2311110;-0.30000
2313888;-0.29500
2316666;-0.30000
2319444;-0.29500
2322222;-0.30000
2324999;-0.28000
2327777;-0.26000
2330555;-0.25000
2333333;-0.24000
2336110;-0.24500
2338888;-0.24000
2341666;-0.23000
2344444;-0.22000
2347222;-0.21000
2349999;-0.19500
2352777;-0.20500
2355555;-0.19500
2358333;-0.18500
2361110;-0.18000
2363888;-0.17500
2366666;-0.18500
2369444;-0.20500
2372222;-0.21500
2374999;-0.20500
2377777;-0.20500
2380555;-0.20000
2383333;-0.20500
2386110;-0.22500
2388888;-0.23000
2391666;-0.22500
2394444;-0.19500
2397222;-0.17000
2399999;-0.17500
2402777;-0.21500
2405555;-0.24500
2408333;-0.25000
2411110;-0.24000
2413888;-0.26000
2416666;-0.28000
2419444;-0.30500
2422222;-0.31500
2424999;-0.31500
2427777;-0.31000
2430555;-0.30500
2433333;-0.31000
2436110;-0.32000
2438888;-0.33500
2441666;-0.32000
2444444;-0.30500
2447222;-0.31000
2449999;-0.31000
2452777;-0.33000
2455555;-0.34000
2458333;-0.33000
2461110;-0.31000
2463888;-0.32500
2466666;-0.33500
2469444;-0.34000
2472222;-0.34500
2474999;-0.33500
2477777;-0.32500
2480555;-0.32500
2483333;-0.34000
2486110;-0.34000
2488888;-0.34500
2491666;-0.36500
2494444;-0.38500
2497222;-0.42000
2499999;-0.44500
2502777;-0.47000
2505555;-0.51000
2508333;-0.53500
2511110;-0.49500
2513888;-0.39500
2516666;-0.27500
2519444;-0.15000
2522222;0.03000
2524999;0.28000
2527777;0.54000
2530555;0.75000
2533333;0.89000
2536110;0.97000
2538888;1.02000
2541666;0.99500
2544444;0.87000
2547222;0.66500
2549999;0.38500
2552777;0.09000
2555555;-0.18000
2558333;-0.37000
2561110;-0.46500
2563888;-0.47500
2566666;-0.45500
2569444;-0.44000
2572222;-0.39500
2574999;-0.37000
2577777;-0.36000
2580555;-0.35000
2583333;-0.35500
2586110;-0.35500
2588888;-0.36000
2591666;-0.35500
2594444;-0.35500
2597221;-0.35000
2599999;-0.35000
2602777;-0.36500
2605555;-0.36500
2608333;-0.36000
2611110;-0.35500
2613888;-0.35500
2616666;-0.37000
2619444;-0.37500
2622221;-0.38000
2624999;-0.37000
2627777;-0.37000
2630555;-0.36000
2633333;-0.36500
2636110;-0.38500
2638888;-0.39000
2641666;-0.36500
2644444;-0.36000
2647221;-0.36000
2649999;-0.35500
2652777;-0.36500
2655555;-0.37500
2658333;-0.36500
2661110;-0.36000
2663888;-0.36000
2666666;-0.36000
2669444;-0.37000
2672221;-0.37000
2674999;-0.36000
2677777;-0.35000
2680555;-0.35500
2683333;-0.36000
2686110;-0.36500
2688888;-0.38000
2691666;-0.36000
2694444;-0.35000
2697221;-0.36000
2699999;-0.35000
2702777;-0.38000
2705555;-0.38500
2708333;-0.37000
2711110;-0.35500
2713888;-0.35500
2716666;-0.35500
2719444;-0.37500
2722221;-0.37000
2724999;-0.34500
2727777;-0.34500
2730555;-0.35000
2733333;-0.35500
2736110;-0.36500
2738888;-0.35500
2741666;-0.34000
2744444;-0.33000
2747221;-0.34000
2749999;-0.35500
2752777;-0.36500
2755555;-0.36000
2758333;-0.33500
2761110;-0.34000
2763888;-0.35000
2766666;-0.36500
2769444;-0.37000
2772221;-0.37000
2774999;-0.37000
2777777;-0.36500
2780555;-0.36000
2783333;-0.35500
2786110;-0.37500
2788888;-0.38000
2791666;-0.37000
2794444;-0.36000
2797221;-0.36500
2799999;-0.38000
2802777;-0.38500
2805555;-0.38500
2808333;-0.39000
2811110;-0.38000
2813888;-0.38500
2816666;-0.39000
2819444;-0.40500
2822221;-0.39500
2824999;-0.38000
2827777;-0.36000
2830555;-0.35000
2833333;-0.36000
2836110;-0.36000
2838888;-0.36000
2841666;-0.34000
2844444;-0.32500
2847221;-0.32000
2849999;-0.31000
2852777;-0.32000
2855555;-0.33500
2858333;-0.31500
2861110;-0.30500
2863888;-0.31500
2866666;-0.30500
2869444;-0.31500
2872221;-0.31000
2874999;-0.28000
2877777;-0.29000
2880555;-0.28500
2883333;-0.29500
2886110;-0.30000
2888888;-0.28500
2891666;-0.28500
2894444;-0.29000
2897221;-0.29000
2899999;-0.29500
2902777;-0.30000
2905555;-0.31500
2908333;-0.30000
2911110;-0.29000
2913888;-0.28000
2916666;-0.29500
2919444;-0.30500
2922221;-0.30000
2924999;-0.30000
2927777;-0.29000
2930555;-0.30000
2933333;-0.31000
2936110;-0.31500
2938888;-0.32000
2941666;-0.31000
2944444;-0.32000
2947221;-0.31500
2949999;-0.32500
2952777;-0.33000
2955555;-0.33500
2958333;-0.33000
2961110;-0.32500
2963888;-0.31000
2966666;-0.32000
2969444;-0.33000
2972221;-0.34000
2974999;-0.34500
2977777;-0.33500
2980555;-0.33000
2983332;-0.33500
2986110;-0.34500
2988888;-0.33500
2991666;-0.33000
2994444;-0.32500
2997221;-0.32500
2999999;-0.33500
3002777;-0.33500
3005555;-0.33500
3008332;-0.34000
3011110;-0.33000
3013888;-0.33500
3016666;-0.34500
3019444;-0.35000
3022221;-0.36000
3024999;-0.35500
3027777;-0.34500
3030555;-0.33500
3033332;-0.34000
3036110;-0.35500
3038888;-0.35500
3041666;-0.34500
3044444;-0.33500
3047221;-0.34000
3049999;-0.35000
3052777;-0.35500
3055555;-0.35500
3058332;-0.35500
3061110;-0.34500
3063888;-0.34500
3066666;-0.35000
3069444;-0.35500
3072221;-0.35500
3074999;-0.34500
3077777;-0.35000
3080555;-0.33500
3083332;-0.33500
3086110;-0.35500
3088888;-0.35500
3091666;-0.35000
3094444;-0.35000
3097221;-0.34000
3099999;-0.35500
3102777;-0.37500
3105555;-0.36500
3108332;-0.35500
3111110;-0.34500
3113888;-0.36000
3116666;-0.35000
3119444;-0.35500
3122221;-0.34500
3124999;-0.33500
3127777;-0.31500
3130555;-0.29500
3133332;-0.29500
3136110;-0.30500
3138888;-0.30500
3141666;-0.29000
3144444;-0.28000
3147221;-0.26500
3149999;-0.26500
3152777;-0.26500
3155555;-0.26500
3158332;-0.24000
3161110;-0.23000
3163888;-0.23500
3166666;-0.25000
3169444;-0.25000
3172221;-0.25500
3174999;-0.25500
3177777;-0.26000
3180555;-0.26500
3183332;-0.27000
3186110;-0.27000
3188888;-0.26500
3191666;-0.26000
3194444;-0.27500
3197221;-0.27000
3199999;-0.26000
3202777;-0.25000
3205555;-0.26000
3208332;-0.27500
3211110;-0.29000
3213888;-0.29500
3216666;-0.32000
3219444;-0.34000
3222221;-0.37000
3224999;-0.36000
3227777;-0.37000
3230555;-0.38500
3233332;-0.39000
3236110;-0.40000
3238888;-0.38500
3241666;-0.38500
3244444;-0.38000
3247221;-0.37000
3249999;-0.38000
3252777;-0.38500
3255555;-0.38000
3258332;-0.37500
3261110;-0.37500
3263888;-0.38000
3266666;-0.39500
3269444;-0.40000
3272221;-0.39500
3274999;-0.38000
3277777;-0.37000
3280555;-0.37000
3283332;-0.37500
3286110;-0.39500
3288888;-0.40000
3291666;-0.38500
3294444;-0.38500
3297221;-0.38500
3299999;-0.40000
3302777;-0.43000
3305555;-0.44500
3308332;-0.46500
3311110;-0.47500
3313888;-0.51000
3316666;-0.57500
3319444;-0.60500
3322221;-0.56500
3324999;-0.45000
3327777;-0.30500
3330555;-0.14000
3333332;0.06000
3336110;0.30000
3338888;0.55000
3341666;0.74000
3344444;0.81000
3347221;0.71500
3349999;0.42000
3352777;0.03500
3355555;-0.30000
3358332;-0.46500
3361110;-0.52000
3363888;-0.49000
3366666;-0.45000
3369444;-0.42500
3372221;-0.44500
3374999;-0.43500
3377777;-0.43500
3380555;-0.44000
3383332;-0.43000
3386110;-0.42500
3388888;-0.43000
3391666;-0.41000
3394443;-0.41500
3397221;-0.41500
3399999;-0.42000
3402777;-0.44500
3405555;-0.45500
3408332;-0.43500
3411110;-0.42500
3413888;-0.42000
3416666;-0.43000
3419443;-0.43500
3422221;-0.43500
3424999;-0.43500
3427777;-0.42500
3430555;-0.43000
3433332;-0.43000
3436110;-0.44500
3438888;-0.45000
3441666;-0.44500
3444443;-0.43000
3447221;-0.43500
3449999;-0.43000
3452777;-0.43500
3455555;-0.43000
3458332;-0.42500
3461110;-0.42000
3463888;-0.41500
3466666;-0.41500
3469443;-0.44000
3472221;-0.44500
3474999;-0.43500
3477777;-0.42500
3480555;-0.43000
3483332;-0.44000
3486110;-0.46500
3488888;-0.46000
3491666;-0.45000
3494443;-0.44500
3497221;-0.45000
3499999;-0.45500
3502777;-0.44500
3505555;-0.45000
3508332;-0.44000
3511110;-0.43000
3513888;-0.41500
3516666;-0.42500
3519443;-0.42500
3522221;-0.44500
3524999;-0.43000
3527777;-0.43000
3530555;-0.44500
3533332;-0.44500
3536110;-0.45500
3538888;-0.44500
3541666;-0.45000
3544443;-0.44000
3547221;-0.43500
3549999;-0.44000
3552777;-0.45000
3555555;-0.46000
3558332;-0.45000
3561110;-0.44000
3563888;-0.44000
3566666;-0.45000
3569443;-0.45500
3572221;-0.47000
3574999;-0.47000
3577777;-0.47500
3580555;-0.48500
3583332;-0.47500
3586110;-0.47500
3588888;-0.48500
3591666;-0.48000
3594443;-0.47500
3597221;-0.48500
3599999;-0.49000
3602777;-0.50500
3605555;-0.51000
3608332;-0.51500
3611110;-0.50500
3613888;-0.48000
3616666;-0.49500
3619443;-0.48500
3622221;-0.48500
3624999;-0.46000
3627777;-0.44000
3630555;-0.43500
3633332;-0.42000
3636110;-0.41500
3638888;-0.42000
3641666;-0.40000
3644443;-0.38000
3647221;-0.36000
3649999;-0.36000
3652777;-0.37000
3655555;-0.37000
3658332;-0.35500
3661110;-0.34000
3663888;-0.33000
3666666;-0.32500
3669443;-0.33500
3672221;-0.35000
3674999;-0.34500
3677777;-0.33500
3680555;-0.33500
3683332;-0.33500
3686110;-0.35500
3688888;-0.35000
3691666;-0.35000
3694443;-0.34000
3697221;-0.33500
3699999;-0.34000
3702777;-0.35000
3705555;-0.35500
3708332;-0.34500
3711110;-0.33000
3713888;-0.33500
3716666;-0.34000
3719443;-0.35000
3722221;-0.35000
3724999;-0.34500
3727777;-0.34000
3730555;-0.35000
3733332;-0.35500
3736110;-0.36000
3738888;-0.37500
3741666;-0.37000
3744443;-0.36000
3747221;-0.35500
3749999;-0.37000
3752777;-0.37000
3755555;-0.38000
3758332;-0.38000
3761110;-0.36500
3763888;-0.37500
3766666;-0.38000
3769443;-0.39000
3772221;-0.39000
3774999;-0.39000
3777777;-0.37000
3780554;-0.37000
3783332;-0.37500
3786110;-0.39500
3788888;-0.38000
3791666;-0.37500
3794443;-0.35500
3797221;-0.36000
3799999;-0.37000
3802777;-0.38000
3805554;-0.38500
3808332;-0.38000
3811110;-0.37500
3813888;-0.38000
3816666;-0.38000
3819443;-0.39500
3822221;-0.39000
3824999;-0.38500
3827777;-0.37500
3830554;-0.38000
3833332;-0.38000
3836110;-0.38500
3838888;-0.39500
3841666;-0.39000
3844443;-0.39500
3847221;-0.37000
3849999;-0.38000
3852777;-0.37500
3855554;-0.38000
3858332;-0.37000
3861110;-0.36000
3863888;-0.37500
3866666;-0.38500
3869443;-0.38500
3872221;-0.39000
3874999;-0.39000
3877777;-0.37500
3880554;-0.37500
3883332;-0.37500
3886110;-0.38500
3888888;-0.39500
3891666;-0.40000
3894443;-0.38000
3897221;-0.37500
3899999;-0.37500
3902777;-0.39000
3905554;-0.38500
3908332;-0.36500
3911110;-0.33500
3913888;-0.33500
3916666;-0.31500
3919443;-0.32500
3922221;-0.32000
3924999;-0.30500
3927777;-0.30500
3930554;-0.29500
3933332;-0.29000
3936110;-0.29000
3938888;-0.29000
3941666;-0.28500
3944443;-0.27500
3947221;-0.28500
3949999;-0.29500
3952777;-0.31500
3955554;-0.30500
3958332;-0.30000
3961110;-0.28500
3963888;-0.28500
3966666;-0.29000
3969443;-0.30500
3972221;-0.31000
3974999;-0.30500
3977777;-0.30500
3980554;-0.28000
3983332;-0.28500
3986110;-0.29000
3988888;-0.31500
3991666;-0.33500
3994443;-0.34500
3997221;-0.34500
3999999;-0.37500
4002777;-0.37500
4005554;-0.38000
4008332;-0.38500
4011110;-0.39000
4013888;-0.38500
4016666;-0.39000
4019443;-0.39000
4022221;-0.40000
4024999;-0.42000
4027777;-0.40500
4030554;-0.40500
4033332;-0.40500
4036110;-0.41500
4038888;-0.42000
4041666;-0.42000
4044443;-0.42000
4047221;-0.40000
4049999;-0.41500
4052777;-0.42000
4055554;-0.42500
4058332;-0.41500
4061110;-0.40500
4063888;-0.40500
4066666;-0.41000
4069443;-0.42500
4072221;-0.45000
4074999;-0.48000
4077777;-0.51000
4080554;-0.52500
4083332;-0.55000
4086110;-0.61000
4088888;-0.64500
4091666;-0.63000
4094443;-0.56500
4097221;-0.48500
4099999;-0.39500
4102777;-0.31000
4105554;-0.23000
4108332;-0.09500
4111110;0.07000
4113888;0.30000
4116666;0.54500
4119443;0.72500
4122221;0.81500
4124999;0.81000
4127777;0.63000
4130554;0.27000
4133332;-0.14000
4136110;-0.40500
4138888;-0.51500
4141666;-0.53500
4144443;-0.48500
4147221;-0.43500
4149999;-0.43000
4152777;-0.43000
4155554;-0.43500
4158332;-0.42000
4161110;-0.42500
4163888;-0.41500
4166666;-0.42000
4169443;-0.44000
4172221;-0.44500
4174999;-0.43000
4177777;-0.43500
4180554;-0.42500
4183332;-0.43000
4186110;-0.44000
4188888;-0.44500
4191665;-0.43000
4194443;-0.43000
4197221;-0.44000
4199999;-0.44000
4202777;-0.44500
4205554;-0.45500
4208332;-0.43500
4211110;-0.43500
4213888;-0.42500
4216665;-0.42500
4219443;-0.43500
4222221;-0.45000
4224999;-0.43000
4227777;-0.42000
4230554;-0.42000
4233332;-0.42500
4236110;-0.44500
4238888;-0.44000
4241665;-0.43500
4244443;-0.42500
4247221;-0.43000
4249999;-0.43500
4252777;-0.43500
4255554;-0.43000
4258332;-0.41000
4261110;-0.42000
4263888;-0.41500
4266665;-0.42000
4269443;-0.44000
4272221;-0.43000
4274999;-0.42000
4277777;-0.42000
4280554;-0.41500
4283332;-0.43000
4286110;-0.44000
4288888;-0.43500
4291665;-0.42500
4294443;-0.42500
4297221;-0.42500
4299999;-0.41000
4302777;-0.42500
4305554;-0.43000
4308332;-0.42500
4311110;-0.40500
4313888;-0.41500
4316665;-0.41500
4319443;-0.42000
4322221;-0.43000
4324999;-0.42000
4327777;-0.42000
4330554;-0.42500
4333332;-0.43000
4336110;-0.43500
4338888;-0.44500
4341665;-0.44500
4344443;-0.44000
4347221;-0.44000
4349999;-0.45000
4352777;-0.46000
4355554;-0.46500
4358332;-0.45500
4361110;-0.45000
4363888;-0.44500
4366665;-0.46500
4369443;-0.46500
4372221;-0.47000
4374999;-0.48000
4377777;-0.46000
4380554;-0.45000
4383332;-0.46000
4386110;-0.47000
4388888;-0.47500
4391665;-0.45500
4394443;-0.44000
4397221;-0.44500
4399999;-0.43500
4402777;-0.45000
4405554;-0.44500
4408332;-0.40500
4411110;-0.39500
4413888;-0.38500
4416665;-0.38000
4419443;-0.37500
4422221;-0.37500
4424999;-0.36000
4427777;-0.34500
4430554;-0.34000
4433332;-0.32500
4436110;-0.33000
4438888;-0.33000
4441665;-0.32500
4444443;-0.31000
4447221;-0.31000
4449999;-0.30500
4452777;-0.32000
4455554;-0.32000
4458332;-0.31500
4461110;-0.30000
4463888;-0.31000
4466665;-0.32000
4469443;-0.33000
4472221;-0.33000
4474999;-0.32000
4477777;-0.32000
4480554;-0.31500
4483332;-0.32000
4486110;-0.32500
4488888;-0.33000
4491665;-0.33000
4494443;-0.32500
4497221;-0.32500
4499999;-0.33000
4502777;-0.35000
4505554;-0.34000
4508332;-0.33500
4511110;-0.33500
4513888;-0.33000
4516665;-0.33000
4519443;-0.33500
4522221;-0.34500
4524999;-0.33500
4527777;-0.32000
4530554;-0.32000
4533332;-0.33500
4536110;-0.33500
4538888;-0.35500
4541665;-0.34000
4544443;-0.33500
4547221;-0.34500
4549999;-0.35000
4552777;-0.36000
4555554;-0.36000
4558332;-0.36500
4561110;-0.35500
4563888;-0.34000
4566665;-0.35500
4569443;-0.37500
4572221;-0.36500
4574999;-0.36500
4577776;-0.35500
4580554;-0.36000
4583332;-0.35000
4586110;-0.36000
4588888;-0.37500
4591665;-0.36500
4594443;-0.36000
4597221;-0.36500
4599999;-0.36000
4602776;-0.36500
4605554;-0.35500
4608332;-0.35500
4611110;-0.34500
4613888;-0.34000
4616665;-0.35000
4619443;-0.36000
4622221;-0.36500
4624999;-0.35500
4627776;-0.34500
4630554;-0.36500
4633332;-0.36000
4636110;-0.37000
4638888;-0.36500
4641665;-0.37500
4644443;-0.36000
4647221;-0.37000
4649999;-0.36500
4652776;-0.37500
4655554;-0.38000
4658332;-0.37000
4661110;-0.36500
4663888;-0.36500
4666665;-0.36000
4669443;-0.37000
4672221;-0.37000
4674999;-0.37000
4677776;-0.37000
4680554;-0.36000
4683332;-0.36000
4686110;-0.37000
4688888;-0.36500
4691665;-0.35000
4694443;-0.34500
4697221;-0.34000
4699999;-0.33500
4702776;-0.34000
4705554;-0.31500
4708332;-0.30000
4711110;-0.28500
4713888;-0.28500
4716665;-0.29000
4719443;-0.30000
4722221;-0.30000
4724999;-0.28500
4727776;-0.27500
4730554;-0.26000
4733332;-0.26000
4736110;-0.26500
4738888;-0.27000
4741665;-0.26500
4744443;-0.25500
4747221;-0.26000
4749999;-0.26500
4752776;-0.28000
4755554;-0.29500
4758332;-0.27500
4761110;-0.28000
4763888;-0.27000
4766665;-0.29000
4769443;-0.28500
4772221;-0.27500
4774999;-0.25000
4777776;-0.22500
4780554;-0.25500
4783332;-0.28500
4786110;-0.30500
4788888;-0.32000
4791665;-0.34000
4794443;-0.34000
4797221;-0.36500
4799999;-0.37500
4802776;-0.40000
4805554;-0.40000
4808332;-0.39000
4811110;-0.39000
4813888;-0.38000
4816665;-0.38500
4819443;-0.39500
4822221;-0.40000
4824999;-0.40500
4827776;-0.39500
4830554;-0.39000
4833332;-0.38500
4836110;-0.40500
4838888;-0.41000
4841665;-0.40000
4844443;-0.40000
4847221;-0.39500
4849999;-0.39500
4852776;-0.40500
4855554;-0.40000
4858332;-0.39500
4861110;-0.39000
4863888;-0.40500
4866665;-0.42000
4869443;-0.43500
4872221;-0.45500
4874999;-0.48500
4877776;-0.50000
4880554;-0.50500
4883332;-0.52000
4886110;-0.53500
4888888;-0.55500
4891665;-0.58500
4894443;-0.58000
4897221;-0.53000
4899999;-0.41500
4902776;-0.28500
4905554;-0.12000
4908332;0.08000
4911110;0.32000
4913888;0.57500
4916665;0.75500
4919443;0.80500
4922221;0.72000
4924999;0.47000
4927776;0.12000
4930554;-0.21000
4933332;-0.42500
4936110;-0.48500
4938888;-0.47500
4941665;-0.43500
4944443;-0.41000
4947221;-0.40500
4949999;-0.43500
4952776;-0.42500
4955554;-0.43000
4958332;-0.42000
4961110;-0.41500
4963887;-0.42500
4966665;-0.43500
4969443;-0.44500
4972221;-0.44500
4974999;-0.44500
4977776;-0.44000
4980554;-0.42500
4983332;-0.43000
4986110;-0.44000
4988887;-0.43500
4991665;-0.43500
4994443;-0.44000
4997221;-0.44000
4999999;-0.44000
5002776;-0.45000
5005554;-0.46000
5008332;-0.44000
5011110;-0.42500
5013887;-0.42500
5016665;-0.42500
5019443;-0.43000
5022221;-0.44000
5024999;-0.43500
5027776;-0.42500
5030554;-0.42000
5033332;-0.44000
5036110;-0.43500
5038887;-0.44000
5041665;-0.44500
5044443;-0.43500
5047221;-0.43500
5049999;-0.44000
5052776;-0.45000
5055554;-0.45500
5058332;-0.44000
5061110;-0.43500
5063887;-0.43000
5066665;-0.43500
5069443;-0.43500
5072221;-0.44000
5074999;-0.44000
5077776;-0.44000
5080554;-0.44500
5083332;-0.43500
5086110;-0.43500
5088887;-0.44500
5091665;-0.44000
5094443;-0.43000
5097221;-0.42500
5099999;-0.43000
5102776;-0.44000
5105554;-0.44500
5108332;-0.43500
5111110;-0.43000
5113887;-0.42000
5116665;-0.43000
5119443;-0.43500
5122221;-0.45500
5124999;-0.44000
5127776;-0.44000
5130554;-0.44000
5133332;-0.44000
5136110;-0.44500
5138887;-0.44500
5141665;-0.43500
5144443;-0.43500
5147221;-0.42500
5149999;-0.42500
5152776;-0.44000
5155554;-0.44000
5158332;-0.45000
5161110;-0.43500
5163887;-0.44000
5166665;-0.45500
5169443;-0.45500
5172221;-0.46500
5174999;-0.45000
5177776;-0.45000
5180554;-0.44500
5183332;-0.45500
5186110;-0.45500
5188887;-0.45500
5191665;-0.45500
5194443;-0.43500
5197221;-0.43500
5199999;-0.43500
5202776;-0.43000
5205554;-0.42500
5208332;-0.41000
5211110;-0.38500
5213887;-0.37500
5216665;-0.38000
5219443;-0.38000
5222221;-0.38000
5224999;-0.35500
5227776;-0.35500
5230554;-0.35500
5233332;-0.35500
5236110;-0.36500
5238887;-0.34000
5241665;-0.33000
5244443;-0.33000
5247221;-0.33500
5249999;-0.35000
5252776;-0.34500
5255554;-0.34000
5258332;-0.34000
5261110;-0.33000
5263887;-0.33000
5266665;-0.33500
5269443;-0.34500
5272221;-0.35000
5274999;-0.34500
5277776;-0.34000
5280554;-0.34000
5283332;-0.33500
5286110;-0.35500
5288887;-0.35500
5291665;-0.34500
5294443;-0.34000
5297221;-0.35000
5299999;-0.35500
5302776;-0.35500
5305554;-0.35500
5308332;-0.36000
5311110;-0.35500
5313887;-0.36000
5316665;-0.36500
5319443;-0.37000
5322221;-0.37500
5324999;-0.36500
5327776;-0.36500
5330554;-0.36500
5333332;-0.37000
5336110;-0.38500
5338887;-0.39000
5341665;-0.39000
5344443;-0.37000
5347221;-0.37000
5349999;-0.37500
5352776;-0.38500
5355554;-0.39500
5358332;-0.39500
5361110;-0.36500
5363887;-0.37000
5366665;-0.39000
5369443;-0.39000
5372221;-0.39500
5374998;-0.38500
5377776;-0.39000
5380554;-0.39000
5383332;-0.38000
5386110;-0.39000
5388887;-0.40500
5391665;-0.39000
5394443;-0.39500
5397221;-0.40000
5399998;-0.40000
5402776;-0.41500
5405554;-0.41000
5408332;-0.40500
5411110;-0.39000
5413887;-0.38500
5416665;-0.39500
5419443;-0.41000
5422221;-0.40500
5424998;-0.38000
5427776;-0.37500
5430554;-0.38500
5433332;-0.37500
5436110;-0.38000
5438887;-0.38500
5441665;-0.37000
5444443;-0.37000
5447221;-0.37000
5449998;-0.37000
5452776;-0.38000
5455554;-0.38000
5458332;-0.38500
5461110;-0.37500
5463887;-0.38000
5466665;-0.38000
5469443;-0.38500
5472221;-0.39000
5474998;-0.36500
5477776;-0.36500
5480554;-0.35500
5483332;-0.37500
5486110;-0.36000
5488887;-0.35500
5491665;-0.33500
5494443;-0.31500
5497221;-0.30500
5499998;-0.30000
5502776;-0.31000
5505554;-0.31500
5508332;-0.29000
5511110;-0.27000
5513887;-0.27000
5516665;-0.27000
5519443;-0.29000
5522221;-0.28500
5524998;-0.27500
5527776;-0.26500
5530554;-0.27000
5533332;-0.28500
5536110;-0.30000
5538887;-0.31000
5541665;-0.29500
5544443;-0.28500
5547221;-0.28500
5549998;-0.29500
5552776;-0.31000
5555554;-0.31500
5558332;-0.28500
5561110;-0.26000
5563887;-0.26500
5566665;-0.30000
5569443;-0.34500
5572221;-0.35000
5574998;-0.35000
5577776;-0.34500
5580554;-0.37000
5583332;-0.39500
5586110;-0.39000
5588887;-0.40000
5591665;-0.39000
5594443;-0.39500
5597221;-0.40000
5599998;-0.40000
5602776;-0.41500
5605554;-0.43000
5608332;-0.42500
5611110;-0.40500
5613887;-0.42000
5616665;-0.43000
5619443;-0.42500
5622221;-0.42000
5624998;-0.41000
5627776;-0.40500
5630554;-0.40000
5633332;-0.40500
5636110;-0.42500
5638887;-0.42500
5641665;-0.41500
5644443;-0.41500
5647221;-0.42000
5649998;-0.43000
5652776;-0.47500
5655554;-0.50500
5658332;-0.53500
5661110;-0.53500
5663887;-0.58500
5666665;-0.64000
5669443;-0.65000
5672221;-0.58500
5674998;-0.48000
5677776;-0.39000
5680554;-0.34000
5683332;-0.26500
5686110;-0.17500
5688887;-0.04000
5691665;0.15000
5694443;0.37500
5697221;0.56000
5699998;0.70500
5702776;0.77000
5705554;0.72500
5708332;0.49000
5711110;0.14000
5713887;-0.23000
5716665;-0.48000
5719443;-0.56500
5722221;-0.54000
5724998;-0.48000
5727776;-0.45000
5730554;-0.44000
5733332;-0.45000
5736110;-0.45000
5738887;-0.45000
5741665;-0.44500
5744443;-0.43000
5747221;-0.43000
5749998;-0.45000
5752776;-0.46000
5755554;-0.46500
5758332;-0.46000
5761109;-0.45500
5763887;-0.45000
5766665;-0.45000
5769443;-0.45500
5772221;-0.46000
5774998;-0.45000
5777776;-0.44500
5780554;-0.45000
5783332;-0.45500
5786109;-0.46500
5788887;-0.47000
5791665;-0.45500
5794443;-0.44500
5797221;-0.45500
5799998;-0.45500
5802776;-0.45500
5805554;-0.45500
5808332;-0.43500
5811109;-0.43500
5813887;-0.42500
5816665;-0.44500
5819443;-0.44000
5822221;-0.45000
5824998;-0.45000
5827776;-0.45500
5830554;-0.45000
5833332;-0.45500
5836109;-0.46500
5838887;-0.46000
5841665;-0.46000
5844443;-0.44500
5847221;-0.44500
5849998;-0.46000
5852776;-0.47000
5855554;-0.46500
5858332;-0.45500
5861109;-0.43500
5863887;-0.44000
5866665;-0.45000
5869443;-0.45500
5872221;-0.46500
5874998;-0.46500
5877776;-0.46500
5880554;-0.45000
5883332;-0.44500
5886109;-0.44500
5888887;-0.44500
5891665;-0.44500
5894443;-0.43000
5897221;-0.43000
5899998;-0.43500
5902776;-0.46000
5905554;-0.45000
5908332;-0.44000
5911109;-0.42500
5913887;-0.44000
5916665;-0.45500
5919443;-0.46000
5922221;-0.47500
5924998;-0.47000
5927776;-0.45500
5930554;-0.45500
5933332;-0.47000
5936109;-0.48500
5938887;-0.48500
5941665;-0.47000
5944443;-0.47000
5947221;-0.47000
5949998;-0.48000
5952776;-0.49000
5955554;-0.49000
5958332;-0.47500
5961109;-0.46000
5963887;-0.46500
5966665;-0.47500
5969443;-0.48500
5972221;-0.48500
5974998;-0.47500
5977776;-0.48000
5980554;-0.47000
5983332;-0.47500
5986109;-0.48000
5988887;-0.48000
5991665;-0.44500
5994443;-0.44000
5997221;-0.41500
5999998;-0.41500
6002776;-0.41000
6005554;-0.41000
6008332;-0.39000
6011109;-0.38000
6013887;-0.38000
6016665;-0.38500
6019443;-0.39000
6022221;-0.38000
6024998;-0.36500
6027776;-0.36000
6030554;-0.35500
6033332;-0.36500
6036109;-0.36500
6038887;-0.36500
6041665;-0.35000
6044443;-0.35000
6047221;-0.34500
6049998;-0.35500
6052776;-0.37500
6055554;-0.38500
6058332;-0.37500
6061109;-0.35500
6063887;-0.35500
6066665;-0.35000
6069443;-0.35500
6072221;-0.37000
6074998;-0.35500
6077776;-0.35500
6080554;-0.35500
6083332;-0.37500
6086109;-0.38000
6088887;-0.38000
6091665;-0.37000
6094443;-0.36000
6097221;-0.36000
6099998;-0.37000
6102776;-0.39500
6105554;-0.39500
6108332;-0.38000
6111109;-0.36500
6113887;-0.35500
6116665;-0.37500
6119443;-0.38000
6122221;-0.37500
6124998;-0.37000
6127776;-0.37000
6130554;-0.37000
6133332;-0.39500
6136109;-0.40500
6138887;-0.40500
6141665;-0.39500
6144443;-0.40000
6147221;-0.40000
6149998;-0.41000
6152776;-0.40500
6155554;-0.41000
6158332;-0.41000
6161109;-0.40000
6163887;-0.40000
6166665;-0.41000
6169443;-0.42000
6172220;-0.41500
6174998;-0.41000
6177776;-0.39500
6180554;-0.39000
6183332;-0.39500
6186109;-0.40500
6188887;-0.40500
6191665;-0.39000
6194443;-0.39000
6197220;-0.39500
6199998;-0.40500
6202776;-0.40500
6205554;-0.41500
6208332;-0.41500
6211109;-0.42000
6213887;-0.40500
6216665;-0.40500
6219443;-0.40500
6222220;-0.43000
6224998;-0.41000
6227776;-0.41000
6230554;-0.40500
6233332;-0.41000
6236109;-0.42000
6238887;-0.42000
6241665;-0.41500
6244443;-0.40000
6247220;-0.40500
6249998;-0.40500
6252776;-0.42000
6255554;-0.40500
6258332;-0.41500
6261109;-0.40000
6263887;-0.39000
6266665;-0.39500
6269443;-0.39500
6272220;-0.39500
6274998;-0.39000
6277776;-0.38000
6280554;-0.36500
6283332;-0.34500
6286109;-0.35000
6288887;-0.34500
6291665;-0.33500
6294443;-0.34000
6297220;-0.34000
6299998;-0.34500
6302776;-0.34500
6305554;-0.33500
6308332;-0.31500
6311109;-0.29000
6313887;-0.27500
6316665;-0.27500
6319443;-0.28500
6322220;-0.30000
6324998;-0.29500
6327776;-0.30000
6330554;-0.31000
6333332;-0.30500
6336109;-0.30500
6338887;-0.31000
6341665;-0.31000
6344443;-0.32000
6347220;-0.29500
6349998;-0.29500
6352776;-0.29500
6355554;-0.31000
6358332;-0.33000
6361109;-0.33500
6363887;-0.34000
6366665;-0.36500
6369443;-0.37500
6372220;-0.40000
6374998;-0.40500
6377776;-0.40000
6380554;-0.41500
6383332;-0.41500
6386109;-0.42500
6388887;-0.42500
6391665;-0.43000
6394443;-0.40500
6397220;-0.40000
6399998;-0.40000
6402776;-0.42000
6405554;-0.42500
6408332;-0.43000
6411109;-0.41500
6413887;-0.41500
6416665;-0.43000
6419443;-0.43500
6422220;-0.43000
6424998;-0.42500
6427776;-0.42000
6430554;-0.42500
6433332;-0.42500
6436109;-0.43000
6438887;-0.42500
6441665;-0.42500
6444443;-0.42500
6447220;-0.43000
6449998;-0.44500
6452776;-0.47500
6455554;-0.52500
6458332;-0.54000
6461109;-0.53500
6463887;-0.57000
6466665;-0.60500
6469443;-0.62000
6472220;-0.55500
6474998;-0.42000
6477776;-0.28500
6480554;-0.13000
6483332;0.09500
6486109;0.35500
6488887;0.60000
6491665;0.77500
6494443;0.83000
6497220;0.68500
6499998;0.36000
6502776;-0.03000
6505554;-0.34500
6508332;-0.49500
6511109;-0.53500
6513887;-0.53000
6516665;-0.49000
6519443;-0.47500
6522220;-0.48000
6524998;-0.46500
6527776;-0.47000
6530554;-0.46500
6533332;-0.45500
6536109;-0.46500
6538887;-0.48000
6541665;-0.48000
6544443;-0.45000
6547220;-0.45500
6549998;-0.46000
6552776;-0.47000
6555554;-0.47500
6558331;-0.46000
6561109;-0.45000
6563887;-0.44500
6566665;-0.46500
6569443;-0.47000
6572220;-0.46500
6574998;-0.44500
6577776;-0.44500
6580554;-0.44500
6583331;-0.45000
6586109;-0.45500
6588887;-0.46500
6591665;-0.45000
6594443;-0.45000
6597220;-0.44500
6599998;-0.45500
6602776;-0.46500
6605554;-0.46500
6608331;-0.46500
6611109;-0.44500
6613887;-0.44500
6616665;-0.45000
6619443;-0.46500
6622220;-0.47000
6624998;-0.46500
6627776;-0.45500
6630554;-0.45500
6633331;-0.46000
6636109;-0.45500
6638887;-0.46000
6641665;-0.46000
6644443;-0.44500
6647220;-0.44500
6649998;-0.44500
6652776;-0.45000
6655554;-0.46000
6658331;-0.44000
6661109;-0.43500
6663887;-0.43000
6666665;-0.44000
6669443;-0.45000
6672220;-0.45000
6674998;-0.44000
6677776;-0.43500
6680554;-0.43000
6683331;-0.44000
6686109;-0.45500
6688887;-0.46000
6691665;-0.43500
6694443;-0.44000
6697220;-0.43500
6699998;-0.44000
6702776;-0.44500
6705554;-0.45500
6708331;-0.46000
6711109;-0.44000
6713887;-0.44500
6716665;-0.45500
6719443;-0.46000
6722220;-0.46000
6724998;-0.45000
6727776;-0.45500
6730554;-0.45000
6733331;-0.46000
6736109;-0.46500
6738887;-0.47500
6741665;-0.46500
6744443;-0.47000
6747220;-0.46500
6749998;-0.47500
6752776;-0.50000
6755554;-0.51500
6758331;-0.49500
6761109;-0.49000
6763887;-0.49500
6766665;-0.50500
6769443;-0.50500
6772220;-0.51000
6774998;-0.49500
6777776;-0.49000
6780554;-0.48500
6783331;-0.48500
6786109;-0.49500
6788887;-0.49000
6791665;-0.48000
6794443;-0.46000
6797220;-0.45000
6799998;-0.45000
6802776;-0.44500
6805554;-0.43500
6808331;-0.42000
6811109;-0.41500
6813887;-0.40000
6816665;-0.40000
6819443;-0.39000
6822220;-0.38000
6824998;-0.37000
6827776;-0.36000
6830554;-0.34500
6833331;-0.35000
6836109;-0.34500
6838887;-0.34500
6841665;-0.34000
6844443;-0.32500
6847220;-0.32000
6849998;-0.33500
6852776;-0.33000
6855554;-0.33000
6858331;-0.32500
6861109;-0.31000
6863887;-0.30500
6866665;-0.31000
6869443;-0.33000
6872220;-0.32000
6874998;-0.31500
6877776;-0.30500
6880554;-0.31500
6883331;-0.31000
6886109;-0.33500
6888887;-0.33500
6891665;-0.32500
6894443;-0.32500
6897220;-0.32500
6899998;-0.33500
6902776;-0.35500
6905554;-0.34500
6908331;-0.32500
6911109;-0.32500
6913887;-0.33000
6916665;-0.33000
6919443;-0.34000
6922220;-0.35000
6924998;-0.33000
6927776;-0.32500
6930554;-0.33500
6933331;-0.33500
6936109;-0.33000
6938887;-0.34500
6941665;-0.34000
6944442;-0.33000
6947220;-0.32500
6949998;-0.34000
6952776;-0.34000
6955554;-0.34500
6958331;-0.33000
6961109;-0.32000
6963887;-0.33000
6966665;-0.32000
6969442;-0.33000
6972220;-0.33500
6974998;-0.35500
6977776;-0.33500
6980554;-0.33500
6983331;-0.34000
6986109;-0.35000
6988887;-0.35500
6991665;-0.35000
6994442;-0.34500
6997220;-0.33500
6999998;-0.35000
7002776;-0.35000
7005554;-0.35500
7008331;-0.36000
7011109;-0.35000
7013887;-0.34000
7016665;-0.35500
7019442;-0.36500
7022220;-0.37000
7024998;-0.36000
7027776;-0.34000
7030554;-0.33500
7033331;-0.34500
7036109;-0.34500
7038887;-0.35500
7041665;-0.35000
7044442;-0.33500
7047220;-0.33500
7049998;-0.33000
7052776;-0.34000
7055554;-0.34000
7058331;-0.33000
7061109;-0.32000
7063887;-0.32500
7066665;-0.33500
7069442;-0.35000
7072220;-0.34500
7074998;-0.34500
7077776;-0.34000
7080554;-0.35000
7083331;-0.33500
7086109;-0.34000
7088887;-0.35500
7091665;-0.34000
7094442;-0.33000
7097220;-0.33000
7099998;-0.34500
7102776;-0.34500
7105554;-0.34500
7108331;-0.33000
7111109;-0.30500
7113887;-0.29500
7116665;-0.28500
7119442;-0.27500
7122220;-0.27000
7124998;-0.26500
7127776;-0.24500
7130554;-0.24500
7133331;-0.25000
7136109;-0.26000
7138887;-0.26000
7141665;-0.25500
7144442;-0.23500
7147220;-0.23000
7149998;-0.23500
7152776;-0.23000
7155554;-0.23000
7158331;-0.22500
7161109;-0.21500
7163887;-0.21500
7166665;-0.23500
7169442;-0.25000
7172220;-0.25500
7174998;-0.25500
7177776;-0.23500
7180554;-0.24000
7183331;-0.24000
7186109;-0.25500
7188887;-0.26500
7191665;-0.24000
7194442;-0.20500
7197220;-0.18000
7199998;-0.21000
7202776;-0.24000
7205554;-0.26500
7208331;-0.27500
7211109;-0.28500
7213887;-0.30000
7216665;-0.32500
7219442;-0.34000
7222220;-0.34000
7224998;-0.35000
7227776;-0.34000
7230554;-0.34500
7233331;-0.34500
7236109;-0.35000
7238887;-0.35000
7241665;-0.34000
7244442;-0.33000
7247220;-0.33000
7249998;-0.33000
7252776;-0.34500
7255554;-0.35000
7258331;-0.33500
7261109;-0.33500
7263887;-0.31500
7266665;-0.33500
7269442;-0.34000
7272220;-0.34500
7274998;-0.34000
7277776;-0.33000
7280554;-0.32500
7283331;-0.34000
7286109;-0.33500
7288887;-0.34500
7291665;-0.34000
7294442;-0.33000
7297220;-0.33500
7299998;-0.35500
7302776;-0.38500
7305554;-0.42500
7308331;-0.46000
7311109;-0.46500
7313887;-0.49000
7316665;-0.52500
7319442;-0.57000
7322220;-0.57000
7324998;-0.48500
7327776;-0.38000
7330554;-0.22500
7333331;-0.06500
7336109;0.11000
7338887;0.36000
7341665;0.64000
7344442;0.84000
7347220;0.96000
7349998;0.97000
7352776;0.79000
7355553;0.44000
7358331;0.02500
7361109;-0.28500
7363887;-0.42500
7366665;-0.46000
7369442;-0.43500
7372220;-0.39500
7374998;-0.36500
7377776;-0.35500
7380553;-0.37000
7383331;-0.37000
7386109;-0.37000
7388887;-0.37500
7391665;-0.38000
7394442;-0.37500
7397220;-0.36500
7399998;-0.37500
7402776;-0.39000
7405553;-0.38500
7408331;-0.38000
7411109;-0.38000
7413887;-0.36000
7416665;-0.37000
7419442;-0.38000
7422220;-0.39000
7424998;-0.37000
7427776;-0.36000
7430553;-0.36000
7433331;-0.37500
7436109;-0.38500
7438887;-0.39000
7441665;-0.38500
7444442;-0.37500
7447220;-0.36500
7449998;-0.38000
7452776;-0.39000
7455553;-0.38000
7458331;-0.37500
7461109;-0.36500
7463887;-0.36500
7466665;-0.37500
7469442;-0.38000
7472220;-0.38500
7474998;-0.37000
7477776;-0.36500
7480553;-0.35500
7483331;-0.36000
7486109;-0.37500
7488887;-0.39000
7491665;-0.37500
7494442;-0.36000
7497220;-0.35500
7499998;-0.37500
7502776;-0.38000
7505553;-0.37000
7508331;-0.36000
7511109;-0.36000
7513887;-0.36000
7516665;-0.36500
7519442;-0.37500
7522220;-0.37000
7524998;-0.36500
7527776;-0.36000
7530553;-0.36500
7533331;-0.36500
7536109;-0.37500
7538887;-0.37000
7541665;-0.37500
7544442;-0.36500
7547220;-0.36500
7549998;-0.36500
7552776;-0.37000
7555553;-0.39000
7558331;-0.37500
7561109;-0.36500
7563887;-0.37000
7566665;-0.37000
7569442;-0.37500
7572220;-0.37000
7574998;-0.36500
7577776;-0.36500
7580553;-0.36000
7583331;-0.36000
7586109;-0.38000
7588887;-0.37500
7591665;-0.35500
7594442;-0.35000
7597220;-0.35000
7599998;-0.36500
7602776;-0.37500
7605553;-0.37500
7608331;-0.37000
7611109;-0.36500
7613887;-0.37000
7616665;-0.38500
7619442;-0.39000
7622220;-0.40000
7624998;-0.39000
7627776;-0.38000
7630553;-0.37500
7633331;-0.38000
7636109;-0.38000
7638887;-0.39000
7641665;-0.37500
7644442;-0.36000
7647220;-0.36500
7649998;-0.37000
7652776;-0.35000
7655553;-0.35500
7658331;-0.33500
7661109;-0.32000
7663887;-0.31000
7666665;-0.31500
7669442;-0.30500
7672220;-0.30000
7674998;-0.29000
7677776;-0.28500
7680553;-0.26500
7683331;-0.26500
7686109;-0.28500
7688887;-0.27000
7691665;-0.25500
7694442;-0.24000
7697220;-0.23000
7699998;-0.24500
7702776;-0.24500
7705553;-0.25500
7708331;-0.24500
7711109;-0.23000
7713887;-0.24000
7716665;-0.24500
7719442;-0.24000
7722220;-0.26000
7724998;-0.24000
7727776;-0.24000
7730553;-0.24500
7733331;-0.25000
7736109;-0.24500
7738887;-0.25500
7741664;-0.24500
7744442;-0.24500
7747220;-0.23500
7749998;-0.25000
7752776;-0.25500
7755553;-0.26500
7758331;-0.25500
7761109;-0.24500
7763887;-0.24500
7766664;-0.25000
7769442;-0.26000
7772220;-0.26000
7774998;-0.25000
7777776;-0.25000
7780553;-0.24500
7783331;-0.27000
7786109;-0.26500
7788887;-0.27500
7791664;-0.27500
7794442;-0.26500
7797220;-0.27000
7799998;-0.28000
7802776;-0.27500
7805553;-0.28000
7808331;-0.28500
7811109;-0.26500
7813887;-0.27000
7816664;-0.27500
7819442;-0.28500
7822220;-0.28500
7824998;-0.27500
7827776;-0.27500
7830553;-0.27000
7833331;-0.27500
7836109;-0.29000
7838887;-0.29500
7841664;-0.28000
7844442;-0.27000
7847220;-0.27500
7849998;-0.28500
7852776;-0.30000
7855553;-0.30500
7858331;-0.29000
7861109;-0.29000
7863887;-0.29000
7866664;-0.29500
7869442;-0.29000
7872220;-0.30500
7874998;-0.30500
7877776;-0.29000
7880553;-0.29000
7883331;-0.30000
7886109;-0.32000
7888887;-0.30500
7891664;-0.29500
7894442;-0.28000
7897220;-0.28500
7899998;-0.30000
7902776;-0.29000
7905553;-0.29000
7908331;-0.29500
7911109;-0.28000
7913887;-0.27000
7916664;-0.27500
7919442;-0.29000
7922220;-0.30000
7924998;-0.29000
7927776;-0.28000
7930553;-0.27500
7933331;-0.28500
7936109;-0.30000
7938887;-0.30000
7941664;-0.29000
7944442;-0.28500
7947220;-0.27500
7949998;-0.28500
7952776;-0.29000
7955553;-0.29500
7958331;-0.28000
7961109;-0.28000
7963887;-0.27000
7966664;-0.27000
7969442;-0.25000
7972220;-0.24500
7974998;-0.22500
7977776;-0.21500
7980553;-0.20500
7983331;-0.20500
7986109;-0.21500
7988887;-0.21000
7991664;-0.19500
7994442;-0.18000
7997220;-0.17500
7999998;-0.18000
8002776;-0.18500
8005553;-0.19000
8008331;-0.18000
8011109;-0.16500
8013887;-0.16000
8016664;-0.18000
8019442;-0.18000
8022220;-0.20000
8024998;-0.19500
8027776;-0.18500
8030553;-0.19000
8033331;-0.19000
8036109;-0.18500
8038887;-0.20000
8041664;-0.19500
8044442;-0.19500
8047220;-0.21000
8049998;-0.20000
8052776;-0.19000
8055553;-0.18000
8058331;-0.15500
8061109;-0.18000
8063887;-0.21000
8066664;-0.23500
8069442;-0.24500
8072220;-0.25500
8074998;-0.26000
8077776;-0.27000
8080553;-0.27000
8083331;-0.29000
8086109;-0.30500
8088887;-0.31000
8091664;-0.30000
8094442;-0.27500
8097220;-0.29000
8099998;-0.29000
8102776;-0.29500
8105553;-0.30000
8108331;-0.31500
8111109;-0.30500
8113887;-0.30000
8116664;-0.31000
8119442;-0.30000
8122220;-0.31000
8124998;-0.30000
8127776;-0.30500
8130553;-0.29000
8133331;-0.30000
8136109;-0.30500
8138887;-0.31500
8141664;-0.30000
8144442;-0.30500
8147220;-0.32500
8149998;-0.36000
8152775;-0.41500
8155553;-0.45000
8158331;-0.45500
8161109;-0.49000
8163887;-0.53000
8166664;-0.50500
8169442;-0.43000
8172220;-0.30500
8174998;-0.18000
8177775;-0.06000
8180553;0.08000
8183331;0.28500
8186109;0.48500
8188887;0.69000
8191664;0.86500
8194442;0.95500
8197220;0.99500
8199998;0.88000
8202775;0.58500
8205553;0.13500
8208331;-0.21000
8211109;-0.40000
8213887;-0.42500
8216664;-0.40500
8219442;-0.36000
8222220;-0.33500
8224998;-0.33500
8227775;-0.34000
8230553;-0.33500
8233331;-0.34000
8236109;-0.35000
8238887;-0.35500
8241664;-0.35000
8244442;-0.35000
8247220;-0.35000
8249998;-0.35500
8252775;-0.37000
8255553;-0.37000
8258331;-0.35500
8261109;-0.35000
8263887;-0.35500
8266664;-0.34000
8269442;-0.35000
8272220;-0.36500
8274998;-0.35500
8277775;-0.34500
8280553;-0.34500
8283331;-0.34500
8286109;-0.35000
8288887;-0.35000
8291664;-0.34000
8294442;-0.33000
8297220;-0.32500
8299998;-0.33000
8302775;-0.34500
8305553;-0.35000
8308331;-0.33500
8311109;-0.32500
8313887;-0.33000
8316664;-0.32500
8319442;-0.34000
8322220;-0.34000
8324998;-0.33500
8327775;-0.33000
8330553;-0.33000
8333331;-0.33000
8336109;-0.34500
8338887;-0.34000
8341664;-0.33500
8344442;-0.34500
8347220;-0.33500
8349998;-0.33500
8352775;-0.35000
8355553;-0.34500
8358331;-0.33500
8361109;-0.33500
8363887;-0.33500
8366664;-0.34000
8369442;-0.34500
8372220;-0.34500
8374998;-0.34500
8377775;-0.33500
8380553;-0.34000
8383331;-0.33500
8386109;-0.35500
8388887;-0.35500
8391664;-0.34500
8394442;-0.33500
8397220;-0.33500
8399998;-0.34000
8402775;-0.35000
8405553;-0.35000
8408331;-0.34500
8411109;-0.33000
8413887;-0.33500
8416664;-0.35000
8419442;-0.35000
8422220;-0.36000
8424998;-0.35000
8427775;-0.33000
8430553;-0.34000
8433331;-0.34000
8436109;-0.34500
8438887;-0.35000
8441664;-0.33500
8444442;-0.34500
8447220;-0.33500
8449998;-0.34500
8452775;-0.35500
8455553;-0.35500
8458331;-0.33500
8461109;-0.34000
8463887;-0.34000
8466664;-0.35500
8469442;-0.36000
8472220;-0.36000
8474998;-0.35000
8477775;-0.34000
8480553;-0.33000
8483331;-0.34000
8486109;-0.34000
8488887;-0.33500
8491664;-0.30500
8494442;-0.30000
8497220;-0.29500
8499998;-0.30000
8502775;-0.29000
8505553;-0.29000
8508331;-0.27000
8511109;-0.25500
8513887;-0.26500
8516664;-0.26500
8519442;-0.26000
8522220;-0.25500
8524998;-0.24500
8527775;-0.24000
8530553;-0.24000
8533331;-0.25000
8536109;-0.25000
8538886;-0.25000
8541664;-0.23500
8544442;-0.23500
8547220;-0.23000
8549998;-0.25000
8552775;-0.25000
8555553;-0.25000
8558331;-0.24500
8561109;-0.23000
8563886;-0.23500
8566664;-0.24500
8569442;-0.25500
8572220;-0.25500
8574998;-0.25000
8577775;-0.24500
8580553;-0.24500
8583331;-0.25000
8586109;-0.25500
8588886;-0.26000
8591664;-0.26000
8594442;-0.25000
8597220;-0.25000
8599998;-0.25000
8602775;-0.26500
8605553;-0.27000
8608331;-0.27500
8611109;-0.26500
8613886;-0.26000
8616664;-0.26000
8619442;-0.27000
8622220;-0.28000
8624998;-0.27000
8627775;-0.26000
8630553;-0.25500
8633331;-0.27000
8636109;-0.27000
8638886;-0.28000
8641664;-0.27000
8644442;-0.26500
8647220;-0.27000
8649998;-0.26000
8652775;-0.27500
8655553;-0.27500
8658331;-0.26500
8661109;-0.27000
8663886;-0.27000
8666664;-0.27000
8669442;-0.27500
8672220;-0.27500
8674998;-0.27000
8677775;-0.26000
8680553;-0.27000
8683331;-0.28000
8686109;-0.28500
8688886;-0.29000
8691664;-0.29000
8694442;-0.28500
8697220;-0.27000
8699998;-0.28500
8702775;-0.30500
8705553;-0.30500
8708331;-0.29000
8711109;-0.29000
8713886;-0.28000
8716664;-0.28500
8719442;-0.28500
8722220;-0.29000
8724998;-0.29500
8727775;-0.27500
8730553;-0.27500
8733331;-0.28500
8736109;-0.29000
8738886;-0.29000
8741664;-0.28000
8744442;-0.26500
8747220;-0.26000
8749998;-0.27000
8752775;-0.27000
8755553;-0.28000
8758331;-0.27000
8761109;-0.26500
8763886;-0.26500
8766664;-0.27000
8769442;-0.28500
8772220;-0.28000
8774998;-0.27500
8777775;-0.27000
8780553;-0.27500
8783331;-0.26500
8786109;-0.27500
8788886;-0.27500
8791664;-0.27000
8794442;-0.26000
8797220;-0.26500
8799998;-0.26500
8802775;-0.26000
8805553;-0.25500
8808331;-0.24500
8811109;-0.21500
8813886;-0.20000
8816664;-0.21000
8819442;-0.22000
8822220;-0.21000
8824998;-0.19500
8827775;-0.17500
8830553;-0.17500
8833331;-0.16000
8836109;-0.17500
8838886;-0.16500
8841664;-0.16000
8844442;-0.15500
8847220;-0.15500
8849998;-0.17000
8852775;-0.18500
8855553;-0.19000
8858331;-0.17500
8861109;-0.17000
8863886;-0.17000
8866664;-0.17500
8869442;-0.19500
8872220;-0.20500
8874998;-0.18500
8877775;-0.15500
8880553;-0.13500
8883331;-0.16000
8886109;-0.19500
8888886;-0.22000
8891664;-0.21500
8894442;-0.21500
8897220;-0.24500
8899998;-0.27000
8902775;-0.29000
8905553;-0.31000
8908331;-0.29500
8911109;-0.28500
8913886;-0.28500
8916664;-0.28500
8919442;-0.29500
8922220;-0.30500
8924998;-0.29500
8927775;-0.29500
8930553;-0.29500
8933331;-0.30000
8936109;-0.30500
8938886;-0.30500
8941664;-0.29500
8944442;-0.29000
8947220;-0.29500
8949997;-0.30000
8952775;-0.31500
8955553;-0.32000
8958331;-0.31000
8961109;-0.30500
8963886;-0.30000
8966664;-0.30000
8969442;-0.30500
8972220;-0.31500
8974997;-0.33500
8977775;-0.37000
8980553;-0.40500
8983331;-0.43000
8986109;-0.45500
8988886;-0.51000
8991664;-0.53500
8994442;-0.51500
8997220;-0.44000
8999997;-0.32000
9002775;-0.20500
9005553;-0.05000
9008331;0.20500
9011109;0.49000
9013886;0.71500
9016664;0.83000
9019442;0.81500
9022220;0.62000
9024997;0.27000
9027775;-0.10000
9030553;-0.35500
9033331;-0.45500
9036109;-0.45500
9038886;-0.40000
9041664;-0.35500
9044442;-0.35000
9047220;-0.34500
9049997;-0.35500
9052775;-0.36500
9055553;-0.37000
9058331;-0.35500
9061109;-0.34000
9063886;-0.34500
9066664;-0.35000
9069442;-0.35500
9072220;-0.36500
9074997;-0.36000
9077775;-0.36500
9080553;-0.36000
9083331;-0.36500
9086109;-0.36500
9088886;-0.37000
9091664;-0.37000
9094442;-0.35500
9097220;-0.35500
9099997;-0.35500
9102775;-0.36000
9105553;-0.36500
9108331;-0.34000
9111109;-0.34000
9113886;-0.34500
9116664;-0.35000
9119442;-0.36500
9122220;-0.36500
9124997;-0.35000
9127775;-0.34000
9130553;-0.35000
9133331;-0.35000
9136109;-0.37000
9138886;-0.36000
9141664;-0.35500
9144442;-0.35000
9147220;-0.34500
9149997;-0.35500
9152775;-0.37000
9155553;-0.37000
9158331;-0.36000
9161109;-0.35500
9163886;-0.35500
9166664;-0.34500
9169442;-0.36000
9172220;-0.36000
9174997;-0.35500
9177775;-0.34500
9180553;-0.34000
9183331;-0.34000
9186109;-0.36000
9188886;-0.35500
9191664;-0.35500
9194442;-0.35000
9197220;-0.35000
9199997;-0.35000
9202775;-0.36000
9205553;-0.35000
9208331;-0.34000
9211109;-0.33500
9213886;-0.34000
9216664;-0.35500
9219442;-0.36500
9222220;-0.36000
9224997;-0.36500
9227775;-0.35500
9230553;-0.35500
9233331;-0.35000
9236109;-0.36000
9238886;-0.37500
9241664;-0.36500
9244442;-0.35500
9247220;-0.37000
9249997;-0.37500
9252775;-0.37500
9255553;-0.38000
9258331;-0.37500
9261109;-0.38000
9263886;-0.36500
9266664;-0.37000
9269442;-0.39000
9272220;-0.40500
9274997;-0.40000
9277775;-0.39500
9280553;-0.38000
9283331;-0.39000
9286109;-0.39000
9288886;-0.40000
9291664;-0.39000
9294442;-0.38000
9297220;-0.38500
9299997;-0.40500
9302775;-0.38500
9305553;-0.38500
9308331;-0.35500
9311109;-0.34500
9313886;-0.33500
9316664;-0.33000
9319442;-0.33500
9322220;-0.32000
9324997;-0.30000
9327775;-0.28500
9330553;-0.28000
9333331;-0.28500
9336108;-0.28500
9338886;-0.29500
9341664;-0.28500
9344442;-0.27000
9347220;-0.27000
9349997;-0.27000
9352775;-0.27500
9355553;-0.28500
9358331;-0.27500
9361108;-0.26500
9363886;-0.25500
9366664;-0.25500
9369442;-0.27500
9372220;-0.28000
9374997;-0.27000
9377775;-0.26500
9380553;-0.27500
9383331;-0.28000
9386108;-0.27000
9388886;-0.27000
9391664;-0.25500
9394442;-0.25000
9397220;-0.24500
9399997;-0.26500
9402775;-0.27500
9405553;-0.29000
9408331;-0.28500
9411108;-0.27000
9413886;-0.26500
9416664;-0.25000
9419442;-0.27000
9422220;-0.28000
9424997;-0.28000
9427775;-0.28000
9430553;-0.28000
9433331;-0.28500
9436108;-0.30500
9438886;-0.29500
9441664;-0.29000
9444442;-0.29500
9447220;-0.28000
9449997;-0.29000
9452775;-0.29500
9455553;-0.30500
9458331;-0.29500
9461108;-0.29000
9463886;-0.28500
9466664;-0.27500
9469442;-0.29000
9472220;-0.30500
9474997;-0.30000
9477775;-0.29500
9480553;-0.29000
9483331;-0.29500
9486108;-0.30000
9488886;-0.31000
9491664;-0.29500
9494442;-0.30000
9497220;-0.28500
9499997;-0.29500
9502775;-0.31000
9505553;-0.31500
9508331;-0.31000
9511108;-0.31000
9513886;-0.31000
9516664;-0.32000
9519442;-0.30500
9522220;-0.29500
9524997;-0.28000
9527775;-0.28000
9530553;-0.28000
9533331;-0.29500
9536108;-0.30500
9538886;-0.30500
9541664;-0.30000
9544442;-0.29500
9547220;-0.29000
9549997;-0.30000
9552775;-0.28500
9555553;-0.29500
9558331;-0.29500
9561108;-0.29500
9563886;-0.29500
9566664;-0.29500
9569442;-0.30500
9572220;-0.31000
9574997;-0.30000
9577775;-0.29000
9580553;-0.29000
9583331;-0.29000
9586108;-0.30000
9588886;-0.30000
9591664;-0.27000
9594442;-0.24500
9597220;-0.24000
9599997;-0.25000
9602775;-0.25000
9605553;-0.25000
9608331;-0.22500
9611108;-0.21000
9613886;-0.19500
9616664;-0.19000
9619442;-0.19000
9622220;-0.19000
9624997;-0.19000
9627775;-0.19500
9630553;-0.18500
9633331;-0.18500
9636108;-0.21000
9638886;-0.20000
9641664;-0.20000
9644442;-0.18500
9647220;-0.20000
9649997;-0.21500
9652775;-0.23000
9655553;-0.24000
9658331;-0.21000
9661108;-0.17500
9663886;-0.17500
9666664;-0.21500
9669442;-0.24500
9672220;-0.26500
9674997;-0.26500
9677775;-0.27000
9680553;-0.29000
9683331;-0.30000
9686108;-0.30000
9688886;-0.32500
9691664;-0.31500
9694442;-0.30500
9697220;-0.29000
9699997;-0.28500
9702775;-0.28500
9705553;-0.28500
9708331;-0.27500
9711108;-0.27000
9713886;-0.28000
9716664;-0.29500
9719442;-0.31000
9722220;-0.33000
9724997;-0.32000
9727775;-0.30500
9730553;-0.30000
9733331;-0.31500
9736108;-0.31500
9738886;-0.32500
9741664;-0.31500
9744442;-0.32000
9747219;-0.33000
9749997;-0.33000
9752775;-0.32500
9755553;-0.32500
9758331;-0.32000
9761108;-0.33500
9763886;-0.36500
9766664;-0.40000
9769442;-0.43000
9772219;-0.47500
9774997;-0.50500
9777775;-0.51500
9780553;-0.45000
9783331;-0.35000
9786108;-0.21000
9788886;-0.06000
9791664;0.17000
9794442;0.44500
9797219;0.71500
9799997;0.88500
9802775;0.92500
9805553;0.76000
9808331;0.41500
9811108;0.03500
9813886;-0.25000
9816664;-0.41000
9819442;-0.46000
9822219;-0.44000
9824997;-0.38500
9827775;-0.35000
9830553;-0.35000
9833331;-0.34000
9836108;-0.35500
9838886;-0.36000
9841664;-0.35000
9844442;-0.34500
9847219;-0.35000
9849997;-0.35000
9852775;-0.37000
9855553;-0.36500
9858331;-0.35000
9861108;-0.34000
9863886;-0.34000
9866664;-0.34500
9869442;-0.35500
9872219;-0.37000
9874997;-0.35500
9877775;-0.34500
9880553;-0.34000
9883331;-0.34500
9886108;-0.35500
9888886;-0.36000
9891664;-0.34500
9894442;-0.35000
9897219;-0.34500
9899997;-0.34000
9902775;-0.36000
9905553;-0.36500
9908331;-0.35500
9911108;-0.35500
9913886;-0.35000
9916664;-0.34500
9919442;-0.36000
9922219;-0.36500
9924997;-0.35500
9927775;-0.35000
9930553;-0.34500
9933331;-0.35000
9936108;-0.35500
9938886;-0.35000
9941664;-0.36000
9944442;-0.34500
9947219;-0.34500
9949997;-0.34500
9952775;-0.35500
9955553;-0.36500
9958331;-0.34500
9961108;-0.34000
9963886;-0.35000
9966664;-0.33000
9969442;-0.36000
9972219;-0.36000
9974997;-0.35000
9977775;-0.34000
9980553;-0.33500
9983331;-0.34000
9986108;-0.35000
9988886;-0.34500
9991664;-0.34000
9994442;-0.34000
9997219;-0.34000
9999997;-0.34500
10002775;-0.34500
10005553;-0.37000
10008331;-0.35500
10011108;-0.34500
10013886;-0.34500
10016664;-0.36500
10019442;-0.38000
10022219;-0.38000
10024997;-0.38000
10027775;-0.38500
10030553;-0.37500
10033331;-0.39000
10036108;-0.39000
10038886;-0.40000
10041664;-0.40000
10044442;-0.39500
10047219;-0.39500
10049997;-0.41000
10052775;-0.40500
10055553;-0.41500
10058331;-0.40500
10061108;-0.38500
10063886;-0.38000
10066664;-0.38000
10069442;-0.38500
10072219;-0.38000
10074997;-0.35500
10077775;-0.34000
10080553;-0.32500
10083331;-0.33000
10086108;-0.32500
10088886;-0.30500
10091664;-0.29500
10094442;-0.28000
10097219;-0.28500
10099997;-0.28000
10102775;-0.27000
10105553;-0.27000
10108331;-0.26000
10111108;-0.25000
10113886;-0.24500
10116664;-0.25000
10119442;-0.26000
10122219;-0.25500
10124997;-0.25000
10127775;-0.24500
10130553;-0.23500
10133330;-0.23000
10136108;-0.24000
10138886;-0.25000
10141664;-0.24000
10144442;-0.23000
10147219;-0.23000
10149997;-0.23500
10152775;-0.23500
10155553;-0.24000
10158330;-0.24000
10161108;-0.23500
10163886;-0.23000
10166664;-0.23500
10169442;-0.26000
10172219;-0.25000
10174997;-0.24500
10177775;-0.23500
10180553;-0.23500
10183330;-0.23500
10186108;-0.25000
10188886;-0.26000
10191664;-0.25500
10194442;-0.24000
10197219;-0.24000
10199997;-0.24000
10202775;-0.25500
10205553;-0.25000
10208330;-0.24500
10211108;-0.24500
10213886;-0.23500
10216664;-0.24500
10219442;-0.26000
10222219;-0.26000
10224997;-0.25000
10227775;-0.25000
10230553;-0.24500
10233330;-0.24500
10236108;-0.25500
10238886;-0.25500
10241664;-0.26000
10244442;-0.25500
10247219;-0.25500
10249997;-0.26000
10252775;-0.26000
10255553;-0.26000
10258330;-0.26000
10261108;-0.24500
10263886;-0.24000
10266664;-0.25500
10269442;-0.26000
10272219;-0.27500
10274997;-0.25500
10277775;-0.25500
10280553;-0.25500
10283330;-0.25000
10286108;-0.27000
10288886;-0.26500
10291664;-0.26000
10294442;-0.25500
10297219;-0.25000
10299997;-0.25500
10302775;-0.25500
10305553;-0.28000
10308330;-0.27000
10311108;-0.27000
10313886;-0.25500
10316664;-0.25500
10319442;-0.26500
10322219;-0.27000
10324997;-0.26000
10327775;-0.25500
10330553;-0.24500
10333330;-0.24500
10336108;-0.25000
10338886;-0.26500
10341664;-0.27500
10344442;-0.23500
10347219;-0.24500
10349997;-0.26000
10352775;-0.26000
10355553;-0.25500
10358330;-0.25000
10361108;-0.24000
10363886;-0.23000
10366664;-0.24500
10369442;-0.24500
10372219;-0.25000
10374997;-0.21500
10377775;-0.19000
10380553;-0.18000
10383330;-0.19000
10386108;-0.19000
10388886;-0.18500
10391664;-0.17000
10394442;-0.17500
10397219;-0.16000
10399997;-0.15500
10402775;-0.15000
10405553;-0.15500
10408330;-0.13000
10411108;-0.13500
10413886;-0.14000
10416664;-0.15000
10419442;-0.15000
10422219;-0.16500
10424997;-0.16000
10427775;-0.16000
10430553;-0.15000
10433330;-0.16000
10436108;-0.17500
10438886;-0.18500
10441664;-0.16000
10444442;-0.14000
10447219;-0.11500
10449997;-0.14000
10452775;-0.18000
10455553;-0.20000
10458330;-0.20500
10461108;-0.20000
10463886;-0.23500
10466664;-0.25000
10469442;-0.25000
10472219;-0.26500
10474997;-0.26500
10477775;-0.26500
10480553;-0.25000
10483330;-0.25500
10486108;-0.26000
10488886;-0.26000
10491664;-0.25500
10494442;-0.25000
10497219;-0.25000
10499997;-0.25500
10502775;-0.26000
10505553;-0.26500
10508330;-0.26000
10511108;-0.26000
10513886;-0.26000
10516664;-0.26000
10519441;-0.27500
10522219;-0.28500
10524997;-0.27000
10527775;-0.26500
10530553;-0.26500
10533330;-0.27500
10536108;-0.27500
10538886;-0.28000
10541664;-0.28000
10544441;-0.26500
10547219;-0.30000
10549997;-0.34000
10552775;-0.38500
10555553;-0.41500
10558330;-0.43000
10561108;-0.47000
10563886;-0.45000
10566664;-0.38000
10569441;-0.23500
10572219;-0.08000
10574997;0.12000
10577775;0.38000
10580553;0.67000
10583330;0.90000
10586108;1.03000
10588886;0.98000
10591664;0.75500
10594441;0.37000
10597219;-0.04500
10599997;-0.33000
10602775;-0.41000
10605553;-0.38000
10608330;-0.32000
10611108;-0.28500
10613886;-0.29000
10616664;-0.29500
10619441;-0.31000
10622219;-0.31000
10624997;-0.31000
10627775;-0.30000
10630553;-0.30000
10633330;-0.30000
10636108;-0.31000
10638886;-0.32000
10641664;-0.31000
10644441;-0.31000
10647219;-0.30000
10649997;-0.31000
10652775;-0.31500
10655553;-0.31500
10658330;-0.31500
10661108;-0.31000
10663886;-0.30500
10666664;-0.31500
10669441;-0.31000
10672219;-0.31500
10674997;-0.32000
10677775;-0.30500
10680553;-0.30500
10683330;-0.30000
10686108;-0.30500
10688886;-0.32500
10691664;-0.31000
10694441;-0.29000
10697219;-0.30000
10699997;-0.30500
10702775;-0.31000
10705553;-0.32000
10708330;-0.31500
10711108;-0.30000
10713886;-0.29500
10716664;-0.29000
10719441;-0.30500
10722219;-0.31500
10724997;-0.31000
10727775;-0.31000
10730553;-0.29500
10733330;-0.30500
10736108;-0.31000
10738886;-0.32000
10741664;-0.30500
10744441;-0.30500
10747219;-0.30500
10749997;-0.30500
10752775;-0.30500
10755553;-0.31500
10758330;-0.30500
10761108;-0.31000
10763886;-0.30000
10766664;-0.30500
10769441;-0.30500
10772219;-0.30500
10774997;-0.30500
10777775;-0.30500
10780553;-0.30500
10783330;-0.31500
10786108;-0.32000
10788886;-0.32000
10791664;-0.30500
10794441;-0.29500
10797219;-0.30000
10799997;-0.30500
10802775;-0.31500
10805553;-0.32000
10808330;-0.31000
10811108;-0.31000
10813886;-0.30000
10816664;-0.31000
10819441;-0.32000
10822219;-0.31000
10824997;-0.31500
10827775;-0.30500
10830553;-0.30000
10833330;-0.31000
10836108;-0.32000
10838886;-0.32000
10841664;-0.32000
10844441;-0.31500
10847219;-0.30500
10849997;-0.31000
10852775;-0.32000
10855553;-0.31500
10858330;-0.31000
10861108;-0.29500
10863886;-0.28500
10866664;-0.27500
10869441;-0.28000
10872219;-0.27000
10874997;-0.25000
10877775;-0.23500
10880553;-0.22500
10883330;-0.22000
10886108;-0.23000
10888886;-0.22500
10891664;-0.22000
10894441;-0.21000
10897219;-0.19000
10899997;-0.19500
10902775;-0.20000
10905553;-0.21000
10908330;-0.20000
10911108;-0.19500
10913886;-0.18500
10916664;-0.19000
10919441;-0.19000
10922219;-0.19000
10924997;-0.18000
10927775;-0.17500
10930552;-0.18000
10933330;-0.18500
10936108;-0.20000
10938886;-0.19500
10941664;-0.19000
10944441;-0.19500
10947219;-0.18000
10949997;-0.19000
10952775;-0.20000
10955552;-0.21000
10958330;-0.20000
10961108;-0.20000
10963886;-0.20500
10966664;-0.21000
10969441;-0.22000
10972219;-0.21000
10974997;-0.21000
10977775;-0.20500
10980552;-0.19500
10983330;-0.20500
10986108;-0.21500
10988886;-0.21500
10991664;-0.21500
10994441;-0.21000
10997219;-0.20500
10999997;-0.21500
11002775;-0.21500
11005552;-0.22000
11008330;-0.22000
11011108;-0.21000
11013886;-0.21000
11016664;-0.22500
11019441;-0.23000
11022219;-0.23000
11024997;-0.23000
11027775;-0.23000
11030552;-0.21500
11033330;-0.23500
11036108;-0.24500
11038886;-0.24500
11041664;-0.24500
11044441;-0.23000
11047219;-0.22500
11049997;-0.23500
11052775;-0.23000
11055552;-0.24500
11058330;-0.23500
11061108;-0.22500
11063886;-0.22500
11066664;-0.22500
11069441;-0.23500
11072219;-0.25000
11074997;-0.22500
11077775;-0.22500
11080552;-0.22500
11083330;-0.23000
11086108;-0.23000
11088886;-0.24500
11091664;-0.24000
11094441;-0.23000
11097219;-0.21500
11099997;-0.22500
11102775;-0.23500
11105552;-0.23000
11108330;-0.23500
11111108;-0.22000
11113886;-0.21000
11116664;-0.21500
11119441;-0.22000
11122219;-0.23000
11124997;-0.21500
11127775;-0.21000
11130552;-0.20500
11133330;-0.21500
11136108;-0.21000
11138886;-0.22000
11141664;-0.23500
11144441;-0.20500
11147219;-0.21500
11149997;-0.20500
11152775;-0.20500
11155552;-0.21000
11158330;-0.19500
11161108;-0.17000
11163886;-0.15500
11166664;-0.16500
11169441;-0.16500
11172219;-0.17000
11174997;-0.15500
11177775;-0.12500
11180552;-0.13000
11183330;-0.13000
11186108;-0.12000
11188886;-0.13000
11191664;-0.12000
11194441;-0.10000
11197219;-0.10000
11199997;-0.11000
11202775;-0.12000
11205552;-0.14000
11208330;-0.13500
11211108;-0.13000
11213886;-0.11500
11216664;-0.12000
11219441;-0.14500
11222219;-0.14500
11224997;-0.14000
11227775;-0.09500
11230552;-0.08000
11233330;-0.10000
11236108;-0.14500
11238886;-0.17000
11241664;-0.17500
11244441;-0.18000
11247219;-0.20500
11249997;-0.21500
11252775;-0.22000
11255552;-0.23500
11258330;-0.23500
11261108;-0.23000
11263886;-0.22500
11266664;-0.23000
11269441;-0.24500
11272219;-0.26000
11274997;-0.24000
11277775;-0.24000
11280552;-0.23500
11283330;-0.24500
11286108;-0.23500
11288886;-0.26000
11291664;-0.24500
11294441;-0.25000
11297219;-0.25000
11299997;-0.23500
11302775;-0.24500
11305552;-0.25000
11308330;-0.24500
11311108;-0.24000
11313886;-0.22000
11316663;-0.23000
11319441;-0.23000
11322219;-0.23500
11324997;-0.25000
11327775;-0.25500
11330552;-0.27500
11333330;-0.32500
11336108;-0.35000
11338886;-0.38500
11341663;-0.38000
11344441;-0.41000
11347219;-0.44500
11349997;-0.45500
11352775;-0.41000
11355552;-0.29500
11358330;-0.13000
11361108;0.03500
11363886;0.25500
11366663;0.53000
11369441;0.76000
11372219;0.91000
11374997;0.97000
11377775;0.85500
11380552;0.56000
11383330;0.16500
11386108;-0.16000
11388886;-0.34500
11391663;-0.37500
11394441;-0.33000
11397219;-0.28000
11399997;-0.27000
11402775;-0.27500
11405552;-0.28500
11408330;-0.27500
11411108;-0.27000
11413886;-0.26000
11416663;-0.27000
11419441;-0.28000
11422219;-0.29500
11424997;-0.28000
11427775;-0.28000
11430552;-0.27500
11433330;-0.29000
11436108;-0.29500
11438886;-0.29500
11441663;-0.29000
11444441;-0.28000
11447219;-0.27500
11449997;-0.28500
11452775;-0.28500
11455552;-0.29000
11458330;-0.28000
11461108;-0.28000
11463886;-0.27000
11466663;-0.28000
11469441;-0.29500
11472219;-0.30000
11474997;-0.29000
11477775;-0.27000
11480552;-0.27500
11483330;-0.27000
11486108;-0.28500
11488886;-0.29500
11491663;-0.27500
11494441;-0.27000
11497219;-0.26000
11499997;-0.26500
11502775;-0.27500
11505552;-0.28000
11508330;-0.28000
11511108;-0.27500
11513886;-0.25500
11516663;-0.27000
11519441;-0.27000
11522219;-0.28000
11524997;-0.28000
11527775;-0.27000
11530552;-0.27000
11533330;-0.27000
11536108;-0.28500
11538886;-0.28500
11541663;-0.28500
11544441;-0.26500
11547219;-0.27500
11549997;-0.28000
11552775;-0.29000
11555552;-0.29500
11558330;-0.28000
11561108;-0.28500
11563886;-0.27500
11566663;-0.27000
11569441;-0.27000
11572219;-0.28000
11574997;-0.27500
11577775;-0.27500
11580552;-0.26500
11583330;-0.27000
11586108;-0.28000
11588886;-0.29500
11591663;-0.28500
11594441;-0.27500
11597219;-0.27000
11599997;-0.28500
11602775;-0.28500
11605552;-0.29500
11608330;-0.29000
11611108;-0.28500
11613886;-0.28000
11616663;-0.28500
11619441;-0.29000
11622219;-0.31000
11624997;-0.30500
11627775;-0.30000
11630552;-0.29500
11633330;-0.30500
11636108;-0.31000
11638886;-0.31500
11641663;-0.31000
11644441;-0.30500
11647219;-0.28500
11649997;-0.29000
11652775;-0.29500
11655552;-0.29500
11658330;-0.29000
11661108;-0.27500
11663886;-0.26000
11666663;-0.25500
11669441;-0.24500
11672219;-0.26000
11674997;-0.24500
11677775;-0.21500
11680552;-0.22000
11683330;-0.21500
11686108;-0.22000
11688886;-0.21500
11691663;-0.20500
11694441;-0.18000
11697219;-0.20000
11699997;-0.19000
11702775;-0.20000
11705552;-0.19500
11708330;-0.18500
11711108;-0.17500
11713886;-0.18000
11716663;-0.19000
11719441;-0.17500
11722219;-0.19500
11724997;-0.19000
11727774;-0.19000
11730552;-0.18500
11733330;-0.18500
11736108;-0.19500
11738886;-0.19500
11741663;-0.19000
11744441;-0.18500
11747219;-0.17000
11749997;-0.17500
11752774;-0.19500
11755552;-0.21000
11758330;-0.20000
11761108;-0.19000
11763886;-0.19500
11766663;-0.19500
11769441;-0.20000
11772219;-0.21000
11774997;-0.20000
11777774;-0.20000
11780552;-0.20000
11783330;-0.20500
11786108;-0.21500
11788886;-0.22000
11791663;-0.20500
11794441;-0.19500
11797219;-0.19000
11799997;-0.21000
11802774;-0.23000
11805552;-0.22500
11808330;-0.23000
11811108;-0.21500
11813886;-0.22000
11816663;-0.22000
11819441;-0.21500
11822219;-0.22500
11824997;-0.20500
11827774;-0.21000
11830552;-0.20500
11833330;-0.21000
11836108;-0.21500
11838886;-0.22500
11841663;-0.21500
11844441;-0.22000
11847219;-0.21500
11849997;-0.22000
11852774;-0.23000
11855552;-0.23500
11858330;-0.23000
11861108;-0.22000
11863886;-0.21500
11866663;-0.22500
11869441;-0.23500
11872219;-0.24000
11874997;-0.22000
11877774;-0.23000
11880552;-0.23000
11883330;-0.22000
11886108;-0.24000
11888886;-0.25000
11891663;-0.24000
11894441;-0.23000
11897219;-0.23000
11899997;-0.24000
11902774;-0.23000
11905552;-0.23500
11908330;-0.24000
11911108;-0.22000
11913886;-0.21000
11916663;-0.21000
11919441;-0.22500
11922219;-0.22500
11924997;-0.23500
11927774;-0.23000
11930552;-0.23500
11933330;-0.24000
11936108;-0.24500
11938886;-0.25000
11941663;-0.24000
11944441;-0.22000
11947219;-0.21500
11949997;-0.22000
11952774;-0.22000
11955552;-0.23000
11958330;-0.21500
11961108;-0.20000
11963886;-0.19500
11966663;-0.18500
11969441;-0.18000
11972219;-0.18500
11974997;-0.18500
11977774;-0.16000
11980552;-0.15500
11983330;-0.15500
11986108;-0.14500
11988886;-0.15500
11991663;-0.13500
11994441;-0.12500
11997219;-0.12000
11999997;-0.12500
12002774;-0.14500
12005552;-0.14500
12008330;-0.14500
12011108;-0.13500
12013886;-0.13500
12016663;-0.15000
12019441;-0.15500
12022219;-0.15000
12024997;-0.14500
12027774;-0.15500
12030552;-0.17000
12033330;-0.17500
12036108;-0.16500
12038886;-0.16000
12041663;-0.14000
12044441;-0.12000
12047219;-0.10500
12049997;-0.11000
12052774;-0.14000
12055552;-0.17500
12058330;-0.18000
12061108;-0.18000
12063886;-0.18000
12066663;-0.20000
12069441;-0.22500
12072219;-0.24500
12074997;-0.25500
12077774;-0.24500
12080552;-0.25000
12083330;-0.26500
12086108;-0.28000
12088886;-0.27500
12091663;-0.26000
12094441;-0.24500
12097219;-0.24500
12099997;-0.25500
12102774;-0.27500
12105552;-0.28500
12108330;-0.26500
12111108;-0.26500
12113885;-0.25500
12116663;-0.25500
12119441;-0.27500
12122219;-0.28500
12124997;-0.28500
12127774;-0.28000
12130552;-0.26500
12133330;-0.29000
12136108;-0.29500
12138885;-0.30000
12141663;-0.28500
12144441;-0.29000
12147219;-0.30500
12149997;-0.34000
12152774;-0.37000
12155552;-0.39000
12158330;-0.40500
12161108;-0.46500
12163885;-0.47500
12166663;-0.46000
12169441;-0.37500
12172219;-0.27000
12174997;-0.13500
12177774;0.06000
12180552;0.30000
12183330;0.56500
12186108;0.76000
12188885;0.89000
12191663;0.88500
12194441;0.75000
12197219;0.44000
12199997;0.09000
12202774;-0.20500
12205552;-0.36000
12208330;-0.42000
12211108;-0.40500
12213885;-0.36000
12216663;-0.33000
12219441;-0.33000
12222219;-0.34000
12224997;-0.33000
12227774;-0.31500
12230552;-0.29000
12233330;-0.30500
12236108;-0.30500
12238885;-0.32000
12241663;-0.30000
12244441;-0.29000
12247219;-0.30500
12249997;-0.31000
12252774;-0.30500
12255552;-0.31500
12258330;-0.32500
12261108;-0.31500
12263885;-0.31000
12266663;-0.31000
12269441;-0.31500
12272219;-0.31500
12274997;-0.31500
12277774;-0.31500
12280552;-0.30500
12283330;-0.31500
12286108;-0.31500
12288885;-0.32000
12291663;-0.31500
12294441;-0.31500
12297219;-0.32000
12299997;-0.32500
12302774;-0.33000
12305552;-0.33500
12308330;-0.33000
12311108;-0.32500
12313885;-0.31000
12316663;-0.31000
12319441;-0.31000
12322219;-0.32000
12324997;-0.30500
12327774;-0.31000
12330552;-0.31500
12333330;-0.32000
12336108;-0.32500
12338885;-0.34000
12341663;-0.33000
12344441;-0.32000
12347219;-0.32000
12349997;-0.31500
12352774;-0.31500
12355552;-0.32000
12358330;-0.30500
12361108;-0.32000
12363885;-0.32000
12366663;-0.33000
12369441;-0.33000
12372219;-0.33500
12374997;-0.32000
12377774;-0.30000
12380552;-0.30000
12383330;-0.31500
12386108;-0.31500
12388885;-0.31000
12391663;-0.30500
12394441;-0.29500
12397219;-0.30000
12399997;-0.30000
12402774;-0.31000
12405552;-0.32000
12408330;-0.31500
12411108;-0.32000
12413885;-0.32500
12416663;-0.32000
12419441;-0.33000
12422219;-0.33500
12424997;-0.32000
12427774;-0.31500
12430552;-0.31500
12433330;-0.33000
12436108;-0.33500
12438885;-0.35000
12441663;-0.34500
12444441;-0.34000
12447219;-0.34000
12449997;-0.34000
12452774;-0.34000
12455552;-0.36000
12458330;-0.36500
12461108;-0.35000
12463885;-0.35000
12466663;-0.36000
12469441;-0.37500
12472219;-0.36500
12474997;-0.37000
12477774;-0.36500
12480552;-0.35000
12483330;-0.35000
12486108;-0.34000
12488885;-0.34000
12491663;-0.33500
12494441;-0.33000
12497219;-0.30500
12499996;-0.30000
12502774;-0.29000
12505552;-0.27500
12508330;-0.27500
12511108;-0.26000
12513885;-0.26500
12516663;-0.25500
12519441;-0.25500
12522219;-0.24500
12524996;-0.22500
12527774;-0.21000
12530552;-0.21000
12533330;-0.22000
12536108;-0.22500
12538885;-0.23000
12541663;-0.21500
12544441;-0.21500
12547219;-0.20500
12549996;-0.22000
12552774;-0.21000
12555552;-0.22500
12558330;-0.22000
12561108;-0.21000
12563885;-0.21000
12566663;-0.21500
12569441;-0.22000
12572219;-0.23500
12574996;-0.22000
12577774;-0.20500
12580552;-0.20500
12583330;-0.21500
12586108;-0.22500
12588885;-0.23000
12591663;-0.22500
12594441;-0.21500
12597219;-0.22000
12599996;-0.22000
12602774;-0.21500
12605552;-0.23000
12608330;-0.24000
12611108;-0.22500
12613885;-0.22500
12616663;-0.23000
12619441;-0.22500
12622219;-0.24000
12624996;-0.23000
12627774;-0.23500
12630552;-0.24500
12633330;-0.25500
12636108;-0.25500
12638885;-0.26000
12641663;-0.26000
12644441;-0.25000
12647219;-0.24000
12649996;-0.24500
12652774;-0.25000
12655552;-0.25500
12658330;-0.24500
12661108;-0.22500
12663885;-0.24500
12666663;-0.26500
12669441;-0.27000
12672219;-0.28500
12674996;-0.27500
12677774;-0.26000
12680552;-0.25500
12683330;-0.26000
12686108;-0.25000
12688885;-0.26500
12691663;-0.26500
12694441;-0.26000
12697219;-0.24500
12699996;-0.25000
12702774;-0.25500
12705552;-0.28000
12708330;-0.26500
12711108;-0.25500
12713885;-0.25000
12716663;-0.26000
12719441;-0.26500
12722219;-0.26500
12724996;-0.25500
12727774;-0.25000
12730552;-0.25500
12733330;-0.26500
12736108;-0.27500
12738885;-0.28000
12741663;-0.25500
12744441;-0.25000
12747219;-0.24500
12749996;-0.25000
12752774;-0.25500
12755552;-0.27500
12758330;-0.26000
12761108;-0.24500
12763885;-0.23500
12766663;-0.25000
12769441;-0.26500
12772219;-0.26500
12774996;-0.25500
12777774;-0.26000
12780552;-0.25500
12783330;-0.25500
12786108;-0.24000
12788885;-0.24500
12791663;-0.23000
12794441;-0.22000
12797219;-0.20000
12799996;-0.20500
12802774;-0.21500
12805552;-0.20000
12808330;-0.20000
12811108;-0.17500
12813885;-0.16000
12816663;-0.16000
12819441;-0.16500
12822219;-0.17000
12824996;-0.16000
12827774;-0.14000
12830552;-0.14500
12833330;-0.15000
12836108;-0.16500
12838885;-0.17000
12841663;-0.17500
12844441;-0.16500
12847219;-0.17000
12849996;-0.17500
12852774;-0.18000
12855552;-0.20500
12858330;-0.19000
12861108;-0.17000
12863885;-0.16000
12866663;-0.14500
12869441;-0.14500
12872219;-0.18500
12874996;-0.20500
12877774;-0.21000
12880552;-0.22000
12883330;-0.24000
12886108;-0.26500
12888885;-0.28000
12891663;-0.27500
12894441;-0.26500
12897219;-0.28000
12899996;-0.28000
12902774;-0.28000
12905552;-0.28000
12908330;-0.27500
12911107;-0.27000
12913885;-0.27500
12916663;-0.28000
12919441;-0.29500
12922219;-0.29000
12924996;-0.28500
12927774;-0.27500
12930552;-0.27500
12933330;-0.28000
12936107;-0.27500
12938885;-0.29500
12941663;-0.28500
12944441;-0.28000
12947219;-0.28500
12949996;-0.27500
12952774;-0.30000
12955552;-0.30500
12958330;-0.32500
12961107;-0.35500
12963885;-0.37000
12966663;-0.40000
12969441;-0.44000
12972219;-0.49000
12974996;-0.50000
12977774;-0.44500
12980552;-0.34000
12983330;-0.21000
12986107;-0.09000
12988885;0.09500
12991663;0.35000
12994441;0.62000
12997219;0.84000
12999996;0.98500
13002774;1.00000
13005552;0.86000
13008330;0.55000
13011107;0.19500
13013885;-0.09500
13016663;-0.29000
13019441;-0.38500
13022219;-0.43000
13024996;-0.44500
13027774;-0.43000
13030552;-0.41500
13033330;-0.39500
13036107;-0.35000
13038885;-0.34000
13041663;-0.33500
13044441;-0.32500
13047219;-0.32000
13049996;-0.31500
13052774;-0.32500
13055552;-0.32500
13058330;-0.32000
13061107;-0.31500
13063885;-0.31000
13066663;-0.31500
13069441;-0.32500
13072219;-0.33500
13074996;-0.31500
13077774;-0.30500
13080552;-0.30500
13083330;-0.31500
13086107;-0.32000
13088885;-0.32000
13091663;-0.32000
13094441;-0.31000
13097219;-0.32000
13099996;-0.30000
13102774;-0.31000
13105552;-0.32000
13108330;-0.32000
13111107;-0.30500
13113885;-0.30500
13116663;-0.31500
13119441;-0.31000
13122219;-0.31500
13124996;-0.31000
13127774;-0.29500
13130552;-0.30000
13133330;-0.29500
13136107;-0.30500
13138885;-0.32000
13141663;-0.30500
13144441;-0.30000
13147219;-0.30000
13149996;-0.30000
13152774;-0.31000
13155552;-0.32000
13158330;-0.30000
13161107;-0.30500
13163885;-0.29000
13166663;-0.29500
13169441;-0.30500
13172219;-0.33000
13174996;-0.31500
13177774;-0.31000
13180552;-0.29500
13183330;-0.31000
13186107;-0.31500
13188885;-0.32000
13191663;-0.30000
13194441;-0.31000
13197219;-0.30000
13199996;-0.29500
13202774;-0.31500
13205552;-0.32000
13208330;-0.31000
13211107;-0.30500
13213885;-0.30500
13216663;-0.30000
13219441;-0.30000
13222219;-0.30500
13224996;-0.30000
13227774;-0.30500
13230552;-0.30000
13233330;-0.30000
13236107;-0.30000
13238885;-0.32000
13241663;-0.32500
13244441;-0.31500
13247219;-0.30500
13249996;-0.31000
13252774;-0.33500
13255552;-0.35000
13258330;-0.34500
13261107;-0.31500
13263885;-0.33500
13266663;-0.33000
13269441;-0.34500
13272219;-0.35500
13274996;-0.34500
13277774;-0.34500
13280552;-0.35000
13283330;-0.34000
13286107;-0.35500
13288885;-0.36500
13291663;-0.35000
13294441;-0.35000
13297218;-0.34000
13299996;-0.34500
13302774;-0.34000
13305552;-0.35000
13308330;-0.33500
13311107;-0.31500
13313885;-0.31000
13316663;-0.29000
13319441;-0.29500
13322218;-0.29000
13324996;-0.28000
13327774;-0.25500
13330552;-0.24000
13333330;-0.23500
13336107;-0.24500
13338885;-0.24000
13341663;-0.22500
13344441;-0.22000
13347218;-0.21000
13349996;-0.21000
13352774;-0.20500
13355552;-0.21000
13358330;-0.21000
13361107;-0.19500
13363885;-0.18500
13366663;-0.19000
13369441;-0.19500
13372218;-0.22000
13374996;-0.20000
13377774;-0.20000
13380552;-0.18500
13383330;-0.19000
13386107;-0.20500
13388885;-0.20500
13391663;-0.20500
13394441;-0.20500
13397218;-0.19500
13399996;-0.19500
13402774;-0.20000
13405552;-0.20500
13408330;-0.20000
13411107;-0.20000
13413885;-0.19000
13416663;-0.20500
13419441;-0.20500
13422218;-0.21000
13424996;-0.20000
13427774;-0.20000
13430552;-0.19500
13433330;-0.20500
13436107;-0.22000
13438885;-0.22000
13441663;-0.22000
13444441;-0.21000
13447218;-0.21000
13449996;-0.21000
13452774;-0.21500
13455552;-0.23000
13458330;-0.22000
13461107;-0.21500
13463885;-0.22500
13466663;-0.22000
13469441;-0.22500
13472218;-0.23500
13474996;-0.22000
13477774;-0.22000
13480552;-0.21000
13483330;-0.23000
13486107;-0.24500
13488885;-0.24500
13491663;-0.23500
13494441;-0.22500
13497218;-0.23500
13499996;-0.23000
13502774;-0.24500
13505552;-0.25500
13508330;-0.24500
13511107;-0.23500
13513885;-0.23500
13516663;-0.23500
13519441;-0.23500
13522218;-0.24500
13524996;-0.24000
13527774;-0.23500
13530552;-0.22500
13533330;-0.24000
13536107;-0.24000
13538885;-0.24500
13541663;-0.23500
13544441;-0.23500
13547218;-0.23500
13549996;-0.23500
13552774;-0.24000
13555552;-0.24500
13558330;-0.24000
13561107;-0.23500
13563885;-0.22500
13566663;-0.24000
13569441;-0.25000
13572218;-0.25500
13574996;-0.25000
13577774;-0.23500
13580552;-0.22000
13583330;-0.22500
13586107;-0.24000
13588885;-0.23000
13591663;-0.22500
13594441;-0.22500
13597218;-0.22000
13599996;-0.23500
13602774;-0.23500
13605552;-0.24500
13608330;-0.23500
13611107;-0.22500
13613885;-0.22500
13616663;-0.22000
13619441;-0.23000
13622218;-0.23500
13624996;-0.22000
13627774;-0.21000
13630552;-0.19000
13633330;-0.19000
13636107;-0.18000
13638885;-0.18500
13641663;-0.16000
13644441;-0.15000
13647218;-0.15000
13649996;-0.14500
13652774;-0.15000
13655552;-0.15500
13658330;-0.13500
13661107;-0.12000
13663885;-0.11500
13666663;-0.11500
13669441;-0.11500
13672218;-0.13500
13674996;-0.13000
13677774;-0.13000
13680552;-0.12500
13683330;-0.14500
13686107;-0.14000
13688885;-0.14500
13691663;-0.14000
13694441;-0.14000
13697218;-0.14000
13699996;-0.13000
13702774;-0.11500
13705552;-0.11000
13708329;-0.11500
13711107;-0.13000
13713885;-0.14500
13716663;-0.15500
13719441;-0.17000
13722218;-0.19000
13724996;-0.19000
13727774;-0.19000
13730552;-0.18500
13733329;-0.20500
13736107;-0.22000
13738885;-0.23500
13741663;-0.23500
13744441;-0.22500
13747218;-0.24000
13749996;-0.23500
13752774;-0.23500
13755552;-0.23500
13758329;-0.23500
13761107;-0.23000
13763885;-0.23000
13766663;-0.24000
13769441;-0.25000
13772218;-0.24500
13774996;-0.24500
13777774;-0.23500
13780552;-0.24500
13783329;-0.24000
13786107;-0.24000
13788885;-0.25500
13791663;-0.25500
13794441;-0.25000
13797218;-0.24000
13799996;-0.25000
13802774;-0.25500
13805552;-0.28000
13808329;-0.29500
13811107;-0.32000
13813885;-0.36000
13816663;-0.37500
13819441;-0.40500
13822218;-0.45500
13824996;-0.47500
13827774;-0.41500
13830552;-0.30000
13833329;-0.16000
13836107;0.00500
13838885;0.20500
13841663;0.49000
13844441;0.77000
13847218;0.98500
13849996;1.04500
13852774;0.95500
13855552;0.64500
13858329;0.22000
13861107;-0.14500
13863885;-0.34500
13866663;-0.38500
13869441;-0.34500
13872218;-0.30000
13874996;-0.28000
13877774;-0.26000
13880552;-0.27500
13883329;-0.27000
13886107;-0.27000
13888885;-0.28000
13891663;-0.27500
13894441;-0.27500
13897218;-0.27000
13899996;-0.29000
13902774;-0.29000
13905552;-0.29500
13908329;-0.29500
13911107;-0.29500
13913885;-0.28000
13916663;-0.28000
13919441;-0.29000
13922218;-0.29000
13924996;-0.29500
13927774;-0.28500
13930552;-0.29500
13933329;-0.28000
13936107;-0.29000
13938885;-0.29000
13941663;-0.28000
13944441;-0.27000
13947218;-0.26500
13949996;-0.27500
13952774;-0.27500
13955552;-0.28500
13958329;-0.28500
13961107;-0.27000
13963885;-0.27500
13966663;-0.27500
13969441;-0.28500
13972218;-0.28500
13974996;-0.27000
13977774;-0.28000
13980552;-0.28000
13983329;-0.28500
13986107;-0.28000
13988885;-0.29500
13991663;-0.28500
13994441;-0.27500
13997218;-0.27500
13999996;-0.28000
14002774;-0.28500
14005552;-0.29000
14008329;-0.29000
14011107;-0.28000
14013885;-0.27500
14016663;-0.27500
14019441;-0.27500
14022218;-0.29000
14024996;-0.27500
14027774;-0.26500
14030552;-0.27500
14033329;-0.26500
14036107;-0.27500
14038885;-0.29000
14041663;-0.28000
14044441;-0.26500
14047218;-0.27000
14049996;-0.27000
14052774;-0.28000
14055552;-0.28000
14058329;-0.27500
14061107;-0.27000
14063885;-0.26500
14066663;-0.27000
14069441;-0.28500
14072218;-0.28500
14074996;-0.27500
14077774;-0.28000
14080552;-0.27500
14083329;-0.28000
14086107;-0.27500
14088885;-0.29000
14091663;-0.28500
14094440;-0.27000
14097218;-0.28000
14099996;-0.28000
14102774;-0.28000
14105552;-0.29000
14108329;-0.29000
14111107;-0.28000
14113885;-0.28000
14116663;-0.28500
14119440;-0.29000
14122218;-0.29000
14124996;-0.29000
14127774;-0.29000
14130552;-0.29000
14133329;-0.29500
14136107;-0.29500
14138885;-0.29000
14141663;-0.29500
14144440;-0.27500
14147218;-0.26000
14149996;-0.26000
14152774;-0.27500
14155552;-0.26500
14158329;-0.25500
14161107;-0.24000
14163885;-0.23500
14166663;-0.22500
14169440;-0.21500
14172218;-0.22000
14174996;-0.21000
14177774;-0.19500
14180552;-0.19500
14183329;-0.19000
14186107;-0.17500
14188885;-0.19000
14191663;-0.18500
14194440;-0.17000
14197218;-0.15500
14199996;-0.17000
14202774;-0.17500
14205552;-0.19500
14208329;-0.17000
14211107;-0.16000
14213885;-0.17000
14216663;-0.16500
14219440;-0.18500
14222218;-0.19500
14224996;-0.18000
14227774;-0.17000
14230552;-0.16500
14233329;-0.16500
14236107;-0.18000
14238885;-0.19000
14241663;-0.19000
14244440;-0.18000
14247218;-0.17000
14249996;-0.17500
14252774;-0.18500
14255552;-0.19000
14258329;-0.19000
14261107;-0.18500
14263885;-0.18000
14266663;-0.19500
14269440;-0.19000
14272218;-0.20000
14274996;-0.19000
14277774;-0.19000
14280552;-0.19000
14283329;-0.19500
14286107;-0.20000
14288885;-0.20500
14291663;-0.20000
14294440;-0.20000
14297218;-0.20000
14299996;-0.19500
14302774;-0.20000
14305552;-0.21500
14308329;-0.21000
14311107;-0.20000
14313885;-0.19000
14316663;-0.20500
14319440;-0.21000
14322218;-0.21000
14324996;-0.21500
14327774;-0.20500
14330552;-0.20000
14333329;-0.20500
14336107;-0.22000
14338885;-0.23000
14341663;-0.22500
14344440;-0.21000
14347218;-0.21500
14349996;-0.20500
14352774;-0.22000
14355552;-0.22500
14358329;-0.23000
14361107;-0.23000
14363885;-0.21500
14366663;-0.22000
14369440;-0.22000
14372218;-0.23000
14374996;-0.22500
14377774;-0.22000
14380552;-0.22500
14383329;-0.22000
14386107;-0.23000
14388885;-0.25000
14391663;-0.23500
14394440;-0.22500
14397218;-0.21000
14399996;-0.22500
14402774;-0.23000
14405552;-0.23500
14408329;-0.22500
14411107;-0.22500
14413885;-0.22000
14416663;-0.22500
14419440;-0.22000
14422218;-0.23500
14424996;-0.23000
14427774;-0.21500
14430552;-0.22000
14433329;-0.22500
14436107;-0.22000
14438885;-0.23000
14441663;-0.23000
14444440;-0.21500
14447218;-0.22000
14449996;-0.22000
14452774;-0.21500
14455552;-0.22000
14458329;-0.20500
14461107;-0.18500
14463885;-0.17000
14466663;-0.15500
14469440;-0.16000
14472218;-0.16000
14474996;-0.16000
14477774;-0.15000
14480552;-0.14000
14483329;-0.13000
14486107;-0.13500
14488885;-0.12500
14491663;-0.12000
14494440;-0.11500
14497218;-0.10500
14499996;-0.11500
