time_ms;ecg_value
0;-0.20000
2778;-0.20500
5556;-0.17000
8333;-0.15000
11111;-0.13500
13889;-0.17000
16667;-0.21500
19444;-0.22500
22222;-0.23500
25000;-0.23500
27778;-0.25000
30556;-0.26500
33333;-0.28500
36111;-0.28000
38889;-0.27000
41667;-0.26500
44444;-0.27000
47222;-0.28000
50000;-0.30000
52778;-0.28500
55556;-0.28000
58333;-0.28000
61111;-0.29000
63889;-0.30500
66667;-0.29000
69444;-0.28500
72222;-0.28500
75000;-0.28000
77778;-0.28000
80556;-0.28000
83333;-0.30000
86111;-0.30000
88889;-0.29000
91667;-0.28500
94444;-0.27500
97222;-0.29000
100000;-0.30500
102778;-0.29500
105556;-0.30500
108333;-0.33000
111111;-0.37500
113889;-0.42000
116667;-0.45000
119444;-0.45500
122222;-0.48000
125000;-0.45500
127778;-0.35500
130556;-0.20000
133333;-0.01000
136111;0.19500
138889;0.46000
141667;0.76000
144444;1.01500
147222;1.16500
150000;1.20000
152778;1.08500
155556;0.77000
158333;0.30000
161111;-0.14000
163889;-0.38500
166667;-0.42500
169444;-0.36500
172222;-0.30500
175000;-0.28500
177778;-0.29500
180556;-0.31000
183333;-0.32000
186111;-0.31000
188889;-0.30500
191667;-0.31000
194444;-0.31500
197222;-0.32000
200000;-0.33000
202778;-0.33000
205555;-0.31000
208333;-0.31500
211111;-0.32000
213889;-0.32500
216667;-0.32500
219444;-0.33500
222222;-0.32500
225000;-0.32500
227778;-0.32000
230555;-0.34000
233333;-0.34000
236111;-0.34000
238889;-0.33000
241667;-0.32000
244444;-0.32000
247222;-0.32000
250000;-0.34000
252778;-0.33500
255555;-0.32000
258333;-0.32000
261111;-0.31000
263889;-0.33500
266667;-0.34000
269444;-0.33000
272222;-0.32000
275000;-0.32000
277778;-0.33000
280555;-0.34000
283333;-0.34500
286111;-0.34000
288889;-0.33500
291667;-0.33000
294444;-0.33000
297222;-0.34000
300000;-0.35000
302778;-0.34500
305555;-0.34500
308333;-0.32000
311111;-0.32500
313889;-0.32000
316667;-0.33000
319444;-0.32000
322222;-0.32000
325000;-0.30500
327778;-0.31500
330555;-0.32000
333333;-0.33000
336111;-0.32500
338889;-0.31500
341667;-0.30500
344444;-0.30500
347222;-0.31000
350000;-0.32500
352778;-0.33000
355555;-0.33000
358333;-0.32500
361111;-0.32500
363889;-0.34000
366667;-0.35000
369444;-0.34000
372222;-0.33500
375000;-0.33500
377778;-0.35000
380555;-0.36000
383333;-0.37000
386111;-0.36000
388889;-0.35000
391667;-0.34000
394444;-0.35000
397222;-0.35500
400000;-0.35500
402778;-0.35500
405555;-0.35500
408333;-0.36000
411111;-0.35000
413889;-0.36000
416667;-0.36500
419444;-0.36500
422222;-0.34500
425000;-0.33500
427778;-0.34500
430555;-0.34500
433333;-0.34000
436111;-0.34500
438889;-0.32000
441667;-0.29000
444444;-0.28500
447222;-0.30000
450000;-0.27500
452778;-0.26000
455555;-0.24000
458333;-0.23000
461111;-0.22500
463889;-0.23500
466667;-0.23500
469444;-0.21000
472222;-0.20000
475000;-0.20500
477778;-0.20000
480555;-0.20000
483333;-0.22000
486111;-0.21000
488889;-0.19500
491667;-0.21000
494444;-0.21000
497222;-0.21500
500000;-0.22000
502778;-0.22000
505555;-0.21500
508333;-0.21500
511111;-0.22000
513889;-0.23000
516667;-0.22500
519444;-0.22000
522222;-0.22000
525000;-0.21500
527778;-0.21000
530555;-0.22500
533333;-0.22500
536111;-0.22000
538889;-0.21500
541667;-0.20500
544444;-0.21000
547222;-0.21500
550000;-0.22500
552778;-0.22000
555555;-0.22500
558333;-0.22000
561111;-0.22500
563889;-0.23500
566667;-0.24000
569444;-0.24000
572222;-0.24500
575000;-0.24500
577778;-0.25000
580555;-0.25000
583333;-0.25500
586111;-0.26500
588889;-0.25000
591667;-0.25000
594444;-0.24500
597222;-0.26000
600000;-0.26500
602778;-0.26000
605555;-0.26000
608333;-0.24500
611111;-0.24500
613889;-0.25000
616666;-0.26000
619444;-0.25500
622222;-0.24000
625000;-0.23000
627778;-0.24500
630555;-0.25000
633333;-0.26000
636111;-0.25500
638889;-0.24000
641666;-0.24000
644444;-0.24500
647222;-0.26000
650000;-0.27000
652778;-0.25000
655555;-0.24500
658333;-0.23500
661111;-0.23500
663889;-0.23500
666666;-0.25000
669444;-0.23500
672222;-0.23500
675000;-0.23500
677778;-0.25000
680555;-0.25000
683333;-0.27000
686111;-0.25500
688889;-0.24500
691666;-0.24000
694444;-0.24000
697222;-0.24500
700000;-0.25000
702778;-0.23500
705555;-0.22500
708333;-0.23500
711111;-0.23000
713889;-0.24500
716666;-0.24500
719444;-0.24000
722222;-0.23000
725000;-0.22500
727778;-0.22000
730555;-0.21500
733333;-0.20500
736111;-0.18000
738889;-0.15500
741666;-0.14500
744444;-0.14500
747222;-0.14500
750000;-0.16500
752778;-0.14000
755555;-0.12500
758333;-0.11500
761111;-0.10500
763889;-0.12500
766666;-0.13000
769444;-0.13000
772222;-0.12500
775000;-0.13500
777778;-0.15500
780555;-0.15500
783333;-0.16000
786111;-0.16000
788889;-0.15500
791666;-0.15000
794444;-0.13000
797222;-0.12500
800000;-0.13000
802778;-0.15500
805555;-0.17000
808333;-0.18000
811111;-0.19000
813889;-0.21000
816666;-0.24500
819444;-0.23500
822222;-0.23000
825000;-0.24000
827778;-0.25500
830555;-0.26000
833333;-0.26000
836111;-0.26500
838889;-0.25500
841666;-0.25000
844444;-0.25500
847222;-0.27000
850000;-0.27500
852778;-0.27500
855555;-0.27000
858333;-0.25500
861111;-0.26500
863889;-0.26500
866666;-0.27500
869444;-0.27500
872222;-0.27000
875000;-0.25500
877778;-0.26000
880555;-0.26500
883333;-0.29000
886111;-0.30000
888889;-0.31000
891666;-0.36000
894444;-0.39500
897222;-0.41500
900000;-0.46000
902778;-0.49000
905555;-0.46500
908333;-0.38500
911111;-0.23500
913889;-0.05000
916666;0.12500
919444;0.36000
922222;0.66500
925000;0.94000
927778;1.13000
930555;1.22000
933333;1.15500
936111;0.90000
938889;0.47000
941666;0.01500
944444;-0.30000
947222;-0.38500
950000;-0.34500
952778;-0.28000
955555;-0.24500
958333;-0.23500
961111;-0.24500
963889;-0.24500
966666;-0.27000
969444;-0.26500
972222;-0.25500
975000;-0.25500
977778;-0.26500
980555;-0.29000
983333;-0.30000
986111;-0.29500
988889;-0.30500
991666;-0.31000
994444;-0.30500
997222;-0.30500
1000000;-0.32000
1002777;-0.31000
1005555;-0.30000
1008333;-0.30500
1011111;-0.31000
1013889;-0.31000
1016666;-0.32500
1019444;-0.32500
1022222;-0.31000
1025000;-0.30000
1027777;-0.30500
1030555;-0.30500
1033333;-0.32000
1036111;-0.31000
1038889;-0.30000
1041666;-0.29000
1044444;-0.29500
1047222;-0.30000
1050000;-0.30000
1052777;-0.30500
1055555;-0.29500
1058333;-0.28500
1061111;-0.29500
1063889;-0.30500
1066666;-0.31000
1069444;-0.30000
1072222;-0.30500
1075000;-0.30500
1077777;-0.30500
1080555;-0.31000
1083333;-0.32000
1086111;-0.32000
1088889;-0.30500
1091666;-0.30000
1094444;-0.30000
1097222;-0.31000
1100000;-0.31000
1102777;-0.32000
1105555;-0.30000
1108333;-0.29500
1111111;-0.29500
1113889;-0.30000
1116666;-0.30500
1119444;-0.30500
1122222;-0.29500
1125000;-0.28000
1127777;-0.29000
1130555;-0.31000
1133333;-0.30500
1136111;-0.30500
1138889;-0.29000
1141666;-0.29000
1144444;-0.29500
1147222;-0.30500
1150000;-0.32000
1152777;-0.31000
1155555;-0.31000
1158333;-0.31500
1161111;-0.31500
1163889;-0.32000
1166666;-0.33000
1169444;-0.33000
1172222;-0.31500
1175000;-0.31000
1177777;-0.32000
1180555;-0.33000
1183333;-0.33500
1186111;-0.32500
1188889;-0.31000
1191666;-0.31500
1194444;-0.32000
1197222;-0.32000
1200000;-0.33000
1202777;-0.33000
1205555;-0.32000
1208333;-0.31500
1211111;-0.31000
1213889;-0.31000
1216666;-0.31000
1219444;-0.30500
1222222;-0.28000
1225000;-0.27000
1227777;-0.27500
1230555;-0.27000
1233333;-0.26000
1236111;-0.24500
1238889;-0.23000
1241666;-0.22500
1244444;-0.22500
1247222;-0.21500
1250000;-0.22500
1252777;-0.21000
1255555;-0.20500
1258333;-0.19500
1261111;-0.19000
1263889;-0.20000
1266666;-0.19000
1269444;-0.19000
1272222;-0.18500
1275000;-0.16500
1277777;-0.16500
1280555;-0.17500
1283333;-0.19000
1286111;-0.19500
1288889;-0.19000
1291666;-0.19500
1294444;-0.20000
1297222;-0.20000
1300000;-0.20500
1302777;-0.19500
1305555;-0.19000
1308333;-0.19000
1311111;-0.20000
1313889;-0.20500
1316666;-0.21000
1319444;-0.20000
1322222;-0.19500
1325000;-0.19000
1327777;-0.21000
1330555;-0.20500
1333333;-0.21000
1336111;-0.21500
1338889;-0.19500
1341666;-0.20000
1344444;-0.19500
1347222;-0.21000
1350000;-0.21500
1352777;-0.21000
1355555;-0.20000
1358333;-0.19500
1361111;-0.20500
1363889;-0.22000
1366666;-0.23000
1369444;-0.22500
1372222;-0.24000
1375000;-0.23500
1377777;-0.24000
1380555;-0.24000
1383333;-0.24500
1386111;-0.24000
1388888;-0.24000
1391666;-0.23500
1394444;-0.24500
1397222;-0.25000
1400000;-0.24500
1402777;-0.23500
1405555;-0.23500
1408333;-0.21500
1411111;-0.22500
1413888;-0.24000
1416666;-0.24000
1419444;-0.23500
1422222;-0.23000
1425000;-0.22500
1427777;-0.24000
1430555;-0.24000
1433333;-0.25000
1436111;-0.25500
1438888;-0.24000
1441666;-0.24500
1444444;-0.24000
1447222;-0.24500
1450000;-0.24500
1452777;-0.25000
1455555;-0.24500
1458333;-0.23000
1461111;-0.24000
1463888;-0.25000
1466666;-0.25500
1469444;-0.23000
1472222;-0.22500
1475000;-0.21500
1477777;-0.22500
1480555;-0.23500
1483333;-0.23000
1486111;-0.23000
1488888;-0.23000
1491666;-0.22000
1494444;-0.22000
1497222;-0.22500
1500000;-0.24000
1502777;-0.23500
1505555;-0.23000
1508333;-0.23000
1511111;-0.23500
1513888;-0.23500
1516666;-0.24500
1519444;-0.23500
1522222;-0.22000
1525000;-0.20500
1527777;-0.20500
1530555;-0.19000
1533333;-0.19000
1536111;-0.17500
1538888;-0.17000
1541666;-0.16500
1544444;-0.15500
1547222;-0.16500
1550000;-0.15500
1552777;-0.14000
1555555;-0.13000
1558333;-0.11500
1561111;-0.11000
1563888;-0.11000
1566666;-0.12000
1569444;-0.12000
1572222;-0.12000
1575000;-0.12500
1577777;-0.12500
1580555;-0.13500
1583333;-0.14500
1586111;-0.14000
1588888;-0.14500
1591666;-0.14000
1594444;-0.15000
1597222;-0.15500
1600000;-0.17000
1602777;-0.18000
1605555;-0.14500
1608333;-0.11000
1611111;-0.10500
1613888;-0.14500
1616666;-0.18500
1619444;-0.20000
1622222;-0.21500
1625000;-0.22000
1627777;-0.23000
1630555;-0.25000
1633333;-0.26500
1636111;-0.26000
1638888;-0.26500
1641666;-0.25500
1644444;-0.25000
1647222;-0.25500
1650000;-0.27000
1652777;-0.26500
1655555;-0.26000
1658333;-0.26000
1661111;-0.26500
1663888;-0.28000
1666666;-0.27500
1669444;-0.27500
1672222;-0.26500
1675000;-0.26500
1677777;-0.27500
1680555;-0.28500
1683333;-0.30000
1686111;-0.29000
1688888;-0.29000
1691666;-0.28000
1694444;-0.28500
1697222;-0.28500
1700000;-0.30000
1702777;-0.31000
1705555;-0.32000
1708333;-0.36000
1711111;-0.40000
1713888;-0.43000
1716666;-0.48000
1719444;-0.51500
1722222;-0.52000
1725000;-0.43000
1727777;-0.30500
1730555;-0.14500
1733333;0.01000
1736111;0.22000
1738888;0.48000
1741666;0.76500
1744444;0.98000
1747222;1.10000
1750000;1.09500
1752777;0.92000
1755555;0.57000
1758333;0.13500
1761111;-0.22500
1763888;-0.40500
1766666;-0.42500
1769444;-0.37500
1772222;-0.32000
1775000;-0.31000
1777777;-0.29500
1780555;-0.30500
1783333;-0.32500
1786111;-0.31000
1788888;-0.30500
1791666;-0.30000
1794444;-0.30500
1797222;-0.31500
1799999;-0.31500
1802777;-0.31000
1805555;-0.31500
1808333;-0.30500
1811111;-0.30500
1813888;-0.33000
1816666;-0.33500
1819444;-0.32500
1822222;-0.32000
1824999;-0.31000
1827777;-0.31500
1830555;-0.32000
1833333;-0.33000
1836111;-0.33000
1838888;-0.32500
1841666;-0.31000
1844444;-0.32500
1847222;-0.33000
1849999;-0.34500
1852777;-0.33000
1855555;-0.32500
1858333;-0.32000
1861111;-0.32000
1863888;-0.32500
1866666;-0.33000
1869444;-0.34000
1872222;-0.33500
1874999;-0.31000
1877777;-0.32000
1880555;-0.31000
1883333;-0.33500
1886111;-0.32500
1888888;-0.31500
1891666;-0.31500
1894444;-0.33000
1897222;-0.33000
1899999;-0.32500
1902777;-0.33500
1905555;-0.32500
1908333;-0.32500
1911111;-0.32000
1913888;-0.34000
1916666;-0.34500
1919444;-0.33500
1922222;-0.32500
1924999;-0.33000
1927777;-0.32500
1930555;-0.34000
1933333;-0.34500
1936111;-0.35000
1938888;-0.33500
1941666;-0.34500
1944444;-0.33500
1947222;-0.33500
1949999;-0.34500
1952777;-0.33000
1955555;-0.32500
1958333;-0.31000
1961111;-0.31000
1963888;-0.32000
1966666;-0.34000
1969444;-0.33000
1972222;-0.32500
1974999;-0.33000
1977777;-0.32500
1980555;-0.34000
1983333;-0.34500
1986111;-0.34500
1988888;-0.34500
1991666;-0.35000
1994444;-0.35000
1997222;-0.35000
1999999;-0.36500
2002777;-0.37000
2005555;-0.35500
2008333;-0.35500
2011111;-0.35000
2013888;-0.35000
2016666;-0.35500
2019444;-0.35000
2022222;-0.34500
2024999;-0.34500
2027777;-0.34000
2030555;-0.35000
2033333;-0.37500
2036111;-0.37000
2038888;-0.35500
2041666;-0.34000
2044444;-0.34500
2047222;-0.35000
2049999;-0.35000
2052777;-0.34000
2055555;-0.32000
2058333;-0.31000
2061111;-0.31000
2063888;-0.30500
2066666;-0.30500
2069444;-0.28500
2072222;-0.27000
2074999;-0.26500
2077777;-0.27000
2080555;-0.29000
2083333;-0.28000
2086111;-0.27000
2088888;-0.26000
2091666;-0.26500
2094444;-0.25000
2097222;-0.24500
2099999;-0.25500
2102777;-0.26000
2105555;-0.25000
2108333;-0.23500
2111111;-0.22500
2113888;-0.24000
2116666;-0.24000
2119444;-0.24500
2122222;-0.22500
2124999;-0.23000
2127777;-0.23500
2130555;-0.24000
2133333;-0.26000
2136111;-0.25500
2138888;-0.25000
2141666;-0.25500
2144444;-0.25500
2147222;-0.27500
2149999;-0.28000
2152777;-0.26000
2155555;-0.26500
2158333;-0.26000
2161111;-0.26000
2163888;-0.27500
2166666;-0.29000
2169444;-0.27500
2172222;-0.27500
2174999;-0.26500
2177777;-0.26500
2180555;-0.26500
2183333;-0.27000
2186110;-0.27000
2188888;-0.26500
2191666;-0.27500
2194444;-0.28500
2197222;-0.29500
2199999;-0.29500
2202777;-0.29500
2205555;-0.30000
2208333;-0.29000
2211110;-0.29500
2213888;-0.30500
2216666;-0.31500
2219444;-0.30500
2222222;-0.30000
2224999;-0.29500
2227777;-0.29500
2230555;-0.31000
2233333;-0.32500
2236110;-0.32000
2238888;-0.31500
2241666;-0.30500
2244444;-0.30500
2247222;-0.32500
2249999;-0.32000
2252777;-0.33000
2255555;-0.32000
2258333;-0.32500
2261110;-0.33000
2263888;-0.34000
2266666;-0.33000
2269444;-0.31500
2272222;-0.31000
2274999;-0.29500
2277777;-0.28500
2280555;-0.31000
2283333;-0.32500
2286110;-0.33000
2288888;-0.31500
2291666;-0.31000
2294444;-0.31500
2297222;-0.32500
2299999;-0.32500
2302777;-0.32000
2305555;-0.32000
2308333;-0.31500
2311110;-0.31500
2313888;-0.34000
2316666;-0.34000
2319444;-0.34500
2322222;-0.33000
2324999;-0.32500
2327777;-0.32000
2330555;-0.33000
2333333;-0.33500
2336110;-0.33000
2338888;-0.32500
2341666;-0.31500
2344444;-0.32000
2347222;-0.32500
2349999;-0.33000
2352777;-0.31500
2355555;-0.31000
2358333;-0.28500
2361110;-0.27500
2363888;-0.25500
2366666;-0.27000
2369444;-0.24500
2372222;-0.24500
2374999;-0.24500
2377777;-0.25000
2380555;-0.26500
2383333;-0.27000
2386110;-0.26000
2388888;-0.25000
2391666;-0.24000
2394444;-0.23500
2397222;-0.24000
2399999;-0.24500
2402777;-0.23000
2405555;-0.22000
2408333;-0.21000
2411110;-0.21500
2413888;-0.23500
2416666;-0.24500
2419444;-0.24500
2422222;-0.24000
2424999;-0.23000
2427777;-0.23000
2430555;-0.24500
2433333;-0.25500
2436110;-0.24000
2438888;-0.23500
2441666;-0.21000
2444444;-0.20500
2447222;-0.23000
2449999;-0.27500
2452777;-0.29000
2455555;-0.28500
2458333;-0.30500
2461110;-0.32000
2463888;-0.34000
2466666;-0.34500
2469444;-0.34500
2472222;-0.33500
2474999;-0.33000
2477777;-0.34500
2480555;-0.35000
2483333;-0.35500
2486110;-0.36000
2488888;-0.37000
2491666;-0.35500
2494444;-0.36000
2497222;-0.36500
2499999;-0.37500
2502777;-0.37500
2505555;-0.35500
2508333;-0.35500
2511110;-0.35500
2513888;-0.35500
2516666;-0.36500
2519444;-0.35500
2522222;-0.35500
2524999;-0.35000
2527777;-0.35000
2530555;-0.35000
2533333;-0.37000
2536110;-0.39000
2538888;-0.40500
2541666;-0.42500
2544444;-0.45000
2547222;-0.46000
2549999;-0.47500
2552777;-0.50000
2555555;-0.55000
2558333;-0.59500
2561110;-0.59000
2563888;-0.54000
2566666;-0.45000
2569444;-0.32000
2572222;-0.16500
2574999;0.00000
2577777;0.23500
2580555;0.48500
2583333;0.70500
2586110;0.87000
2588888;0.95500
2591666;0.87500
2594444;0.60000
2597221;0.21500
2599999;-0.16000
2602777;-0.38500
2605555;-0.46500
2608333;-0.46500
2611110;-0.45500
2613888;-0.43500
2616666;-0.43500
2619444;-0.43500
2622221;-0.40500
2624999;-0.39000
2627777;-0.39500
2630555;-0.39500
2633333;-0.40000
2636110;-0.40000
2638888;-0.40000
2641666;-0.41000
2644444;-0.40000
2647221;-0.41500
2649999;-0.42500
2652777;-0.41500
2655555;-0.41500
2658333;-0.40500
2661110;-0.42000
2663888;-0.42500
2666666;-0.41500
2669444;-0.40500
2672221;-0.40000
2674999;-0.41000
2677777;-0.40000
2680555;-0.41500
2683333;-0.42500
2686110;-0.42000
2688888;-0.43000
2691666;-0.42000
2694444;-0.42000
2697221;-0.43000
2699999;-0.44000
2702777;-0.43500
2705555;-0.42500
2708333;-0.42000
2711110;-0.42000
2713888;-0.42500
2716666;-0.42500
2719444;-0.41500
2722221;-0.40500
2724999;-0.40000
2727777;-0.40500
2730555;-0.40500
2733333;-0.42000
2736110;-0.41500
2738888;-0.39500
2741666;-0.40000
2744444;-0.41500
2747221;-0.42000
2749999;-0.45000
2752777;-0.45000
2755555;-0.43000
2758333;-0.43000
2761110;-0.41500
2763888;-0.43000
2766666;-0.44000
2769444;-0.42500
2772221;-0.43000
2774999;-0.43000
2777777;-0.44000
2780555;-0.45000
2783333;-0.44500
2786110;-0.43500
2788888;-0.42500
2791666;-0.43000
2794444;-0.41500
2797221;-0.42500
2799999;-0.44500
2802777;-0.43500
2805555;-0.42500
2808333;-0.40500
2811110;-0.40500
2813888;-0.40500
2816666;-0.41000
2819444;-0.41500
2822221;-0.41500
2824999;-0.41500
2827777;-0.43000
2830555;-0.44500
2833333;-0.45500
2836110;-0.45000
2838888;-0.45000
2841666;-0.44000
2844444;-0.45000
2847221;-0.47000
2849999;-0.47500
2852777;-0.47000
2855555;-0.48500
2858333;-0.47500
2861110;-0.48000
2863888;-0.49500
2866666;-0.50500
2869444;-0.50500
2872221;-0.48500
2874999;-0.47500
2877777;-0.48500
2880555;-0.50500
2883333;-0.51000
2886110;-0.48500
2888888;-0.47000
2891666;-0.46500
2894444;-0.45000
2897221;-0.44500
2899999;-0.44500
2902777;-0.42500
2905555;-0.39500
2908333;-0.38500
2911110;-0.38500
2913888;-0.39000
2916666;-0.39000
2919444;-0.37500
2922221;-0.38000
2924999;-0.36500
2927777;-0.35000
2930555;-0.33500
2933333;-0.34500
2936110;-0.33000
2938888;-0.32500
2941666;-0.32500
2944444;-0.32500
2947221;-0.33500
2949999;-0.34000
2952777;-0.32000
2955555;-0.31000
2958333;-0.29500
2961110;-0.29000
2963888;-0.30000
2966666;-0.31500
2969444;-0.30500
2972221;-0.29500
2974999;-0.28500
2977777;-0.28500
2980555;-0.29000
2983332;-0.29500
2986110;-0.29000
2988888;-0.29500
2991666;-0.30000
2994444;-0.31000
2997221;-0.32500
2999999;-0.33500
3002777;-0.32500
3005555;-0.32000
3008332;-0.31500
3011110;-0.30500
3013888;-0.32500
3016666;-0.33500
3019444;-0.33500
3022221;-0.31000
3024999;-0.31000
3027777;-0.30500
3030555;-0.31000
3033332;-0.33500
3036110;-0.33000
3038888;-0.32000
3041666;-0.31000
3044444;-0.30500
3047221;-0.32000
3049999;-0.35500
3052777;-0.34500
3055555;-0.35000
3058332;-0.34500
3061110;-0.34000
3063888;-0.34500
3066666;-0.35500
3069444;-0.35500
3072221;-0.34000
3074999;-0.35500
3077777;-0.34500
3080555;-0.35500
3083332;-0.35000
3086110;-0.35500
3088888;-0.33000
3091666;-0.33500
3094444;-0.34000
3097221;-0.35000
3099999;-0.36000
3102777;-0.35000
3105555;-0.33500
3108332;-0.34500
3111110;-0.35000
3113888;-0.36500
3116666;-0.37500
3119444;-0.36500
3122221;-0.36500
3124999;-0.35500
3127777;-0.36000
3130555;-0.35500
3133332;-0.35500
3136110;-0.35500
3138888;-0.33000
3141666;-0.32500
3144444;-0.33000
3147221;-0.34500
3149999;-0.35500
3152777;-0.34500
3155555;-0.34000
3158332;-0.32000
3161110;-0.32000
3163888;-0.33000
3166666;-0.34500
3169444;-0.33500
3172221;-0.34000
3174999;-0.33000
3177777;-0.33500
3180555;-0.34000
3183332;-0.35500
3186110;-0.35000
3188888;-0.34500
3191666;-0.34000
3194444;-0.35000
3197221;-0.35500
3199999;-0.35000
3202777;-0.33500
3205555;-0.32000
3208332;-0.31000
3211110;-0.31000
3213888;-0.31000
3216666;-0.29500
3219444;-0.29500
3222221;-0.26500
3224999;-0.26500
3227777;-0.25500
3230555;-0.26000
3233332;-0.25000
3236110;-0.24500
3238888;-0.23500
3241666;-0.23000
3244444;-0.22500
3247221;-0.22500
3249999;-0.24000
3252777;-0.23500
3255555;-0.23000
3258332;-0.22500
3261110;-0.23500
3263888;-0.24500
3266666;-0.27000
3269444;-0.26000
3272221;-0.25500
3274999;-0.24500
3277777;-0.26000
3280555;-0.26000
3283332;-0.28000
3286110;-0.28000
3288888;-0.26500
3291666;-0.23000
3294444;-0.23000
3297221;-0.23000
3299999;-0.26500
3302777;-0.28500
3305555;-0.28500
3308332;-0.29000
3311110;-0.31500
3313888;-0.32500
3316666;-0.34000
3319444;-0.34000
3322221;-0.35000
3324999;-0.34000
3327777;-0.34000
3330555;-0.35000
3333332;-0.36000
3336110;-0.36500
3338888;-0.34000
3341666;-0.34500
3344444;-0.35000
3347221;-0.36000
3349999;-0.37000
3352777;-0.37000
3355555;-0.35000
3358332;-0.36000
3361110;-0.36000
3363888;-0.36500
3366666;-0.36500
3369444;-0.36000
3372221;-0.35500
3374999;-0.35500
3377777;-0.35500
3380555;-0.37000
3383332;-0.38500
3386110;-0.40500
3388888;-0.43500
3391666;-0.45500
3394443;-0.47000
3397221;-0.48500
3399999;-0.51500
3402777;-0.54500
3405555;-0.56500
3408332;-0.53500
3411110;-0.43500
3413888;-0.29500
3416666;-0.12500
3419443;0.06000
3422221;0.27500
3424999;0.54000
3427777;0.78000
3430555;0.94000
3433332;1.03500
3436110;1.02000
3438888;0.85000
3441666;0.49500
3444443;0.06500
3447221;-0.26500
3449999;-0.43000
3452777;-0.46500
3455555;-0.45500
3458332;-0.43500
3461110;-0.41000
3463888;-0.40000
3466666;-0.39500
3469443;-0.40500
3472221;-0.39000
3474999;-0.38500
3477777;-0.38500
3480555;-0.39000
3483332;-0.40500
3486110;-0.39500
3488888;-0.39500
3491666;-0.38000
3494443;-0.38500
3497221;-0.38500
3499999;-0.40000
3502777;-0.39000
3505555;-0.37000
3508332;-0.36500
3511110;-0.36500
3513888;-0.38000
3516666;-0.38500
3519443;-0.37500
3522221;-0.37000
3524999;-0.37500
3527777;-0.37500
3530555;-0.39500
3533332;-0.39000
3536110;-0.38000
3538888;-0.37500
3541666;-0.37500
3544443;-0.37000
3547221;-0.38000
3549999;-0.39000
3552777;-0.39500
3555555;-0.39000
3558332;-0.38500
3561110;-0.37500
3563888;-0.39500
3566666;-0.39000
3569443;-0.38000
3572221;-0.37000
3574999;-0.37000
3577777;-0.36000
3580555;-0.37500
3583332;-0.39500
3586110;-0.38500
3588888;-0.37000
3591666;-0.36500
3594443;-0.36500
3597221;-0.37000
3599999;-0.37000
3602777;-0.37500
3605555;-0.36000
3608332;-0.36500
3611110;-0.36500
3613888;-0.37500
3616666;-0.38500
3619443;-0.37000
3622221;-0.37000
3624999;-0.36500
3627777;-0.37000
3630555;-0.38000
3633332;-0.38500
3636110;-0.37500
3638888;-0.37500
3641666;-0.37000
3644443;-0.38000
3647221;-0.38000
3649999;-0.39000
3652777;-0.38500
3655555;-0.38500
3658332;-0.36500
3661110;-0.36500
3663888;-0.36000
3666666;-0.38500
3669443;-0.37500
3672221;-0.37500
3674999;-0.36500
3677777;-0.39000
3680555;-0.38000
3683332;-0.39000
3686110;-0.39000
3688888;-0.40000
3691666;-0.39500
3694443;-0.40000
3697221;-0.41500
3699999;-0.42500
3702777;-0.42500
3705555;-0.42000
3708332;-0.42000
3711110;-0.42000
3713888;-0.42500
3716666;-0.43500
3719443;-0.43000
3722221;-0.42000
3724999;-0.41000
3727777;-0.40500
3730555;-0.40500
3733332;-0.41500
3736110;-0.41000
3738888;-0.39000
3741666;-0.38000
3744443;-0.37500
3747221;-0.38000
3749999;-0.38000
3752777;-0.35000
3755555;-0.33000
3758332;-0.31500
3761110;-0.30500
3763888;-0.31000
3766666;-0.29500
3769443;-0.29500
3772221;-0.27500
3774999;-0.27500
3777777;-0.26500
3780554;-0.27000
3783332;-0.28500
3786110;-0.26500
3788888;-0.25500
3791666;-0.25000
3794443;-0.24500
3797221;-0.25000
3799999;-0.25500
3802777;-0.24500
3805554;-0.24500
3808332;-0.23000
3811110;-0.24000
3813888;-0.25000
3816666;-0.26000
3819443;-0.24000
3822221;-0.24500
3824999;-0.25000
3827777;-0.25500
3830554;-0.24500
3833332;-0.25500
3836110;-0.25000
3838888;-0.24500
3841666;-0.24000
3844443;-0.24000
3847221;-0.24500
3849999;-0.26500
3852777;-0.26500
3855554;-0.26000
3858332;-0.25000
3861110;-0.26000
3863888;-0.25500
3866666;-0.27500
3869443;-0.26500
3872221;-0.24500
3874999;-0.25500
3877777;-0.26500
3880554;-0.26500
3883332;-0.28000
3886110;-0.26500
3888888;-0.26000
3891666;-0.25500
3894443;-0.26500
3897221;-0.26000
3899999;-0.27500
3902777;-0.26500
3905554;-0.26000
3908332;-0.25500
3911110;-0.27000
3913888;-0.28000
3916666;-0.27500
3919443;-0.27000
3922221;-0.26500
3924999;-0.26500
3927777;-0.27000
3930554;-0.27000
3933332;-0.28000
3936110;-0.29000
3938888;-0.28500
3941666;-0.28500
3944443;-0.28000
3947221;-0.29000
3949999;-0.30500
3952777;-0.29500
3955554;-0.27500
3958332;-0.28000
3961110;-0.28500
3963888;-0.30000
3966666;-0.31000
3969443;-0.30000
3972221;-0.29000
3974999;-0.27500
3977777;-0.28000
3980554;-0.27500
3983332;-0.29500
3986110;-0.28000
3988888;-0.27500
3991666;-0.27000
3994443;-0.27500
3997221;-0.27500
3999999;-0.28500
4002777;-0.29000
4005554;-0.28000
4008332;-0.26500
4011110;-0.27000
4013888;-0.27500
4016666;-0.28000
4019443;-0.28000
4022221;-0.27000
4024999;-0.26500
4027777;-0.27500
4030554;-0.26000
4033332;-0.29000
4036110;-0.27500
4038888;-0.26500
4041666;-0.26000
4044443;-0.26000
4047221;-0.27000
4049999;-0.27500
4052777;-0.26500
4055554;-0.25500
4058332;-0.24500
4061110;-0.23500
4063888;-0.23500
4066666;-0.23000
4069443;-0.21500
4072221;-0.20500
4074999;-0.20000
4077777;-0.19500
4080554;-0.20000
4083332;-0.20500
4086110;-0.19000
4088888;-0.17000
4091666;-0.16500
4094443;-0.16000
4097221;-0.16000
4099999;-0.17500
4102777;-0.16500
4105554;-0.16500
4108332;-0.17000
4111110;-0.17500
4113888;-0.18500
4116666;-0.18500
4119443;-0.18000
4122221;-0.18000
4124999;-0.17500
4127777;-0.18000
4130554;-0.18000
4133332;-0.16000
4136110;-0.15500
4138888;-0.16000
4141666;-0.19000
4144443;-0.20500
4147221;-0.23000
4149999;-0.24500
4152777;-0.26000
4155554;-0.26500
4158332;-0.27000
4161110;-0.27500
4163888;-0.28000
4166666;-0.30000
4169443;-0.28000
4172221;-0.27500
4174999;-0.26500
4177777;-0.27000
4180554;-0.28000
4183332;-0.29000
4186110;-0.29000
4188888;-0.27500
4191665;-0.27500
4194443;-0.27000
4197221;-0.28500
4199999;-0.28500
4202777;-0.28500
4205554;-0.29000
4208332;-0.28000
4211110;-0.27500
4213888;-0.29000
4216665;-0.29500
4219443;-0.29500
4222221;-0.27500
4224999;-0.28500
4227777;-0.29500
4230554;-0.30500
4233332;-0.31500
4236110;-0.31000
4238888;-0.32500
4241665;-0.35000
4244443;-0.40500
4247221;-0.44000
4249999;-0.46500
4252777;-0.50000
4255554;-0.51000
4258332;-0.44000
4261110;-0.32000
4263888;-0.15000
4266665;0.03000
4269443;0.25000
4272221;0.54000
4274999;0.84500
4277777;1.09000
4280554;1.21500
4283332;1.18000
4286110;0.98500
4288888;0.60000
4291665;0.13500
4294443;-0.23500
4297221;-0.40000
4299999;-0.40000
4302777;-0.34500
4305554;-0.30500
4308332;-0.28500
4311110;-0.31000
4313888;-0.32500
4316665;-0.33500
4319443;-0.33000
4322221;-0.32500
4324999;-0.33000
4327777;-0.33000
4330554;-0.33500
4333332;-0.34500
4336110;-0.34000
4338888;-0.33500
4341665;-0.33500
4344443;-0.33500
4347221;-0.33500
4349999;-0.35500
4352777;-0.34000
4355554;-0.33500
4358332;-0.32500
4361110;-0.33000
4363888;-0.33000
4366665;-0.34000
4369443;-0.34500
4372221;-0.34000
4374999;-0.33000
4377777;-0.32500
4380554;-0.34000
4383332;-0.34000
4386110;-0.35000
4388888;-0.33500
4391665;-0.34000
4394443;-0.35000
4397221;-0.35000
4399999;-0.35500
4402777;-0.35000
4405554;-0.34500
4408332;-0.32000
4411110;-0.33000
4413888;-0.34000
4416665;-0.35500
4419443;-0.34000
4422221;-0.34000
4424999;-0.32500
4427777;-0.31000
4430554;-0.32500
4433332;-0.33000
4436110;-0.32500
4438888;-0.32000
4441665;-0.31500
4444443;-0.32500
4447221;-0.33000
4449999;-0.34000
4452777;-0.34000
4455554;-0.33000
4458332;-0.33500
4461110;-0.34500
4463888;-0.34000
4466665;-0.34500
4469443;-0.34500
4472221;-0.32000
4474999;-0.32000
4477777;-0.31500
4480554;-0.34000
4483332;-0.35000
4486110;-0.34000
4488888;-0.33000
4491665;-0.32000
4494443;-0.34000
4497221;-0.33500
4499999;-0.35500
4502777;-0.34000
4505554;-0.35500
4508332;-0.33500
4511110;-0.34000
4513888;-0.35500
4516665;-0.37000
4519443;-0.35500
4522221;-0.35500
4524999;-0.33000
4527777;-0.34000
4530554;-0.35000
4533332;-0.37000
4536110;-0.36500
4538888;-0.35500
4541665;-0.34500
4544443;-0.34500
4547221;-0.36000
4549999;-0.36000
4552777;-0.36000
4555554;-0.36000
4558332;-0.35500
4561110;-0.33500
4563888;-0.34500
4566665;-0.35000
4569443;-0.33500
4572221;-0.32000
4574999;-0.30500
4577776;-0.30500
4580554;-0.30500
4583332;-0.29500
4586110;-0.28000
4588888;-0.26500
4591665;-0.25000
4594443;-0.24000
4597221;-0.24000
4599999;-0.24000
4602776;-0.24500
4605554;-0.23000
4608332;-0.23000
4611110;-0.22500
4613888;-0.23000
4616665;-0.24500
4619443;-0.24000
4622221;-0.23000
4624999;-0.23000
4627776;-0.23000
4630554;-0.22500
4633332;-0.25000
4636110;-0.23000
4638888;-0.23000
4641665;-0.21500
4644443;-0.22000
4647221;-0.23500
4649999;-0.23000
4652776;-0.23500
4655554;-0.22500
4658332;-0.22000
4661110;-0.21000
4663888;-0.22000
4666665;-0.23000
4669443;-0.22500
4672221;-0.21500
4674999;-0.21000
4677776;-0.21500
4680554;-0.23500
4683332;-0.23500
4686110;-0.23000
4688888;-0.22000
4691665;-0.22000
4694443;-0.21500
4697221;-0.22000
4699999;-0.24500
4702776;-0.24500
4705554;-0.24500
4708332;-0.25000
4711110;-0.25500
4713888;-0.26000
4716665;-0.26500
4719443;-0.26000
4722221;-0.26000
4724999;-0.24500
4727776;-0.25500
4730554;-0.26000
4733332;-0.27500
4736110;-0.27500
4738888;-0.26000
4741665;-0.26500
4744443;-0.26500
4747221;-0.27500
4749999;-0.28000
4752776;-0.28000
4755554;-0.26500
4758332;-0.25000
4761110;-0.26500
4763888;-0.27000
4766665;-0.28000
4769443;-0.27500
4772221;-0.27000
4774999;-0.26500
4777776;-0.27500
4780554;-0.28500
4783332;-0.29500
4786110;-0.28500
4788888;-0.28000
4791665;-0.28000
4794443;-0.28500
4797221;-0.28500
4799999;-0.29500
4802776;-0.29500
4805554;-0.29000
4808332;-0.27500
4811110;-0.28500
4813888;-0.28500
4816665;-0.29500
4819443;-0.28000
4822221;-0.27500
4824999;-0.27500
4827776;-0.27000
4830554;-0.27500
4833332;-0.28500
4836110;-0.27500
4838888;-0.26500
4841665;-0.26000
4844443;-0.25000
4847221;-0.26500
4849999;-0.28500
4852776;-0.27500
4855554;-0.26500
4858332;-0.26000
4861110;-0.26500
4863888;-0.25500
4866665;-0.25500
4869443;-0.25500
4872221;-0.23500
4874999;-0.21500
4877776;-0.20000
4880554;-0.20000
4883332;-0.21500
4886110;-0.20500
4888888;-0.19000
4891665;-0.17000
4894443;-0.17000
4897221;-0.17000
4899999;-0.18000
4902776;-0.17000
4905554;-0.14500
4908332;-0.14500
4911110;-0.16500
4913888;-0.17500
4916665;-0.17500
4919443;-0.16500
4922221;-0.15500
4924999;-0.16000
4927776;-0.16500
4930554;-0.18000
4933332;-0.19000
4936110;-0.18500
4938888;-0.18500
4941665;-0.16500
4944443;-0.16000
4947221;-0.13500
4949999;-0.16000
4952776;-0.18500
4955554;-0.19500
4958332;-0.21000
4961110;-0.23000
4963887;-0.25000
4966665;-0.28000
4969443;-0.28500
4972221;-0.28500
4974999;-0.27500
4977776;-0.27500
4980554;-0.29000
4983332;-0.29000
4986110;-0.29500
4988887;-0.29000
4991665;-0.29000
4994443;-0.28000
4997221;-0.28500
4999999;-0.30000
5002776;-0.29000
5005554;-0.28000
5008332;-0.27000
5011110;-0.27500
5013887;-0.28500
5016665;-0.29000
5019443;-0.29500
5022221;-0.29000
5024999;-0.28000
5027776;-0.28500
5030554;-0.29500
5033332;-0.31000
5036110;-0.34500
5038887;-0.37500
5041665;-0.41500
5044443;-0.42500
5047221;-0.45500
5049999;-0.50000
5052776;-0.52500
5055554;-0.47000
5058332;-0.34000
5061110;-0.17500
5063887;0.00000
5066665;0.20500
5069443;0.51500
5072221;0.81500
5074999;1.05000
5077776;1.14000
5080554;1.07000
5083332;0.75000
5086110;0.29000
5088887;-0.12500
5091665;-0.36000
5094443;-0.43000
5097221;-0.39500
5099999;-0.34500
5102776;-0.31500
5105554;-0.30000
5108332;-0.31000
5111110;-0.32000
5113887;-0.32000
5116665;-0.33500
5119443;-0.33000
5122221;-0.33000
5124999;-0.33000
5127776;-0.32500
5130554;-0.34000
5133332;-0.34500
5136110;-0.34000
5138887;-0.32000
5141665;-0.31500
5144443;-0.30500
5147221;-0.32000
5149999;-0.33500
5152776;-0.33500
5155554;-0.33000
5158332;-0.33000
5161110;-0.32500
5163887;-0.33000
5166665;-0.34000
5169443;-0.33500
5172221;-0.32500
5174999;-0.32500
5177776;-0.33500
5180554;-0.34000
5183332;-0.36000
5186110;-0.34500
5188887;-0.34000
5191665;-0.33500
5194443;-0.34500
5197221;-0.34000
5199999;-0.34500
5202776;-0.35000
5205554;-0.34500
5208332;-0.33000
5211110;-0.34000
5213887;-0.33500
5216665;-0.34500
5219443;-0.33500
5222221;-0.33500
5224999;-0.33000
5227776;-0.32500
5230554;-0.33500
5233332;-0.33500
5236110;-0.34500
5238887;-0.33000
5241665;-0.33500
5244443;-0.32000
5247221;-0.32500
5249999;-0.34500
5252776;-0.35000
5255554;-0.34000
5258332;-0.32500
5261110;-0.33500
5263887;-0.34000
5266665;-0.34000
5269443;-0.33500
5272221;-0.34000
5274999;-0.32500
5277776;-0.33000
5280554;-0.34500
5283332;-0.34500
5286110;-0.33500
5288887;-0.33000
5291665;-0.33500
5294443;-0.33000
5297221;-0.34000
5299999;-0.34500
5302776;-0.34500
5305554;-0.33500
5308332;-0.34500
5311110;-0.35000
5313887;-0.37000
5316665;-0.37500
5319443;-0.37000
5322221;-0.37000
5324999;-0.36000
5327776;-0.36500
5330554;-0.37000
5333332;-0.37500
5336110;-0.37000
5338887;-0.37000
5341665;-0.35500
5344443;-0.35000
5347221;-0.35500
5349999;-0.36500
5352776;-0.35000
5355554;-0.34500
5358332;-0.32000
5361110;-0.30500
5363887;-0.31000
5366665;-0.31000
5369443;-0.30500
5372221;-0.28500
5374998;-0.27500
5377776;-0.27000
5380554;-0.26000
5383332;-0.27500
5386110;-0.26500
5388887;-0.27500
5391665;-0.25500
5394443;-0.24500
5397221;-0.24500
5399998;-0.25500
5402776;-0.27000
5405554;-0.24500
5408332;-0.25500
5411110;-0.26000
5413887;-0.26000
5416665;-0.25000
5419443;-0.24500
5422221;-0.24500
5424998;-0.22500
5427776;-0.24000
5430554;-0.24000
5433332;-0.25500
5436110;-0.24500
5438887;-0.23500
5441665;-0.23500
5444443;-0.24000
5447221;-0.25000
5449998;-0.26500
5452776;-0.27500
5455554;-0.27000
5458332;-0.26500
5461110;-0.27000
5463887;-0.27000
5466665;-0.30000
5469443;-0.27500
5472221;-0.26500
5474998;-0.25500
5477776;-0.27000
5480554;-0.28000
5483332;-0.28500
5486110;-0.28500
5488887;-0.26500
5491665;-0.25000
5494443;-0.27500
5497221;-0.28000
5499998;-0.29000
5502776;-0.29000
5505554;-0.29500
5508332;-0.29000
5511110;-0.29000
5513887;-0.31500
5516665;-0.33000
5519443;-0.31000
5522221;-0.30500
5524998;-0.29500
5527776;-0.29500
5530554;-0.30500
5533332;-0.31500
5536110;-0.31000
5538887;-0.30000
5541665;-0.30000
5544443;-0.30000
5547221;-0.31500
5549998;-0.32500
5552776;-0.31000
5555554;-0.31000
5558332;-0.29500
5561110;-0.30000
5563887;-0.30000
5566665;-0.30000
5569443;-0.31500
5572221;-0.30500
5574998;-0.29500
5577776;-0.29500
5580554;-0.30500
5583332;-0.33500
5586110;-0.31500
5588887;-0.31000
5591665;-0.30000
5594443;-0.29500
5597221;-0.30000
5599998;-0.30500
5602776;-0.30500
5605554;-0.29000
5608332;-0.29500
5611110;-0.30000
5613887;-0.31000
5616665;-0.32000
5619443;-0.31500
5622221;-0.30000
5624998;-0.29500
5627776;-0.28500
5630554;-0.28500
5633332;-0.29000
5636110;-0.25500
5638887;-0.23500
5641665;-0.23000
5644443;-0.23000
5647221;-0.25500
5649998;-0.24500
5652776;-0.22000
5655554;-0.19500
5658332;-0.18500
5661110;-0.17500
5663887;-0.17500
5666665;-0.20000
5669443;-0.20500
5672221;-0.20500
5674998;-0.20500
5677776;-0.22000
5680554;-0.21500
5683332;-0.24000
5686110;-0.24500
5688887;-0.24000
5691665;-0.23500
5694443;-0.24000
5697221;-0.23000
5699998;-0.23500
5702776;-0.22000
5705554;-0.22000
5708332;-0.24000
5711110;-0.27500
5713887;-0.28500
5716665;-0.31000
5719443;-0.32500
5722221;-0.31500
5724998;-0.31500
5727776;-0.33000
5730554;-0.33500
5733332;-0.34500
5736110;-0.34000
5738887;-0.34000
5741665;-0.33000
5744443;-0.32500
5747221;-0.35000
5749998;-0.36500
5752776;-0.36000
5755554;-0.36000
5758332;-0.36000
5761109;-0.35000
5763887;-0.34500
5766665;-0.35500
5769443;-0.36500
5772221;-0.35000
5774998;-0.33000
5777776;-0.33000
5780554;-0.34500
5783332;-0.36000
5786109;-0.35500
5788887;-0.35500
5791665;-0.35000
5794443;-0.39000
5797221;-0.42000
5799998;-0.44500
5802776;-0.45000
5805554;-0.47500
5808332;-0.52000
5811109;-0.55500
5813887;-0.54500
5816665;-0.47500
5819443;-0.34000
5822221;-0.17500
5824998;0.02000
5827776;0.25500
5830554;0.51500
5833332;0.77000
5836109;0.95000
5838887;0.99000
5841665;0.84000
5844443;0.47500
5847221;0.04000
5849998;-0.29500
5852776;-0.44500
5855554;-0.46000
5858332;-0.42000
5861109;-0.39000
5863887;-0.38000
5866665;-0.38000
5869443;-0.37000
5872221;-0.34500
5874998;-0.35000
5877776;-0.35000
5880554;-0.37500
5883332;-0.37000
5886109;-0.37000
5888887;-0.35500
5891665;-0.37000
5894443;-0.37000
5897221;-0.38000
5899998;-0.39000
5902776;-0.38000
5905554;-0.37500
5908332;-0.37500
5911109;-0.39000
5913887;-0.40000
5916665;-0.40500
5919443;-0.40000
5922221;-0.39000
5924998;-0.37500
5927776;-0.36000
5930554;-0.36500
5933332;-0.38000
5936109;-0.37500
5938887;-0.37500
5941665;-0.36500
5944443;-0.38000
5947221;-0.38500
5949998;-0.37500
5952776;-0.37500
5955554;-0.37500
5958332;-0.37000
5961109;-0.38000
5963887;-0.38000
5966665;-0.39000
5969443;-0.38500
5972221;-0.37000
5974998;-0.37000
5977776;-0.39000
5980554;-0.38500
5983332;-0.39000
5986109;-0.39000
5988887;-0.38500
5991665;-0.38500
5994443;-0.38000
5997221;-0.39500
5999998;-0.40000
6002776;-0.39000
6005554;-0.38000
6008332;-0.38000
6011109;-0.38500
6013887;-0.39000
6016665;-0.38000
6019443;-0.37000
6022221;-0.36000
6024998;-0.36000
6027776;-0.37000
6030554;-0.37500
6033332;-0.38500
6036109;-0.38500
6038887;-0.36000
6041665;-0.37500
6044443;-0.36500
6047221;-0.38000
6049998;-0.38500
6052776;-0.38000
6055554;-0.38500
6058332;-0.37500
6061109;-0.39500
6063887;-0.41500
6066665;-0.43500
6069443;-0.42500
6072221;-0.42500
6074998;-0.42000
6077776;-0.42500
6080554;-0.42000
6083332;-0.44000
6086109;-0.44000
6088887;-0.43500
6091665;-0.43500
6094443;-0.42500
6097221;-0.43500
6099998;-0.44500
6102776;-0.45500
6105554;-0.44500
6108332;-0.43000
6111109;-0.43500
6113887;-0.44000
6116665;-0.44000
6119443;-0.44500
6122221;-0.42000
6124998;-0.40000
6127776;-0.39500
6130554;-0.38000
6133332;-0.37500
6136109;-0.36500
6138887;-0.34500
6141665;-0.33500
6144443;-0.33000
6147221;-0.32500
6149998;-0.33000
6152776;-0.29500
6155554;-0.28000
6158332;-0.26500
6161109;-0.26500
6163887;-0.28000
6166665;-0.27500
6169443;-0.26000
6172220;-0.26000
6174998;-0.25500
6177776;-0.26500
6180554;-0.27500
6183332;-0.28000
6186109;-0.27000
6188887;-0.26000
6191665;-0.26000
6194443;-0.27000
6197220;-0.27000
6199998;-0.29000
6202776;-0.27000
6205554;-0.26500
6208332;-0.26000
6211109;-0.25500
6213887;-0.28500
6216665;-0.29500
6219443;-0.28000
6222220;-0.26500
6224998;-0.26500
6227776;-0.26500
6230554;-0.27500
6233332;-0.27000
6236109;-0.27000
6238887;-0.26000
6241665;-0.25000
6244443;-0.25500
6247220;-0.27000
6249998;-0.28500
6252776;-0.29000
6255554;-0.27000
6258332;-0.27500
6261109;-0.27000
6263887;-0.28000
6266665;-0.29500
6269443;-0.30000
6272220;-0.29000
6274998;-0.28500
6277776;-0.30000
6280554;-0.29500
6283332;-0.30000
6286109;-0.30000
6288887;-0.29500
6291665;-0.28500
6294443;-0.28500
6297220;-0.29000
6299998;-0.30500
6302776;-0.31000
6305554;-0.29500
6308332;-0.30500
6311109;-0.28000
6313887;-0.29000
6316665;-0.31500
6319443;-0.30500
6322220;-0.29500
6324998;-0.28000
6327776;-0.27500
6330554;-0.29000
6333332;-0.30500
6336109;-0.29000
6338887;-0.28500
6341665;-0.29500
6344443;-0.29500
6347220;-0.30000
6349998;-0.29500
6352776;-0.31000
6355554;-0.29000
6358332;-0.27500
6361109;-0.28000
6363887;-0.29500
6366665;-0.30000
6369443;-0.29000
6372220;-0.27000
6374998;-0.26000
6377776;-0.26000
6380554;-0.27000
6383332;-0.28500
6386109;-0.28000
6388887;-0.26500
6391665;-0.26000
6394443;-0.27500
6397220;-0.27000
6399998;-0.28500
6402776;-0.28000
6405554;-0.27000
6408332;-0.26500
6411109;-0.27000
6413887;-0.28000
6416665;-0.27000
6419443;-0.27500
6422220;-0.25000
6424998;-0.23000
6427776;-0.22500
6430554;-0.21500
6433332;-0.23000
6436109;-0.23000
6438887;-0.21000
6441665;-0.20500
6444443;-0.19000
6447220;-0.20000
6449998;-0.20000
6452776;-0.19500
6455554;-0.17500
6458332;-0.17000
6461109;-0.17500
6463887;-0.19000
6466665;-0.19500
6469443;-0.20500
6472220;-0.19000
6474998;-0.17500
6477776;-0.18000
6480554;-0.19500
6483332;-0.21500
6486109;-0.21000
6488887;-0.19000
6491665;-0.16000
6494443;-0.15000
6497220;-0.18500
6499998;-0.22500
6502776;-0.25000
6505554;-0.26000
6508332;-0.26500
6511109;-0.28000
6513887;-0.29000
6516665;-0.30000
6519443;-0.31500
6522220;-0.29500
6524998;-0.29500
6527776;-0.29000
6530554;-0.29500
6533332;-0.32000
6536109;-0.31500
6538887;-0.31500
6541665;-0.30000
6544443;-0.30500
6547220;-0.30500
6549998;-0.33000
6552776;-0.31000
6555554;-0.30000
6558331;-0.28500
6561109;-0.28500
6563887;-0.29000
6566665;-0.29500
6569443;-0.29500
6572220;-0.30000
6574998;-0.29000
6577776;-0.29500
6580554;-0.30500
6583331;-0.31500
6586109;-0.32500
6588887;-0.33500
6591665;-0.35500
6594443;-0.40000
6597220;-0.43500
6599998;-0.47000
6602776;-0.49000
6605554;-0.51500
6608331;-0.48000
6611109;-0.38000
6613887;-0.23000
6616665;-0.06000
6619443;0.16000
6622220;0.42000
6624998;0.71000
6627776;0.95000
6630554;1.08500
6633331;1.10000
6636109;0.93000
6638887;0.53500
6641665;0.05500
6644443;-0.31000
6647220;-0.44500
6649998;-0.43000
6652776;-0.37000
6655554;-0.32000
6658331;-0.31000
6661109;-0.31000
6663887;-0.32500
6666665;-0.34000
6669443;-0.33500
6672220;-0.33500
6674998;-0.33000
6677776;-0.33000
6680554;-0.33500
6683331;-0.34500
6686109;-0.33500
6688887;-0.34000
6691665;-0.33000
6694443;-0.33000
6697220;-0.33000
6699998;-0.34000
6702776;-0.33000
6705554;-0.32000
6708331;-0.32500
6711109;-0.32500
6713887;-0.32000
6716665;-0.33000
6719443;-0.33500
6722220;-0.33500
6724998;-0.33000
6727776;-0.32500
6730554;-0.35500
6733331;-0.34500
6736109;-0.35000
6738887;-0.33000
6741665;-0.32500
6744443;-0.33000
6747220;-0.34000
6749998;-0.35000
6752776;-0.35500
6755554;-0.34500
6758331;-0.33000
6761109;-0.33500
6763887;-0.33000
6766665;-0.35500
6769443;-0.34000
6772220;-0.33000
6774998;-0.31500
6777776;-0.32000
6780554;-0.33500
6783331;-0.34000
6786109;-0.33000
6788887;-0.32500
6791665;-0.32000
6794443;-0.32500
6797220;-0.33000
6799998;-0.35000
6802776;-0.33500
6805554;-0.33000
6808331;-0.33000
6811109;-0.33000
6813887;-0.34000
6816665;-0.36000
6819443;-0.34500
6822220;-0.33000
6824998;-0.32500
6827776;-0.32000
6830554;-0.34000
6833331;-0.35000
6836109;-0.34500
6838887;-0.33000
6841665;-0.33000
6844443;-0.33000
6847220;-0.33500
6849998;-0.35000
6852776;-0.34500
6855554;-0.34000
6858331;-0.33500
6861109;-0.35000
6863887;-0.35000
6866665;-0.37500
6869443;-0.36500
6872220;-0.35000
6874998;-0.36500
6877776;-0.36500
6880554;-0.36000
6883331;-0.37500
6886109;-0.37000
6888887;-0.35000
6891665;-0.34000
6894443;-0.34000
6897220;-0.35500
6899998;-0.36500
6902776;-0.36000
6905554;-0.35000
6908331;-0.33000
6911109;-0.33500
6913887;-0.33000
6916665;-0.32000
6919443;-0.31000
6922220;-0.29500
6924998;-0.27000
6927776;-0.26500
6930554;-0.26500
6933331;-0.27000
6936109;-0.24500
6938887;-0.24500
6941665;-0.23000
6944442;-0.23500
6947220;-0.23500
6949998;-0.24000
6952776;-0.23000
6955554;-0.21500
6958331;-0.21000
6961109;-0.20500
6963887;-0.20500
6966665;-0.21000
6969442;-0.21500
6972220;-0.21500
6974998;-0.20500
6977776;-0.21000
6980554;-0.21000
6983331;-0.22500
6986109;-0.23500
6988887;-0.21500
6991665;-0.21500
6994442;-0.21000
6997220;-0.22500
6999998;-0.23500
7002776;-0.22000
7005554;-0.21500
7008331;-0.21000
7011109;-0.21500
7013887;-0.22000
7016665;-0.22500
7019442;-0.22000
7022220;-0.22000
7024998;-0.22000
7027776;-0.21500
7030554;-0.23500
7033331;-0.24500
7036109;-0.23500
7038887;-0.23000
7041665;-0.21500
7044442;-0.21500
7047220;-0.22500
7049998;-0.23500
7052776;-0.24000
7055554;-0.22500
7058331;-0.22500
7061109;-0.23000
7063887;-0.25000
7066665;-0.25500
7069442;-0.25500
7072220;-0.24500
7074998;-0.24000
7077776;-0.24500
7080554;-0.24500
7083331;-0.26500
7086109;-0.27000
7088887;-0.25000
7091665;-0.26000
7094442;-0.25500
7097220;-0.26000
7099998;-0.27000
7102776;-0.27000
7105554;-0.26500
7108331;-0.26500
7111109;-0.25500
7113887;-0.26500
7116665;-0.27500
7119442;-0.27000
7122220;-0.26000
7124998;-0.25000
7127776;-0.25500
7130554;-0.26000
7133331;-0.26500
7136109;-0.25000
7138887;-0.24500
7141665;-0.25000
7144442;-0.25500
7147220;-0.26000
7149998;-0.27000
7152776;-0.28500
7155554;-0.26500
7158331;-0.25000
7161109;-0.25500
7163887;-0.26000
7166665;-0.27500
7169442;-0.27000
7172220;-0.26000
7174998;-0.25000
7177776;-0.25000
7180554;-0.25000
7183331;-0.27500
7186109;-0.27000
7188887;-0.25000
7191665;-0.23500
7194442;-0.22500
7197220;-0.22500
7199998;-0.22000
7202776;-0.20500
7205554;-0.18500
7208331;-0.17000
7211109;-0.16000
7213887;-0.17000
7216665;-0.17500
7219442;-0.16000
7222220;-0.14500
7224998;-0.13500
7227776;-0.13000
7230554;-0.13500
7233331;-0.15000
7236109;-0.14500
7238887;-0.14500
7241665;-0.14500
7244442;-0.15000
7247220;-0.16500
7249998;-0.18500
7252776;-0.17000
7255554;-0.15000
7258331;-0.15500
7261109;-0.16000
7263887;-0.17000
7266665;-0.17500
7269442;-0.14500
7272220;-0.12000
7274998;-0.09000
7277776;-0.09500
7280554;-0.12500
7283331;-0.15000
7286109;-0.17000
7288887;-0.18500
7291665;-0.18500
7294442;-0.19500
7297220;-0.22000
7299998;-0.23000
7302776;-0.24500
7305554;-0.24500
7308331;-0.25000
7311109;-0.26000
7313887;-0.26000
7316665;-0.27500
7319442;-0.27000
7322220;-0.26500
7324998;-0.26000
7327776;-0.26000
7330554;-0.26000
7333331;-0.28000
7336109;-0.28500
7338887;-0.27500
7341665;-0.27500
7344442;-0.26500
7347220;-0.28000
7349998;-0.29000
7352776;-0.29000
7355553;-0.27000
7358331;-0.27500
7361109;-0.27000
7363887;-0.28500
7366665;-0.29000
7369442;-0.31000
7372220;-0.34000
7374998;-0.38500
7377776;-0.41500
7380553;-0.43000
7383331;-0.48500
7386109;-0.50000
7388887;-0.45000
7391665;-0.32500
7394442;-0.17500
7397220;0.00000
7399998;0.18500
7402776;0.42500
7405553;0.73500
7408331;0.99500
7411109;1.16500
7413887;1.21500
7416665;1.09000
7419442;0.75000
7422220;0.29000
7424998;-0.12000
7427776;-0.34500
7430553;-0.39500
7433331;-0.34000
7436109;-0.28500
7438887;-0.26000
7441665;-0.26500
7444442;-0.27000
7447220;-0.29000
7449998;-0.29500
7452776;-0.29500
7455553;-0.29500
7458331;-0.28000
7461109;-0.29500
7463887;-0.30500
7466665;-0.32500
7469442;-0.31500
7472220;-0.31500
7474998;-0.31500
7477776;-0.30500
7480553;-0.31500
7483331;-0.33500
7486109;-0.32000
7488887;-0.32000
7491665;-0.30500
7494442;-0.31500
7497220;-0.32000
7499998;-0.32500
7502776;-0.32000
7505553;-0.31000
7508331;-0.31500
7511109;-0.31000
7513887;-0.30000
7516665;-0.31500
7519442;-0.31500
7522220;-0.31000
7524998;-0.30500
7527776;-0.29000
7530553;-0.30500
7533331;-0.31500
7536109;-0.31000
7538887;-0.31500
7541665;-0.30500
7544442;-0.31000
7547220;-0.32500
7549998;-0.34000
7552776;-0.32500
7555553;-0.31500
7558331;-0.30500
7561109;-0.31500
7563887;-0.31500
7566665;-0.32500
7569442;-0.32000
7572220;-0.33000
7574998;-0.31000
7577776;-0.30000
7580553;-0.31500
7583331;-0.32500
7586109;-0.32000
7588887;-0.30500
7591665;-0.30000
7594442;-0.29500
7597220;-0.30500
7599998;-0.31500
7602776;-0.30500
7605553;-0.31000
7608331;-0.31000
7611109;-0.31000
7613887;-0.32500
7616665;-0.34500
7619442;-0.33500
7622220;-0.32500
7624998;-0.29500
7627776;-0.32000
7630553;-0.33000
7633331;-0.32500
7636109;-0.33000
7638887;-0.32500
7641665;-0.31500
7644442;-0.32000
7647220;-0.33000
7649998;-0.34500
7652776;-0.33500
7655553;-0.33000
7658331;-0.32500
7661109;-0.31500
7663887;-0.33000
7666665;-0.34000
7669442;-0.33500
7672220;-0.33500
7674998;-0.32000
7677776;-0.32500
7680553;-0.33500
7683331;-0.34500
7686109;-0.34500
7688887;-0.33000
7691665;-0.31000
7694442;-0.31500
7697220;-0.32000
7699998;-0.31500
7702776;-0.31000
7705553;-0.28500
7708331;-0.28000
7711109;-0.26500
7713887;-0.27000
7716665;-0.26500
7719442;-0.26000
7722220;-0.24000
7724998;-0.23000
7727776;-0.22500
7730553;-0.22500
7733331;-0.23000
7736109;-0.22500
7738887;-0.21500
7741664;-0.21000
7744442;-0.20500
7747220;-0.22000
7749998;-0.22000
7752776;-0.22500
7755553;-0.23500
7758331;-0.22500
7761109;-0.21000
7763887;-0.23000
7766664;-0.23000
7769442;-0.23000
7772220;-0.23000
7774998;-0.21000
7777776;-0.21500
7780553;-0.24000
7783331;-0.25000
7786109;-0.24500
7788887;-0.24000
7791664;-0.22000
7794442;-0.23000
7797220;-0.23500
7799998;-0.24500
7802776;-0.25000
7805553;-0.22500
7808331;-0.22000
7811109;-0.23500
7813887;-0.23500
7816664;-0.25000
7819442;-0.24500
7822220;-0.25500
7824998;-0.23500
7827776;-0.24500
7830553;-0.25000
7833331;-0.26000
7836109;-0.26000
7838887;-0.26500
7841664;-0.26000
7844442;-0.26000
7847220;-0.28000
7849998;-0.28500
7852776;-0.28000
7855553;-0.28500
7858331;-0.27000
7861109;-0.27000
7863887;-0.26500
7866664;-0.29000
7869442;-0.28500
7872220;-0.27500
7874998;-0.26500
7877776;-0.26000
7880553;-0.28000
7883331;-0.28500
7886109;-0.28500
7888887;-0.28000
7891664;-0.27000
7894442;-0.27500
7897220;-0.28000
7899998;-0.30500
7902776;-0.30500
7905553;-0.29000
7908331;-0.28500
7911109;-0.28000
7913887;-0.29500
7916664;-0.31000
7919442;-0.30500
7922220;-0.29000
7924998;-0.28500
7927776;-0.27500
7930553;-0.28000
7933331;-0.29000
7936109;-0.29000
7938887;-0.29000
7941664;-0.28000
7944442;-0.30000
7947220;-0.29500
7949998;-0.31000
7952776;-0.30500
7955553;-0.29500
7958331;-0.29000
7961109;-0.28000
7963887;-0.30000
7966664;-0.30000
7969442;-0.29500
7972220;-0.29000
7974998;-0.27500
7977776;-0.27500
7980553;-0.27000
7983331;-0.27500
7986109;-0.25500
7988887;-0.24500
7991664;-0.21500
7994442;-0.21500
7997220;-0.21500
7999998;-0.21500
8002776;-0.21000
8005553;-0.20000
8008331;-0.18000
8011109;-0.17500
8013887;-0.18500
8016664;-0.19000
8019442;-0.19500
8022220;-0.19500
8024998;-0.19500
8027776;-0.19500
8030553;-0.21000
8033331;-0.22500
8036109;-0.23000
8038887;-0.21500
8041664;-0.20000
8044442;-0.20500
8047220;-0.22500
8049998;-0.23000
8052776;-0.22000
8055553;-0.16500
8058331;-0.15000
8061109;-0.15000
8063887;-0.17000
8066664;-0.20000
8069442;-0.21500
8072220;-0.22500
8074998;-0.23000
8077776;-0.25000
8080553;-0.27000
8083331;-0.27500
8086109;-0.29500
8088887;-0.30000
8091664;-0.31000
8094442;-0.32000
8097220;-0.31500
8099998;-0.33000
8102776;-0.32000
8105553;-0.31500
8108331;-0.31500
8111109;-0.30500
8113887;-0.30500
8116664;-0.32000
8119442;-0.33000
8122220;-0.33000
8124998;-0.31500
8127776;-0.31500
8130553;-0.32500
8133331;-0.33000
8136109;-0.32500
8138887;-0.31500
8141664;-0.29500
8144442;-0.30500
8147220;-0.31000
8149998;-0.32500
8152775;-0.34000
8155553;-0.33500
8158331;-0.35000
8161109;-0.40500
8163887;-0.45000
8166664;-0.47000
8169442;-0.49500
8172220;-0.53000
8174998;-0.53000
8177775;-0.49500
8180553;-0.40000
8183331;-0.26000
8186109;-0.07000
8188887;0.12500
8191664;0.38000
8194442;0.66000
8197220;0.88000
8199998;1.02000
8202775;1.07500
8205553;0.97500
8208331;0.69500
8211109;0.24500
8213887;-0.16500
8216664;-0.40500
8219442;-0.47500
8222220;-0.44500
8224998;-0.41000
8227775;-0.37500
8230553;-0.34000
8233331;-0.34500
8236109;-0.34000
8238887;-0.34500
8241664;-0.34000
8244442;-0.34500
8247220;-0.34500
8249998;-0.36000
8252775;-0.34500
8255553;-0.35500
8258331;-0.35000
8261109;-0.36000
8263887;-0.36500
8266664;-0.38000
8269442;-0.37000
8272220;-0.37500
8274998;-0.36500
8277775;-0.38000
8280553;-0.37500
8283331;-0.37500
8286109;-0.37500
8288887;-0.37000
8291664;-0.36000
8294442;-0.36500
8297220;-0.37500
8299998;-0.38500
8302775;-0.38000
8305553;-0.37500
8308331;-0.37000
8311109;-0.37500
8313887;-0.37500
8316664;-0.37500
8319442;-0.38000
8322220;-0.36000
8324998;-0.35000
8327775;-0.34500
8330553;-0.36000
8333331;-0.37500
8336109;-0.39000
8338887;-0.37000
8341664;-0.36500
8344442;-0.35500
8347220;-0.36500
8349998;-0.39000
8352775;-0.37500
8355553;-0.37000
8358331;-0.36500
8361109;-0.37000
8363887;-0.37000
8366664;-0.38000
8369442;-0.38000
8372220;-0.37000
8374998;-0.35500
8377775;-0.35500
8380553;-0.37000
8383331;-0.38000
8386109;-0.37500
8388887;-0.37000
8391664;-0.36000
8394442;-0.34500
8397220;-0.36500
8399998;-0.36500
8402775;-0.36000
8405553;-0.35000
8408331;-0.35500
8411109;-0.36500
8413887;-0.38000
8416664;-0.38500
8419442;-0.38500
8422220;-0.37500
8424998;-0.36000
8427775;-0.36000
8430553;-0.37000
8433331;-0.38500
8436109;-0.38000
8438887;-0.37500
8441664;-0.36500
8444442;-0.37000
8447220;-0.39000
8449998;-0.40500
8452775;-0.41000
8455553;-0.40000
8458331;-0.39000
8461109;-0.38500
8463887;-0.39500
8466664;-0.39500
8469442;-0.39500
8472220;-0.39000
8474998;-0.38000
8477775;-0.38500
8480553;-0.39000
8483331;-0.40000
8486109;-0.40500
8488887;-0.39500
8491664;-0.38500
8494442;-0.39500
8497220;-0.39000
8499998;-0.39000
8502775;-0.38500
8505553;-0.37500
8508331;-0.35000
8511109;-0.34000
8513887;-0.34000
8516664;-0.35000
8519442;-0.34000
8522220;-0.31500
8524998;-0.29500
8527775;-0.29000
8530553;-0.28500
8533331;-0.29000
8536109;-0.29000
8538886;-0.27500
8541664;-0.26000
8544442;-0.26500
8547220;-0.28000
8549998;-0.29000
8552775;-0.27500
8555553;-0.27500
8558331;-0.25500
8561109;-0.26000
8563886;-0.27000
8566664;-0.28000
8569442;-0.28500
8572220;-0.26500
8574998;-0.26000
8577775;-0.26500
8580553;-0.28000
8583331;-0.28500
8586109;-0.28000
8588886;-0.28500
8591664;-0.28500
8594442;-0.28500
8597220;-0.29500
8599998;-0.30500
8602775;-0.32000
8605553;-0.30500
8608331;-0.28000
8611109;-0.28000
8613886;-0.30000
8616664;-0.30000
8619442;-0.31000
8622220;-0.31500
8624998;-0.30500
8627775;-0.30500
8630553;-0.31000
8633331;-0.33000
8636109;-0.33000
8638886;-0.32000
8641664;-0.32000
8644442;-0.31500
8647220;-0.33000
8649998;-0.34500
8652775;-0.34000
8655553;-0.34000
8658331;-0.32000
8661109;-0.32500
8663886;-0.33500
8666664;-0.34000
8669442;-0.34000
8672220;-0.32500
8674998;-0.31000
8677775;-0.32500
8680553;-0.34500
8683331;-0.35000
8686109;-0.34500
8688886;-0.34000
8691664;-0.33500
8694442;-0.34500
8697220;-0.36000
8699998;-0.37500
8702775;-0.36500
8705553;-0.34500
8708331;-0.33500
8711109;-0.33500
8713886;-0.34500
8716664;-0.36500
8719442;-0.35000
8722220;-0.34000
8724998;-0.34000
8727775;-0.34500
8730553;-0.35500
8733331;-0.38500
8736109;-0.38000
8738886;-0.36000
8741664;-0.34500
8744442;-0.35000
8747220;-0.36000
8749998;-0.36000
8752775;-0.36000
8755553;-0.35000
8758331;-0.34500
8761109;-0.34500
8763886;-0.34500
8766664;-0.35500
8769442;-0.35000
8772220;-0.35000
8774998;-0.33500
8777775;-0.34500
8780553;-0.34500
8783331;-0.34000
8786109;-0.32000
8788886;-0.29500
8791664;-0.28500
8794442;-0.30000
8797220;-0.30500
8799998;-0.30000
8802775;-0.29000
8805553;-0.28000
8808331;-0.25000
8811109;-0.24500
8813886;-0.25500
8816664;-0.24500
8819442;-0.24000
8822220;-0.22000
8824998;-0.21500
8827775;-0.22500
8830553;-0.24000
8833331;-0.25000
8836109;-0.24500
8838886;-0.23000
8841664;-0.22000
8844442;-0.22500
8847220;-0.24000
8849998;-0.27500
8852775;-0.29500
8855553;-0.29000
8858331;-0.27500
8861109;-0.26000
8863886;-0.24000
8866664;-0.25000
8869442;-0.24500
8872220;-0.25500
8874998;-0.27000
8877775;-0.28500
8880553;-0.32500
8883331;-0.34000
8886109;-0.34000
8888886;-0.34500
8891664;-0.34000
8894442;-0.34500
8897220;-0.35000
8899998;-0.37500
8902775;-0.38500
8905553;-0.36500
8908331;-0.35500
8911109;-0.35000
8913886;-0.36000
8916664;-0.37500
8919442;-0.38500
8922220;-0.37500
8924998;-0.36500
8927775;-0.36000
8930553;-0.38000
8933331;-0.37500
8936109;-0.37500
8938886;-0.36500
8941664;-0.35500
8944442;-0.37000
8947220;-0.37500
8949997;-0.39000
8952775;-0.39000
8955553;-0.40500
8958331;-0.38500
8961109;-0.39500
8963886;-0.40500
8966664;-0.43500
8969442;-0.47000
8972220;-0.48000
8974997;-0.50000
8977775;-0.52500
8980553;-0.59000
8983331;-0.63000
8986109;-0.63000
8988886;-0.55500
8991664;-0.47000
8994442;-0.36500
8997220;-0.26000
8999997;-0.15000
9002775;0.02000
9005553;0.26500
9008331;0.52500
9011109;0.74000
9013886;0.90500
9016664;0.96000
9019442;0.84500
9022220;0.56000
9024997;0.16500
9027775;-0.18500
9030553;-0.39500
9033331;-0.48000
9036109;-0.48500
9038886;-0.46000
9041664;-0.43500
9044442;-0.42000
9047220;-0.42000
9049997;-0.42500
9052775;-0.41500
9055553;-0.41000
9058331;-0.41500
9061109;-0.42500
9063886;-0.42500
9066664;-0.44000
9069442;-0.42000
9072220;-0.41000
9074997;-0.40000
9077775;-0.40000
9080553;-0.40000
9083331;-0.41500
9086109;-0.41000
9088886;-0.39000
9091664;-0.39000
9094442;-0.39000
9097220;-0.39500
9099997;-0.41000
9102775;-0.42000
9105553;-0.42000
9108331;-0.41000
9111109;-0.41500
9113886;-0.41500
9116664;-0.42000
9119442;-0.42500
9122220;-0.42500
9124997;-0.42000
9127775;-0.41500
9130553;-0.42000
9133331;-0.43000
9136109;-0.42500
9138886;-0.41000
9141664;-0.40000
9144442;-0.40000
9147220;-0.41500
9149997;-0.43000
9152775;-0.43000
9155553;-0.41000
9158331;-0.41500
9161109;-0.40000
9163886;-0.40000
9166664;-0.41000
9169442;-0.42000
9172220;-0.41500
9174997;-0.41000
9177775;-0.40500
9180553;-0.42000
9183331;-0.42500
9186109;-0.42500
9188886;-0.42000
9191664;-0.41500
9194442;-0.42000
9197220;-0.42500
9199997;-0.43500
9202775;-0.43500
9205553;-0.44500
9208331;-0.43000
9211109;-0.42500
9213886;-0.42500
9216664;-0.43500
9219442;-0.42500
9222220;-0.41000
9224997;-0.40500
9227775;-0.42000
9230553;-0.42000
9233331;-0.44000
9236109;-0.44500
9238886;-0.42500
9241664;-0.41000
9244442;-0.41500
9247220;-0.43000
9249997;-0.44500
9252775;-0.46000
9255553;-0.44000
9258331;-0.43000
9261109;-0.43500
9263886;-0.44500
9266664;-0.45000
9269442;-0.45500
9272220;-0.47000
9274997;-0.46000
9277775;-0.47000
9280553;-0.47500
9283331;-0.49000
9286109;-0.49000
9288886;-0.48500
9291664;-0.47000
9294442;-0.48000
9297220;-0.49500
9299997;-0.49500
9302775;-0.47500
9305553;-0.47500
9308331;-0.47500
9311109;-0.46000
9313886;-0.46500
9316664;-0.45000
9319442;-0.43500
9322220;-0.42000
9324997;-0.39500
9327775;-0.39500
9330553;-0.39500
9333331;-0.39000
9336108;-0.40000
9338886;-0.36500
9341664;-0.34500
9344442;-0.33500
9347220;-0.33000
9349997;-0.33000
9352775;-0.33000
9355553;-0.31000
9358331;-0.30000
9361108;-0.30500
9363886;-0.29500
9366664;-0.30000
9369442;-0.30500
9372220;-0.29500
9374997;-0.28500
9377775;-0.29000
9380553;-0.29500
9383331;-0.32000
9386108;-0.31000
9388886;-0.30500
9391664;-0.29000
9394442;-0.31000
9397220;-0.31000
9399997;-0.31500
9402775;-0.31500
9405553;-0.29500
9408331;-0.29500
9411108;-0.30000
9413886;-0.30500
9416664;-0.31000
9419442;-0.32000
9422220;-0.30500
9424997;-0.30500
9427775;-0.30000
9430553;-0.31000
9433331;-0.32000
9436108;-0.32500
9438886;-0.31500
9441664;-0.31500
9444442;-0.31500
9447220;-0.32500
9449997;-0.34000
9452775;-0.35000
9455553;-0.33000
9458331;-0.33000
9461108;-0.33000
9463886;-0.34000
9466664;-0.33500
9469442;-0.34500
9472220;-0.34500
9474997;-0.33500
9477775;-0.33000
9480553;-0.33500
9483331;-0.36000
9486108;-0.37000
9488886;-0.36500
9491664;-0.35500
9494442;-0.38000
9497220;-0.38500
9499997;-0.41500
9502775;-0.44000
9505553;-0.45000
9508331;-0.47500
9511108;-0.50500
9513886;-0.51000
9516664;-0.55000
9519442;-0.62500
9522220;-0.79500
9524997;-1.05500
9527775;-1.35000
9530553;-1.68500
9533331;-1.99000
9536108;-2.21500
9538886;-2.39000
9541664;-2.52500
9544442;-2.62000
9547220;-2.69500
9549997;-2.71500
9552775;-2.69000
9555553;-2.62500
9558331;-2.53500
9561108;-2.42000
9563886;-2.26000
9566664;-2.05000
9569442;-1.80500
9572220;-1.58000
9574997;-1.35500
9577775;-1.15000
9580553;-0.93500
9583331;-0.74500
9586108;-0.58000
9588886;-0.43500
9591664;-0.33000
9594442;-0.27000
9597220;-0.24500
9599997;-0.23000
9602775;-0.20500
9605553;-0.15500
9608331;-0.11000
9611108;-0.06500
9613886;-0.06000
9616664;-0.04500
9619442;-0.03500
9622220;-0.00500
9624997;0.02000
9627775;0.04000
9630553;0.05000
9633331;0.06500
9636108;0.08500
9638886;0.12000
9641664;0.14000
9644442;0.14500
9647220;0.14500
9649997;0.13000
9652775;0.13000
9655553;0.14500
9658331;0.16500
9661108;0.17500
9663886;0.19000
9666664;0.20000
9669442;0.21500
9672220;0.23000
9674997;0.25000
9677775;0.26500
9680553;0.29000
9683331;0.29000
9686108;0.27500
9688886;0.26000
9691664;0.26500
9694442;0.25500
9697220;0.25500
9699997;0.24500
9702775;0.24000
9705553;0.26000
9708331;0.27000
9711108;0.28000
9713886;0.28500
9716664;0.27500
9719442;0.29500
9722220;0.32500
9724997;0.34500
9727775;0.36000
9730553;0.37000
9733331;0.38000
9736108;0.39500
9738886;0.41500
9741664;0.45000
9744442;0.48000
9747219;0.48500
9749997;0.50500
9752775;0.54500
9755553;0.58500
9758331;0.61000
9761108;0.64500
9763886;0.66000
9766664;0.68000
9769442;0.71000
9772219;0.74000
9774997;0.78000
9777775;0.81000
9780553;0.83000
9783331;0.83000
9786108;0.87000
9788886;0.88500
9791664;0.93000
9794442;0.94000
9797219;0.93500
9799997;0.93500
9802775;0.93500
9805553;0.95000
9808331;0.96000
9811108;0.95500
9813886;0.95500
9816664;0.94500
9819442;0.94500
9822219;0.96000
9824997;0.94500
9827775;0.93500
9830553;0.90500
9833331;0.86000
9836108;0.82000
9838886;0.78500
9841664;0.75500
9844442;0.70500
9847219;0.65500
9849997;0.58500
9852775;0.53500
9855553;0.47500
9858331;0.42000
9861108;0.37000
9863886;0.30000
9866664;0.25000
9869442;0.19000
9872219;0.14500
9874997;0.10000
9877775;0.05500
9880553;0.02000
9883331;-0.02000
9886108;-0.04500
9888886;-0.07000
9891664;-0.08000
9894442;-0.11500
9897219;-0.14000
9899997;-0.17500
9902775;-0.18500
9905553;-0.20000
9908331;-0.21000
9911108;-0.22500
9913886;-0.23500
9916664;-0.25500
9919442;-0.26000
9922219;-0.26500
9924997;-0.25000
9927775;-0.26000
9930553;-0.27500
9933331;-0.28500
9936108;-0.26500
9938886;-0.27000
9941664;-0.26500
9944442;-0.26500
9947219;-0.27000
9949997;-0.28000
9952775;-0.27500
9955553;-0.27500
9958331;-0.26000
9961108;-0.26000
9963886;-0.27500
9966664;-0.28000
9969442;-0.28000
9972219;-0.28000
9974997;-0.26500
9977775;-0.27000
9980553;-0.28000
9983331;-0.29500
9986108;-0.28000
9988886;-0.28500
9991664;-0.28500
9994442;-0.28500
9997219;-0.28500
9999997;-0.29500
10002775;-0.29500
10005553;-0.29500
10008331;-0.28000
10011108;-0.29000
10013886;-0.30000
10016664;-0.31500
10019442;-0.32000
10022219;-0.31000
10024997;-0.29500
10027775;-0.30500
10030553;-0.31500
10033331;-0.32500
10036108;-0.32000
10038886;-0.31500
10041664;-0.30500
10044442;-0.31000
10047219;-0.32000
10049997;-0.33500
10052775;-0.33000
10055553;-0.31500
10058331;-0.31500
10061108;-0.33000
10063886;-0.34000
10066664;-0.35000
10069442;-0.35500
10072219;-0.33500
10074997;-0.33000
10077775;-0.34000
10080553;-0.35000
10083331;-0.36500
10086108;-0.36000
10088886;-0.35000
10091664;-0.34000
10094442;-0.35000
10097219;-0.35500
10099997;-0.36000
10102775;-0.36500
10105553;-0.35500
10108331;-0.34000
10111108;-0.34000
10113886;-0.34500
10116664;-0.34500
10119442;-0.35500
10122219;-0.34000
10124997;-0.33000
10127775;-0.33500
10130553;-0.35000
10133330;-0.36000
10136108;-0.35000
10138886;-0.34000
10141664;-0.34000
10144442;-0.34000
10147219;-0.36000
10149997;-0.36500
10152775;-0.36500
10155553;-0.35500
10158330;-0.35500
10161108;-0.36000
10163886;-0.36500
10166664;-0.37500
10169442;-0.38500
10172219;-0.36000
10174997;-0.35000
10177775;-0.37000
10180553;-0.36000
10183330;-0.37000
10186108;-0.37000
10188886;-0.36000
10191664;-0.34500
10194442;-0.35500
10197219;-0.36000
10199997;-0.36000
10202775;-0.36500
10205553;-0.35500
10208330;-0.35500
10211108;-0.35500
10213886;-0.36000
10216664;-0.37000
10219442;-0.38000
10222219;-0.37000
10224997;-0.35500
10227775;-0.36500
10230553;-0.37000
10233330;-0.37500
10236108;-0.37500
10238886;-0.36500
10241664;-0.36000
10244442;-0.36500
10247219;-0.37000
10249997;-0.37500
10252775;-0.37000
10255553;-0.36500
10258330;-0.35000
10261108;-0.35500
10263886;-0.36000
10266664;-0.36000
10269442;-0.37000
10272219;-0.36000
10274997;-0.34500
10277775;-0.35500
10280553;-0.36000
10283330;-0.38500
10286108;-0.36500
10288886;-0.35500
10291664;-0.35500
10294442;-0.36000
10297219;-0.36500
10299997;-0.36500
10302775;-0.37000
10305553;-0.36500
10308330;-0.34500
10311108;-0.35000
10313886;-0.37000
10316664;-0.37000
10319442;-0.36500
10322219;-0.37500
10324997;-0.36000
10327775;-0.36500
10330553;-0.37000
10333330;-0.37000
10336108;-0.38000
10338886;-0.35500
10341664;-0.35000
10344442;-0.35000
10347219;-0.37000
10349997;-0.36500
10352775;-0.37500
10355553;-0.36000
10358330;-0.36000
10361108;-0.37000
10363886;-0.37000
10366664;-0.38000
10369442;-0.37000
10372219;-0.36500
10374997;-0.36000
10377775;-0.35500
10380553;-0.36500
10383330;-0.36500
10386108;-0.37000
10388886;-0.36500
10391664;-0.35000
10394442;-0.35500
10397219;-0.35500
10399997;-0.36500
10402775;-0.36500
10405553;-0.35500
10408330;-0.34500
10411108;-0.34500
10413886;-0.35000
10416664;-0.35000
10419442;-0.36000
10422219;-0.35000
10424997;-0.35000
10427775;-0.35000
10430553;-0.35500
10433330;-0.37000
10436108;-0.37500
10438886;-0.36000
10441664;-0.35000
10444442;-0.35000
10447219;-0.35000
10449997;-0.36500
10452775;-0.36500
10455553;-0.35000
10458330;-0.33500
10461108;-0.34000
10463886;-0.34000
10466664;-0.35000
10469442;-0.34500
10472219;-0.31000
10474997;-0.30000
10477775;-0.28500
10480553;-0.30000
10483330;-0.30000
10486108;-0.30000
10488886;-0.28500
10491664;-0.27000
10494442;-0.26500
10497219;-0.26500
10499997;-0.25000
10502775;-0.25500
10505553;-0.24000
10508330;-0.24000
10511108;-0.24500
10513886;-0.25000
10516664;-0.26000
10519441;-0.26500
10522219;-0.27500
10524997;-0.27000
10527775;-0.26500
10530553;-0.27000
10533330;-0.28500
10536108;-0.29500
10538886;-0.27500
10541664;-0.25000
10544441;-0.23500
10547219;-0.25500
10549997;-0.29000
10552775;-0.31000
10555553;-0.31500
10558330;-0.31000
10561108;-0.33000
10563886;-0.34500
10566664;-0.36000
10569441;-0.37000
10572219;-0.37000
10574997;-0.36000
10577775;-0.37000
10580553;-0.37000
10583330;-0.37000
10586108;-0.37000
10588886;-0.36500
10591664;-0.36000
10594441;-0.37500
10597219;-0.37500
10599997;-0.39500
10602775;-0.40000
10605553;-0.38000
10608330;-0.37500
10611108;-0.37500
10613886;-0.39500
10616664;-0.39500
10619441;-0.39500
10622219;-0.38500
10624997;-0.38500
10627775;-0.38500
10630553;-0.39500
10633330;-0.40500
10636108;-0.40500
10638886;-0.42000
10641664;-0.44500
10644441;-0.49000
10647219;-0.52000
10649997;-0.53500
10652775;-0.57500
10655553;-0.58000
10658330;-0.55500
10661108;-0.44000
10663886;-0.30000
10666664;-0.10500
10669441;0.09000
10672219;0.33000
10674997;0.61500
10677775;0.86500
10680553;1.05500
10683330;1.11000
10686108;1.02500
10688886;0.72500
10691664;0.26000
10694441;-0.20000
10697219;-0.46500
10699997;-0.52000
10702775;-0.45500
10705553;-0.40500
10708330;-0.36000
10711108;-0.38000
10713886;-0.40000
10716664;-0.40500
10719441;-0.41000
10722219;-0.40500
10724997;-0.39500
10727775;-0.41000
10730553;-0.42000
10733330;-0.42000
10736108;-0.42500
10738886;-0.42500
10741664;-0.42000
10744441;-0.41500
10747219;-0.41500
10749997;-0.42500
10752775;-0.42000
10755553;-0.41000
10758330;-0.40500
10761108;-0.42000
10763886;-0.41500
10766664;-0.42500
10769441;-0.43000
10772219;-0.42000
10774997;-0.42500
10777775;-0.40500
10780553;-0.42500
10783330;-0.42500
10786108;-0.43500
10788886;-0.41500
10791664;-0.40500
10794441;-0.40500
10797219;-0.41000
10799997;-0.41000
10802775;-0.41500
10805553;-0.40500
10808330;-0.39000
10811108;-0.39000
10813886;-0.39000
10816664;-0.40500
10819441;-0.41000
10822219;-0.39500
10824997;-0.39000
10827775;-0.40000
10830553;-0.40500
10833330;-0.41000
10836108;-0.41000
10838886;-0.40000
10841664;-0.38000
10844441;-0.37500
10847219;-0.39000
10849997;-0.40500
10852775;-0.40500
10855553;-0.38500
10858330;-0.37500
10861108;-0.38500
10863886;-0.39500
10866664;-0.40000
10869441;-0.40500
10872219;-0.39500
10874997;-0.40000
10877775;-0.41000
10880553;-0.40000
10883330;-0.41000
10886108;-0.40000
10888886;-0.39000
10891664;-0.39000
10894441;-0.39000
10897219;-0.40500
10899997;-0.40000
10902775;-0.41500
10905553;-0.40500
10908330;-0.39500
10911108;-0.40500
10913886;-0.41000
10916664;-0.41000
10919441;-0.41500
10922219;-0.41000
10924997;-0.39500
10927775;-0.39500
10930552;-0.41000
10933330;-0.42000
10936108;-0.42000
10938886;-0.42000
10941664;-0.40500
10944441;-0.41500
10947219;-0.43000
10949997;-0.44000
10952775;-0.43500
10955552;-0.43000
10958330;-0.43000
10961108;-0.41000
10963886;-0.41500
10966664;-0.41000
10969441;-0.41000
10972219;-0.40000
10974997;-0.39500
10977775;-0.39000
10980552;-0.38500
10983330;-0.40500
10986108;-0.37500
10988886;-0.36000
10991664;-0.33500
10994441;-0.32500
10997219;-0.32000
10999997;-0.32000
11002775;-0.30500
11005552;-0.27500
11008330;-0.26500
11011108;-0.26500
11013886;-0.25500
11016664;-0.27500
11019441;-0.26000
11022219;-0.25500
11024997;-0.24500
11027775;-0.24500
11030552;-0.25500
11033330;-0.25000
11036108;-0.25500
11038886;-0.25000
11041664;-0.23000
11044441;-0.23000
11047219;-0.24000
11049997;-0.25000
11052775;-0.24000
11055552;-0.23500
11058330;-0.23000
11061108;-0.23000
11063886;-0.23000
11066664;-0.23000
11069441;-0.23000
11072219;-0.23000
11074997;-0.22500
11077775;-0.22500
11080552;-0.23000
11083330;-0.25000
11086108;-0.25000
11088886;-0.25000
11091664;-0.24000
11094441;-0.24500
11097219;-0.26500
11099997;-0.26000
11102775;-0.26500
11105552;-0.26500
11108330;-0.25500
11111108;-0.26500
11113886;-0.27500
11116664;-0.28000
11119441;-0.29500
11122219;-0.27500
11124997;-0.28000
11127775;-0.28500
11130552;-0.29500
11133330;-0.29500
11136108;-0.29500
11138886;-0.29500
11141664;-0.28500
11144441;-0.28500
11147219;-0.29000
11149997;-0.29000
11152775;-0.28000
11155552;-0.28000
11158330;-0.27500
11161108;-0.27500
11163886;-0.30000
11166664;-0.32000
11169441;-0.32500
11172219;-0.31000
11174997;-0.31000
11177775;-0.31500
11180552;-0.32000
11183330;-0.32500
11186108;-0.32000
11188886;-0.31500
11191664;-0.29500
11194441;-0.30500
11197219;-0.30500
11199997;-0.32000
11202775;-0.32000
11205552;-0.31000
11208330;-0.30000
11211108;-0.29500
11213886;-0.30000
11216664;-0.31000
11219441;-0.31000
11222219;-0.31000
11224997;-0.30500
11227775;-0.30500
11230552;-0.30000
11233330;-0.32500
11236108;-0.31500
11238886;-0.31500
11241664;-0.30000
11244441;-0.30000
11247219;-0.30500
11249997;-0.31000
11252775;-0.29500
11255552;-0.28500
11258330;-0.27000
11261108;-0.26500
11263886;-0.25500
11266664;-0.25000
11269441;-0.24500
11272219;-0.23000
11274997;-0.22000
11277775;-0.21500
11280552;-0.19500
11283330;-0.20500
11286108;-0.20000
11288886;-0.19000
11291664;-0.18000
11294441;-0.18500
11297219;-0.19000
11299997;-0.20500
11302775;-0.22000
11305552;-0.22000
11308330;-0.21500
11311108;-0.21500
11313886;-0.21500
11316663;-0.22500
11319441;-0.23000
11322219;-0.23000
11324997;-0.19500
11327775;-0.18000
11330552;-0.16500
11333330;-0.16000
11336108;-0.18500
11338886;-0.20000
11341663;-0.21500
11344441;-0.23000
11347219;-0.26500
11349997;-0.28500
11352775;-0.29000
11355552;-0.30000
11358330;-0.29500
11361108;-0.29500
11363886;-0.30500
11366663;-0.30500
11369441;-0.31500
11372219;-0.30000
11374997;-0.29000
11377775;-0.30500
11380552;-0.31500
11383330;-0.33000
11386108;-0.33500
11388886;-0.33000
11391663;-0.33000
11394441;-0.33000
11397219;-0.32500
11399997;-0.34000
11402775;-0.34500
11405552;-0.33500
11408330;-0.31500
11411108;-0.32500
11413886;-0.32500
11416663;-0.34000
11419441;-0.35500
11422219;-0.38500
11424997;-0.41000
11427775;-0.45000
11430552;-0.49000
11433330;-0.54500
11436108;-0.58000
11438886;-0.55000
11441663;-0.44500
11444441;-0.30500
11447219;-0.17500
11449997;-0.03000
11452775;0.14500
11455552;0.37000
11458330;0.62000
11461108;0.83500
11463886;0.98000
11466663;1.06500
11469441;1.11000
11472219;1.03500
11474997;0.76500
11477775;0.28500
11480552;-0.16500
11483330;-0.40000
11486108;-0.43000
11488886;-0.37500
11491663;-0.31000
11494441;-0.30000
11497219;-0.32000
11499997;-0.33500
11502775;-0.34000
11505552;-0.33000
11508330;-0.31500
11511108;-0.33500
11513886;-0.35000
11516663;-0.36000
11519441;-0.36000
11522219;-0.35500
11524997;-0.35000
11527775;-0.35000
11530552;-0.35000
11533330;-0.36000
11536108;-0.35500
11538886;-0.34500
11541663;-0.33000
11544441;-0.34500
11547219;-0.35000
11549997;-0.34000
11552775;-0.35000
11555552;-0.34000
11558330;-0.32500
11561108;-0.33000
11563886;-0.33000
11566663;-0.34000
11569441;-0.34500
11572219;-0.35000
11574997;-0.34500
11577775;-0.34500
11580552;-0.35500
11583330;-0.36000
11586108;-0.37000
11588886;-0.36500
11591663;-0.34000
11594441;-0.34500
11597219;-0.35000
11599997;-0.36000
11602775;-0.35000
11605552;-0.34500
11608330;-0.33500
11611108;-0.34000
11613886;-0.33000
11616663;-0.34500
11619441;-0.35500
11622219;-0.35000
11624997;-0.34500
11627775;-0.35000
11630552;-0.33500
11633330;-0.35500
11636108;-0.35500
11638886;-0.34500
11641663;-0.34000
11644441;-0.34500
11647219;-0.35000
11649997;-0.36500
11652775;-0.35500
11655552;-0.33500
11658330;-0.34500
11661108;-0.34500
11663886;-0.35500
11666663;-0.37000
11669441;-0.36500
11672219;-0.35000
11674997;-0.34000
11677775;-0.33500
11680552;-0.34500
11683330;-0.35500
11686108;-0.35500
11688886;-0.35000
11691663;-0.34000
11694441;-0.33500
11697219;-0.35500
11699997;-0.36000
11702775;-0.36500
11705552;-0.35500
11708330;-0.35500
11711108;-0.36000
11713886;-0.37500
11716663;-0.39500
11719441;-0.39500
11722219;-0.37500
11724997;-0.37000
11727774;-0.36500
11730552;-0.36000
11733330;-0.38000
11736108;-0.38000
11738886;-0.36500
11741663;-0.35000
11744441;-0.36500
11747219;-0.35500
11749997;-0.35500
11752774;-0.34000
11755552;-0.32000
11758330;-0.30000
11761108;-0.30000
11763886;-0.28500
11766663;-0.29000
11769441;-0.29000
11772219;-0.26000
11774997;-0.25500
11777774;-0.27000
11780552;-0.26000
11783330;-0.26500
11786108;-0.26000
11788886;-0.24500
11791663;-0.24500
11794441;-0.24000
11797219;-0.26000
11799997;-0.25500
11802774;-0.26000
11805552;-0.26000
11808330;-0.25000
11811108;-0.24500
11813886;-0.25000
11816663;-0.25000
11819441;-0.25000
11822219;-0.25000
11824997;-0.24000
11827774;-0.24500
11830552;-0.24500
11833330;-0.25500
11836108;-0.26000
11838886;-0.24500
11841663;-0.25500
11844441;-0.25000
11847219;-0.26500
11849997;-0.27000
11852774;-0.27000
11855552;-0.26500
11858330;-0.26000
11861108;-0.27000
11863886;-0.29000
11866663;-0.28500
11869441;-0.28500
11872219;-0.27500
11874997;-0.27500
11877774;-0.28000
11880552;-0.29500
11883330;-0.31500
11886108;-0.30000
11888886;-0.29000
11891663;-0.28500
11894441;-0.29500
11897219;-0.31000
11899997;-0.33000
11902774;-0.33500
11905552;-0.31500
11908330;-0.30500
11911108;-0.30500
11913886;-0.30000
11916663;-0.30500
11919441;-0.32000
11922219;-0.31500
11924997;-0.30500
11927774;-0.31500
11930552;-0.32500
11933330;-0.32000
11936108;-0.33500
11938886;-0.33500
11941663;-0.34000
11944441;-0.33500
11947219;-0.34000
11949997;-0.34000
11952774;-0.33500
11955552;-0.33000
11958330;-0.33000
11961108;-0.33500
11963886;-0.33500
11966663;-0.35000
11969441;-0.35000
11972219;-0.34000
11974997;-0.32000
11977774;-0.33500
11980552;-0.33500
11983330;-0.33500
11986108;-0.34000
11988886;-0.32500
11991663;-0.31500
11994441;-0.32500
11997219;-0.32500
11999997;-0.32500
12002774;-0.34500
12005552;-0.32000
12008330;-0.30500
12011108;-0.30500
12013886;-0.33000
12016663;-0.33000
12019441;-0.33000
12022219;-0.32000
12024997;-0.31000
12027774;-0.31000
12030552;-0.31500
12033330;-0.29500
12036108;-0.29500
12038886;-0.28000
12041663;-0.26000
12044441;-0.26000
12047219;-0.27500
12049997;-0.27000
12052774;-0.26000
12055552;-0.23000
12058330;-0.21500
12061108;-0.21500
12063886;-0.22000
12066663;-0.22500
12069441;-0.24000
12072219;-0.23500
12074997;-0.24500
12077774;-0.25000
12080552;-0.26000
12083330;-0.27000
12086108;-0.27000
12088886;-0.25500
12091663;-0.26500
12094441;-0.25500
12097219;-0.24000
12099997;-0.23000
12102774;-0.25500
12105552;-0.27500
12108330;-0.28500
12111108;-0.30500
12113885;-0.33500
12116663;-0.36000
12119441;-0.37000
12122219;-0.36000
12124997;-0.34500
12127774;-0.34000
12130552;-0.34000
12133330;-0.36000
12136108;-0.36000
12138885;-0.35500
12141663;-0.35500
12144441;-0.36000
12147219;-0.36500
12149997;-0.38500
12152774;-0.39000
12155552;-0.39500
12158330;-0.38000
12161108;-0.39500
12163885;-0.39000
12166663;-0.40500
12169441;-0.41000
12172219;-0.39500
12174997;-0.38000
12177774;-0.37500
12180552;-0.38000
12183330;-0.38500
12186108;-0.39500
12188885;-0.40000
12191663;-0.41500
12194441;-0.44000
12197219;-0.47000
12199997;-0.50000
12202774;-0.51500
12205552;-0.56500
12208330;-0.58500
12211108;-0.58000
12213885;-0.51000
12216663;-0.38500
12219441;-0.21000
12222219;-0.02500
12224997;0.24000
12227774;0.50000
12230552;0.74000
12233330;0.86500
12236108;0.82500
12238885;0.56500
12241663;0.17500
12244441;-0.22500
12247219;-0.46500
12249997;-0.54500
12252774;-0.53500
12255552;-0.48500
12258330;-0.44000
12261108;-0.43500
12263885;-0.44000
12266663;-0.43500
12269441;-0.43500
12272219;-0.41500
12274997;-0.39500
12277774;-0.42500
12280552;-0.45000
12283330;-0.46000
12286108;-0.46000
12288885;-0.45500
12291663;-0.42500
12294441;-0.42000
12297219;-0.43000
12299997;-0.44500
12302774;-0.44000
12305552;-0.44000
12308330;-0.42500
12311108;-0.42500
12313885;-0.44000
12316663;-0.46000
12319441;-0.46500
12322219;-0.45000
12324997;-0.44000
12327774;-0.43500
12330552;-0.43500
12333330;-0.44500
12336108;-0.45000
12338885;-0.43000
12341663;-0.42500
12344441;-0.43500
12347219;-0.45000
12349997;-0.46000
12352774;-0.45000
12355552;-0.43500
12358330;-0.43000
12361108;-0.43000
12363885;-0.45000
12366663;-0.46500
12369441;-0.48500
12372219;-0.46500
12374997;-0.46000
12377774;-0.44500
12380552;-0.45500
12383330;-0.45500
12386108;-0.46000
12388885;-0.45000
12391663;-0.45000
12394441;-0.45000
12397219;-0.45000
12399997;-0.46500
12402774;-0.47000
12405552;-0.45000
12408330;-0.44000
12411108;-0.45000
12413885;-0.46500
12416663;-0.47500
12419441;-0.47500
12422219;-0.47500
12424997;-0.45500
12427774;-0.45500
12430552;-0.46000
12433330;-0.47000
12436108;-0.47000
12438885;-0.46500
12441663;-0.44000
12444441;-0.45500
12447219;-0.48500
12449997;-0.49500
12452774;-0.50500
12455552;-0.49500
12458330;-0.48500
12461108;-0.49500
12463885;-0.50000
12466663;-0.51000
12469441;-0.51500
12472219;-0.51000
12474997;-0.50500
12477774;-0.52000
12480552;-0.53500
12483330;-0.54500
12486108;-0.55500
12488885;-0.55000
12491663;-0.54000
12494441;-0.51500
12497219;-0.51500
12499996;-0.52000
12502774;-0.51500
12505552;-0.50500
12508330;-0.49000
12511108;-0.49500
12513885;-0.47500
12516663;-0.47500
12519441;-0.46500
12522219;-0.43000
12524996;-0.42000
12527774;-0.39500
12530552;-0.39500
12533330;-0.40000
12536108;-0.40500
12538885;-0.38500
12541663;-0.36500
12544441;-0.37000
12547219;-0.36500
12549996;-0.37000
12552774;-0.38500
12555552;-0.36000
12558330;-0.36000
12561108;-0.36500
12563885;-0.37500
12566663;-0.38000
12569441;-0.38000
12572219;-0.37500
12574996;-0.37500
12577774;-0.37000
12580552;-0.37500
12583330;-0.38500
12586108;-0.38000
12588885;-0.36000
12591663;-0.36000
12594441;-0.35000
12597219;-0.36000
12599996;-0.36500
12602774;-0.35500
12605552;-0.36000
12608330;-0.36500
12611108;-0.36500
12613885;-0.36500
12616663;-0.38000
12619441;-0.38500
12622219;-0.39000
12624996;-0.38500
12627774;-0.38000
12630552;-0.39000
12633330;-0.38500
12636108;-0.40000
12638885;-0.40000
12641663;-0.40500
12644441;-0.41000
12647219;-0.42500
12649996;-0.43000
12652774;-0.43000
12655552;-0.40500
12658330;-0.40500
12661108;-0.39500
12663885;-0.39500
12666663;-0.41500
12669441;-0.42000
12672219;-0.40500
12674996;-0.39500
12677774;-0.40000
12680552;-0.41000
12683330;-0.42000
12686108;-0.43000
12688885;-0.44500
12691663;-0.42500
12694441;-0.43500
12697219;-0.43500
12699996;-0.44500
12702774;-0.44500
12705552;-0.44000
12708330;-0.43000
12711108;-0.43000
12713885;-0.42500
12716663;-0.45000
12719441;-0.45500
12722219;-0.44000
12724996;-0.43500
12727774;-0.43000
12730552;-0.42500
12733330;-0.45000
12736108;-0.44000
12738885;-0.44000
12741663;-0.40500
12744441;-0.41500
12747219;-0.42000
12749996;-0.43000
12752774;-0.43500
12755552;-0.43500
12758330;-0.43500
12761108;-0.44000
12763885;-0.44500
12766663;-0.43500
12769441;-0.44000
12772219;-0.42000
12774996;-0.41000
12777774;-0.40500
12780552;-0.40000
12783330;-0.40000
12786108;-0.39000
12788885;-0.37500
12791663;-0.37500
12794441;-0.38000
12797219;-0.37500
12799996;-0.37500
12802774;-0.37500
12805552;-0.35000
12808330;-0.34500
12811108;-0.34500
12813885;-0.35500
12816663;-0.34500
12819441;-0.34000
12822219;-0.32000
12824996;-0.32000
12827774;-0.32500
12830552;-0.33000
12833330;-0.33500
12836108;-0.34000
12838885;-0.33500
12841663;-0.32500
12844441;-0.34000
12847219;-0.35500
12849996;-0.36000
12852774;-0.36000
12855552;-0.34000
12858330;-0.32000
12861108;-0.34000
12863885;-0.36500
12866663;-0.39500
12869441;-0.41000
12872219;-0.42000
12874996;-0.42500
12877774;-0.43500
12880552;-0.44500
12883330;-0.46500
12886108;-0.47500
12888885;-0.47000
12891663;-0.44000
12894441;-0.44000
12897219;-0.44500
12899996;-0.44500
12902774;-0.45000
12905552;-0.44000
12908330;-0.42500
12911107;-0.43000
12913885;-0.45000
12916663;-0.46000
12919441;-0.46000
12922219;-0.44500
12924996;-0.44500
12927774;-0.43000
12930552;-0.44000
12933330;-0.45000
12936107;-0.44000
12938885;-0.44000
12941663;-0.42500
12944441;-0.44000
12947219;-0.45000
12949996;-0.45500
12952774;-0.48500
12955552;-0.50500
12958330;-0.53000
12961107;-0.55000
12963885;-0.58500
12966663;-0.61000
12969441;-0.65000
12972219;-0.62000
12974996;-0.51000
12977774;-0.35000
12980552;-0.18500
12983330;0.01500
12986107;0.26500
12988885;0.56000
12991663;0.79000
12994441;0.91500
12997219;0.91500
12999996;0.69000
13002774;0.28000
13005552;-0.13500
13008330;-0.40000
13011107;-0.52500
13013885;-0.56000
13016663;-0.55000
13019441;-0.51500
13022219;-0.48500
13024996;-0.46500
13027774;-0.46500
13030552;-0.46500
13033330;-0.48500
13036107;-0.48500
13038885;-0.47500
13041663;-0.46500
13044441;-0.46500
13047219;-0.47000
13049996;-0.47500
13052774;-0.47500
13055552;-0.47500
13058330;-0.46000
13061107;-0.46500
13063885;-0.47000
13066663;-0.47500
13069441;-0.48000
13072219;-0.47000
13074996;-0.46000
13077774;-0.45000
13080552;-0.46500
13083330;-0.47000
13086107;-0.47000
13088885;-0.46000
13091663;-0.45000
13094441;-0.45000
13097219;-0.46500
13099996;-0.48500
13102774;-0.47500
13105552;-0.47500
13108330;-0.46500
13111107;-0.46000
13113885;-0.47000
13116663;-0.48000
13119441;-0.47500
13122219;-0.46500
13124996;-0.44500
13127774;-0.47000
13130552;-0.47000
13133330;-0.47500
13136107;-0.47000
13138885;-0.46000
13141663;-0.45000
13144441;-0.45000
13147219;-0.45000
13149996;-0.47000
13152774;-0.46000
13155552;-0.45000
13158330;-0.44500
13161107;-0.45000
13163885;-0.45000
13166663;-0.45000
13169441;-0.46000
13172219;-0.45500
13174996;-0.45000
13177774;-0.44500
13180552;-0.45500
13183330;-0.46500
13186107;-0.46000
13188885;-0.44000
13191663;-0.44000
13194441;-0.44500
13197219;-0.45500
13199996;-0.46500
13202774;-0.46500
13205552;-0.46500
13208330;-0.46000
13211107;-0.46000
13213885;-0.46500
13216663;-0.47000
13219441;-0.48000
13222219;-0.45500
13224996;-0.46000
13227774;-0.45500
13230552;-0.46500
13233330;-0.47500
13236107;-0.48000
13238885;-0.48500
13241663;-0.48500
13244441;-0.48500
13247219;-0.50500
13249996;-0.51500
13252774;-0.52500
13255552;-0.52000
13258330;-0.51000
13261107;-0.51000
13263885;-0.51500
13266663;-0.53000
13269441;-0.53000
13272219;-0.51500
13274996;-0.49500
13277774;-0.50500
13280552;-0.50500
13283330;-0.50000
13286107;-0.49000
13288885;-0.48000
13291663;-0.46000
13294441;-0.44000
13297218;-0.43000
13299996;-0.43000
13302774;-0.41000
13305552;-0.40500
13308330;-0.38500
13311107;-0.37000
13313885;-0.37000
13316663;-0.37000
13319441;-0.36500
13322218;-0.35000
13324996;-0.33000
13327774;-0.34500
13330552;-0.34500
13333330;-0.34500
13336107;-0.34000
13338885;-0.33000
13341663;-0.31000
13344441;-0.32500
13347218;-0.33500
13349996;-0.33500
13352774;-0.33000
13355552;-0.32000
13358330;-0.31500
13361107;-0.29500
13363885;-0.31000
13366663;-0.31500
13369441;-0.32500
13372218;-0.30000
13374996;-0.30500
13377774;-0.31000
13380552;-0.32000
13383330;-0.32000
13386107;-0.34000
13388885;-0.31500
13391663;-0.32000
13394441;-0.32500
13397218;-0.35500
13399996;-0.34500
13402774;-0.34500
13405552;-0.34000
13408330;-0.32000
13411107;-0.32500
13413885;-0.33500
13416663;-0.34500
13419441;-0.35500
13422218;-0.33500
13424996;-0.33000
13427774;-0.34500
13430552;-0.33500
13433330;-0.34500
13436107;-0.34500
13438885;-0.35000
13441663;-0.34000
13444441;-0.34000
13447218;-0.34000
13449996;-0.35500
13452774;-0.36000
13455552;-0.35500
13458330;-0.34000
13461107;-0.35500
13463885;-0.36000
13466663;-0.37500
13469441;-0.35500
13472218;-0.35000
13474996;-0.34500
13477774;-0.35500
13480552;-0.35500
13483330;-0.36500
13486107;-0.36000
13488885;-0.36000
13491663;-0.34500
13494441;-0.36000
13497218;-0.35000
13499996;-0.35500
13502774;-0.35500
13505552;-0.35500
13508330;-0.35000
13511107;-0.34500
13513885;-0.35000
13516663;-0.37000
13519441;-0.36000
13522218;-0.35000
13524996;-0.33500
13527774;-0.34500
13530552;-0.35000
13533330;-0.35000
13536107;-0.35500
13538885;-0.34000
13541663;-0.33500
13544441;-0.34500
13547218;-0.35500
13549996;-0.35000
13552774;-0.36500
13555552;-0.35500
13558330;-0.33500
13561107;-0.34000
13563885;-0.34500
13566663;-0.35500
13569441;-0.35500
13572218;-0.34500
13574996;-0.33500
13577774;-0.34000
13580552;-0.33500
13583330;-0.34500
13586107;-0.35000
13588885;-0.32500
13591663;-0.31500
13594441;-0.33000
13597218;-0.32500
13599996;-0.32500
13602774;-0.33500
13605552;-0.32000
13608330;-0.30500
13611107;-0.30500
13613885;-0.29500
13616663;-0.30000
13619441;-0.28500
13622218;-0.27500
13624996;-0.26000
13627774;-0.27500
13630552;-0.26000
13633330;-0.28000
13636107;-0.26500
13638885;-0.24500
13641663;-0.23000
13644441;-0.23000
13647218;-0.22500
13649996;-0.22500
13652774;-0.23000
13655552;-0.24000
13658330;-0.22500
13661107;-0.23500
13663885;-0.24000
13666663;-0.25000
13669441;-0.26000
13672218;-0.24000
13674996;-0.24000
13677774;-0.25000
13680552;-0.26500
13683330;-0.25500
13686107;-0.23500
13688885;-0.21500
13691663;-0.19500
13694441;-0.22500
13697218;-0.27000
13699996;-0.29000
13702774;-0.30000
13705552;-0.30500
13708329;-0.30000
13711107;-0.33000
13713885;-0.32500
13716663;-0.34500
13719441;-0.35500
13722218;-0.35000
13724996;-0.35500
13727774;-0.35000
13730552;-0.34500
13733329;-0.36000
13736107;-0.35500
13738885;-0.35000
13741663;-0.34000
13744441;-0.34500
13747218;-0.36500
13749996;-0.37000
13752774;-0.37000
13755552;-0.35500
13758329;-0.35000
13761107;-0.36000
13763885;-0.36500
13766663;-0.37500
13769441;-0.38500
13772218;-0.37500
13774996;-0.36000
13777774;-0.35500
13780552;-0.37000
13783329;-0.39000
13786107;-0.39000
13788885;-0.40000
13791663;-0.43500
13794441;-0.46500
13797218;-0.50500
13799996;-0.53000
13802774;-0.57000
13805552;-0.56000
13808329;-0.48500
13811107;-0.34000
13813885;-0.17000
13816663;-0.01500
13819441;0.15500
13822218;0.38000
13824996;0.63000
13827774;0.86000
13830552;1.03500
13833329;1.14000
13836107;1.20000
13838885;1.13500
13841663;0.86500
13844441;0.38500
13847218;-0.10000
13849996;-0.40500
13852774;-0.48000
13855552;-0.42500
13858329;-0.36000
13861107;-0.35000
13863885;-0.36500
13866663;-0.37500
13869441;-0.38500
13872218;-0.37000
13874996;-0.37000
13877774;-0.37500
13880552;-0.38500
13883329;-0.39000
13886107;-0.39000
13888885;-0.38500
13891663;-0.38000
13894441;-0.37500
13897218;-0.38000
13899996;-0.39000
13902774;-0.39000
13905552;-0.38000
13908329;-0.37000
13911107;-0.38500
13913885;-0.38500
13916663;-0.40000
13919441;-0.39000
13922218;-0.38500
13924996;-0.37500
13927774;-0.39500
13930552;-0.39500
13933329;-0.39500
13936107;-0.40000
13938885;-0.37500
13941663;-0.37000
13944441;-0.36500
13947218;-0.37500
13949996;-0.38500
13952774;-0.38000
13955552;-0.37000
13958329;-0.37000
13961107;-0.37500
13963885;-0.38500
13966663;-0.39000
13969441;-0.40000
13972218;-0.38000
13974996;-0.37500
13977774;-0.38000
13980552;-0.38500
13983329;-0.39000
13986107;-0.40000
13988885;-0.39500
13991663;-0.38500
13994441;-0.39500
13997218;-0.39000
13999996;-0.39500
14002774;-0.39000
14005552;-0.39000
14008329;-0.38500
14011107;-0.39000
14013885;-0.39000
14016663;-0.39500
14019441;-0.40000
14022218;-0.39000
14024996;-0.37000
14027774;-0.38500
14030552;-0.37500
14033329;-0.39000
14036107;-0.39000
14038885;-0.37500
14041663;-0.37000
14044441;-0.38000
14047218;-0.38500
14049996;-0.39000
14052774;-0.39000
14055552;-0.38000
14058329;-0.37500
14061107;-0.38500
14063885;-0.39000
14066663;-0.39500
14069441;-0.39000
14072218;-0.37500
14074996;-0.38500
14077774;-0.39000
14080552;-0.39500
14083329;-0.39500
14086107;-0.39500
14088885;-0.37500
14091663;-0.37500
14094440;-0.37500
14097218;-0.39500
14099996;-0.39000
14102774;-0.39500
14105552;-0.39000
14108329;-0.38000
14111107;-0.37500
14113885;-0.38500
14116663;-0.39500
14119440;-0.39000
14122218;-0.37500
14124996;-0.35000
14127774;-0.35500
14130552;-0.36000
14133329;-0.35000
14136107;-0.35000
14138885;-0.32000
14141663;-0.30500
14144440;-0.30000
14147218;-0.30500
14149996;-0.31000
14152774;-0.31000
14155552;-0.28500
14158329;-0.27000
14161107;-0.26500
14163885;-0.26500
14166663;-0.27000
14169440;-0.27000
14172218;-0.25500
14174996;-0.24000
14177774;-0.24000
14180552;-0.25000
14183329;-0.24500
14186107;-0.25500
14188885;-0.24500
14191663;-0.23500
14194440;-0.23500
14197218;-0.24500
14199996;-0.25500
14202774;-0.26000
14205552;-0.25000
14208329;-0.24000
14211107;-0.25500
14213885;-0.26000
14216663;-0.27000
14219440;-0.27000
14222218;-0.26500
14224996;-0.24500
14227774;-0.25000
14230552;-0.27000
14233329;-0.27000
14236107;-0.28000
14238885;-0.27000
14241663;-0.26000
14244440;-0.27500
14247218;-0.28000
14249996;-0.28000
14252774;-0.28000
14255552;-0.27000
14258329;-0.25500
14261107;-0.26500
14263885;-0.27500
14266663;-0.29000
14269440;-0.29500
14272218;-0.28000
14274996;-0.27000
14277774;-0.28000
14280552;-0.29000
14283329;-0.30500
14286107;-0.30500
14288885;-0.29500
14291663;-0.28500
14294440;-0.29500
14297218;-0.30000
14299996;-0.31500
14302774;-0.30500
14305552;-0.31000
14308329;-0.30500
14311107;-0.30500
14313885;-0.30500
14316663;-0.30500
14319440;-0.31500
14322218;-0.31500
14324996;-0.29500
14327774;-0.31000
14330552;-0.33000
14333329;-0.33500
14336107;-0.33500
14338885;-0.32000
14341663;-0.30500
14344440;-0.31000
14347218;-0.33000
14349996;-0.32000
14352774;-0.33500
14355552;-0.32000
14358329;-0.31000
14361107;-0.31000
14363885;-0.31500
14366663;-0.31500
14369440;-0.32500
14372218;-0.31000
14374996;-0.30500
14377774;-0.29500
14380552;-0.30500
14383329;-0.31000
14386107;-0.31000
14388885;-0.30000
14391663;-0.29000
14394440;-0.31500
14397218;-0.31500
14399996;-0.32500
14402774;-0.31000
14405552;-0.30500
14408329;-0.29500
14411107;-0.31000
14413885;-0.31000
14416663;-0.31500
14419440;-0.31000
14422218;-0.31500
14424996;-0.30500
14427774;-0.30000
14430552;-0.29500
14433329;-0.28500
14436107;-0.29000
14438885;-0.28000
14441663;-0.25500
14444440;-0.24500
14447218;-0.24000
14449996;-0.24500
14452774;-0.25000
14455552;-0.23000
14458329;-0.21500
14461107;-0.21000
14463885;-0.20500
14466663;-0.20500
14469440;-0.20000
14472218;-0.19000
14474996;-0.17000
14477774;-0.18500
14480552;-0.19000
14483329;-0.20500
14486107;-0.21000
14488885;-0.21500
14491663;-0.21000
14494440;-0.21000
14497218;-0.21000
14499996;-0.22500
14502774;-0.24000
14505551;-0.22500
14508329;-0.21500
14511107;-0.19000
14513885;-0.18500
14516663;-0.18500
14519440;-0.20000
14522218;-0.23000
14524996;-0.23500
14527774;-0.24000
14530551;-0.26000
14533329;-0.30000
14536107;-0.30000
14538885;-0.30000
14541663;-0.30000
14544440;-0.30500
14547218;-0.31500
14549996;-0.31500
14552774;-0.30000
14555551;-0.31000
14558329;-0.29500
14561107;-0.31000
14563885;-0.31500
14566663;-0.33500
14569440;-0.35000
14572218;-0.33000
14574996;-0.32000
14577774;-0.32500
14580551;-0.32500
14583329;-0.32500
14586107;-0.34000
14588885;-0.33000
14591663;-0.32000
14594440;-0.32000
14597218;-0.33500
14599996;-0.34500
14602774;-0.35500
14605551;-0.32500
14608329;-0.32500
14611107;-0.33000
14613885;-0.33000
14616663;-0.34500
14619440;-0.37000
14622218;-0.40000
14624996;-0.43000
14627774;-0.45500
14630551;-0.48000
14633329;-0.51500
14636107;-0.55000
14638885;-0.49500
14641663;-0.36500
14644440;-0.22000
14647218;-0.04500
14649996;0.12500
14652774;0.36000
14655551;0.64500
14658329;0.90000
14661107;1.05500
14663885;1.12000
14666663;1.01500
14669440;0.66000
14672218;0.19500
14674996;-0.21000
14677774;-0.41500
14680551;-0.45500
14683329;-0.41500
14686107;-0.36000
14688885;-0.33500
14691663;-0.33500
14694440;-0.35000
14697218;-0.34000
14699996;-0.35000
14702774;-0.35000
14705551;-0.34000
14708329;-0.33500
14711107;-0.34000
14713885;-0.34500
14716663;-0.36000
14719440;-0.36500
14722218;-0.36500
14724996;-0.35500
14727774;-0.36000
14730551;-0.36000
14733329;-0.37500
14736107;-0.38000
14738885;-0.37500
14741663;-0.37000
14744440;-0.35500
14747218;-0.37000
14749996;-0.38000
14752774;-0.38500
14755551;-0.37500
14758329;-0.35000
14761107;-0.36500
14763885;-0.37500
14766663;-0.37500
14769440;-0.37500
14772218;-0.36000
14774996;-0.35500
14777774;-0.34500
14780551;-0.36500
14783329;-0.36500
14786107;-0.37500
14788885;-0.36500
14791663;-0.34500
14794440;-0.35500
14797218;-0.36000
14799996;-0.38500
14802774;-0.38000
14805551;-0.37000
14808329;-0.36000
14811107;-0.36500
14813885;-0.37000
14816663;-0.38000
14819440;-0.37500
14822218;-0.37500
14824996;-0.36000
14827774;-0.36000
14830551;-0.38000
14833329;-0.37500
14836107;-0.37500
14838885;-0.38000
14841663;-0.36000
14844440;-0.36500
14847218;-0.36500
14849996;-0.37500
14852774;-0.37500
14855551;-0.36000
14858329;-0.35000
14861107;-0.35000
14863885;-0.36000
14866663;-0.36500
14869440;-0.36500
14872218;-0.35500
14874996;-0.35500
14877774;-0.35000
14880551;-0.36500
14883329;-0.37500
14886107;-0.38000
14888885;-0.36500
14891662;-0.36000
14894440;-0.37000
14897218;-0.38000
14899996;-0.38000
14902774;-0.38500
14905551;-0.38500
14908329;-0.36500
14911107;-0.38500
14913885;-0.38000
14916662;-0.38500
14919440;-0.39500
14922218;-0.39500
14924996;-0.38500
14927774;-0.38000
14930551;-0.39000
14933329;-0.39500
14936107;-0.40500
14938885;-0.38000
14941662;-0.36500
14944440;-0.36500
14947218;-0.37000
14949996;-0.39000
14952774;-0.39500
14955551;-0.36000
14958329;-0.35000
14961107;-0.35000
14963885;-0.34500
14966662;-0.35000
14969440;-0.34500
14972218;-0.32000
14974996;-0.30000
14977774;-0.29500
14980551;-0.30000
14983329;-0.28500
14986107;-0.29000
14988885;-0.27500
14991662;-0.26000
14994440;-0.26000
14997218;-0.26500
14999996;-0.27500
15002774;-0.27000
15005551;-0.26000
15008329;-0.25000
15011107;-0.25000
15013885;-0.26000
15016662;-0.26500
15019440;-0.26500
15022218;-0.26500
15024996;-0.25500
15027774;-0.26000
15030551;-0.27000
15033329;-0.28000
15036107;-0.28000
15038885;-0.26500
15041662;-0.26500
15044440;-0.26500
15047218;-0.28000
15049996;-0.27500
15052774;-0.29000
15055551;-0.28500
15058329;-0.26500
15061107;-0.27000
15063885;-0.27500
15066662;-0.28500
15069440;-0.29500
15072218;-0.28500
15074996;-0.29000
15077774;-0.27500
15080551;-0.29000
15083329;-0.30000
15086107;-0.29500
15088885;-0.29000
15091662;-0.27500
15094440;-0.27000
15097218;-0.28000
15099996;-0.29000
15102774;-0.31000
15105551;-0.30000
15108329;-0.29500
15111107;-0.29500
15113885;-0.31000
15116662;-0.31000
15119440;-0.31000
15122218;-0.30000
15124996;-0.31000
15127774;-0.30500
15130551;-0.31000
15133329;-0.32000
15136107;-0.31000
15138885;-0.31000
15141662;-0.30000
15144440;-0.30000
15147218;-0.31500
15149996;-0.30500
15152774;-0.30500
15155551;-0.30500
15158329;-0.29000
15161107;-0.30500
15163885;-0.33000
15166662;-0.32500
15169440;-0.31500
15172218;-0.31500
15174996;-0.30500
15177774;-0.32000
15180551;-0.32500
15183329;-0.33000
15186107;-0.33500
15188885;-0.33000
15191662;-0.32500
15194440;-0.31500
15197218;-0.32000
15199996;-0.33000
15202774;-0.32500
15205551;-0.32000
15208329;-0.30500
15211107;-0.30500
15213885;-0.31500
15216662;-0.32000
15219440;-0.32000
15222218;-0.31500
15224996;-0.29000
15227774;-0.30500
15230551;-0.31000
15233329;-0.31000
15236107;-0.31500
15238885;-0.31000
15241662;-0.30000
15244440;-0.30000
15247218;-0.30000
15249996;-0.31000
15252774;-0.31000
15255551;-0.28500
15258329;-0.26500
15261107;-0.25500
15263885;-0.25500
15266662;-0.26500
15269440;-0.26000
15272218;-0.25000
15274996;-0.23500
15277774;-0.23500
15280551;-0.23000
15283329;-0.23000
15286107;-0.22000
15288885;-0.20500
15291662;-0.19000
15294440;-0.20500
15297218;-0.21000
15299996;-0.22500
15302773;-0.23000
15305551;-0.22500
15308329;-0.21000
15311107;-0.22000
15313885;-0.22000
15316662;-0.25500
15319440;-0.25500
15322218;-0.23500
15324996;-0.20500
15327773;-0.19500
15330551;-0.22000
15333329;-0.24500
15336107;-0.27000
15338885;-0.28000
15341662;-0.28500
15344440;-0.29500
15347218;-0.31500
15349996;-0.32500
15352773;-0.34000
15355551;-0.34000
15358329;-0.33000
15361107;-0.31500
15363885;-0.33000
15366662;-0.33500
15369440;-0.34000
15372218;-0.33500
15374996;-0.33500
15377773;-0.32000
15380551;-0.33000
15383329;-0.34000
15386107;-0.34500
15388885;-0.34000
15391662;-0.32500
15394440;-0.33000
15397218;-0.34000
15399996;-0.34000
15402773;-0.36000
15405551;-0.35500
15408329;-0.34500
15411107;-0.35500
15413885;-0.36500
15416662;-0.38500
15419440;-0.39000
15422218;-0.37000
15424996;-0.35000
15427773;-0.35000
15430551;-0.36000
15433329;-0.37500
15436107;-0.41500
15438885;-0.44000
15441662;-0.47000
15444440;-0.50000
15447218;-0.54000
15449996;-0.58500
15452773;-0.57000
15455551;-0.47500
15458329;-0.34000
15461107;-0.18500
15463885;-0.03000
15466662;0.16500
15469440;0.44000
15472218;0.70000
15474996;0.88500
15477773;0.97500
15480551;0.93000
15483329;0.70000
15486107;0.30500
15488885;-0.10000
15491662;-0.38000
15494440;-0.48500
15497218;-0.46500
15499996;-0.44500
15502773;-0.39000
15505551;-0.37500
15508329;-0.38000
15511107;-0.37500
15513885;-0.38500
15516662;-0.39000
15519440;-0.40500
15522218;-0.40000
15524996;-0.39000
15527773;-0.39500
15530551;-0.40500
15533329;-0.40500
15536107;-0.41000
15538885;-0.40500
15541662;-0.38500
15544440;-0.38500
15547218;-0.39000
15549996;-0.39000
15552773;-0.41000
15555551;-0.40500
15558329;-0.40000
15561107;-0.40000
15563885;-0.40500
15566662;-0.42500
15569440;-0.40500
15572218;-0.40000
15574996;-0.38500
15577773;-0.38500
15580551;-0.40000
15583329;-0.40500
15586107;-0.41000
15588885;-0.40500
15591662;-0.39000
15594440;-0.39500
15597218;-0.40000
15599996;-0.40500
15602773;-0.41500
15605551;-0.39500
15608329;-0.39000
15611107;-0.40500
15613885;-0.41000
15616662;-0.41500
15619440;-0.43000
15622218;-0.43000
15624996;-0.40500
15627773;-0.40500
15630551;-0.41500
15633329;-0.41000
15636107;-0.42000
15638885;-0.41000
15641662;-0.39500
15644440;-0.40000
15647218;-0.42000
15649996;-0.43000
15652773;-0.42500
15655551;-0.41500
15658329;-0.41000
15661107;-0.42000
15663885;-0.41000
15666662;-0.40500
15669440;-0.40500
15672218;-0.39500
15674996;-0.39000
15677773;-0.40000
15680551;-0.41000
15683329;-0.41500
15686107;-0.41000
15688884;-0.41000
15691662;-0.40000
15694440;-0.40000
15697218;-0.41500
15699996;-0.42500
15702773;-0.43500
15705551;-0.42500
15708329;-0.41500
15711107;-0.43000
15713884;-0.43500
15716662;-0.42000
15719440;-0.44500
15722218;-0.43000
15724996;-0.42000
15727773;-0.42500
15730551;-0.43500
15733329;-0.44500
15736107;-0.44500
15738884;-0.44000
15741662;-0.44500
15744440;-0.44500
15747218;-0.44500
15749996;-0.45000
15752773;-0.45000
15755551;-0.45000
15758329;-0.43000
15761107;-0.44000
15763884;-0.44000
15766662;-0.45000
15769440;-0.45000
15772218;-0.44500
15774996;-0.43000
15777773;-0.41500
15780551;-0.41000
15783329;-0.42000
15786107;-0.41000
15788884;-0.39000
15791662;-0.37500
15794440;-0.38500
15797218;-0.37500
15799996;-0.38500
15802773;-0.37000
15805551;-0.34500
15808329;-0.33000
15811107;-0.33500
15813884;-0.34500
15816662;-0.33000
15819440;-0.33500
15822218;-0.32000
15824996;-0.31500
15827773;-0.30500
15830551;-0.32500
15833329;-0.33000
15836107;-0.33500
15838884;-0.34000
15841662;-0.34500
15844440;-0.34500
15847218;-0.34000
15849996;-0.34500
15852773;-0.35500
15855551;-0.36000
15858329;-0.35500
15861107;-0.36000
15863884;-0.35000
15866662;-0.34500
15869440;-0.36000
15872218;-0.35500
15874996;-0.34000
15877773;-0.35500
15880551;-0.34500
15883329;-0.35500
15886107;-0.37000
15888884;-0.35500
15891662;-0.34000
15894440;-0.34000
15897218;-0.34500
15899996;-0.37000
15902773;-0.37500
15905551;-0.36500
15908329;-0.36000
15911107;-0.37500
15913884;-0.37000
15916662;-0.38000
15919440;-0.38500
15922218;-0.37500
15924996;-0.36500
15927773;-0.37500
15930551;-0.39000
15933329;-0.40500
15936107;-0.41000
15938884;-0.40500
15941662;-0.39500
15944440;-0.38500
15947218;-0.40000
15949996;-0.40500
15952773;-0.41500
15955551;-0.40000
15958329;-0.37500
15961107;-0.37500
15963884;-0.37000
15966662;-0.37500
15969440;-0.37500
15972218;-0.37500
15974996;-0.36500
15977773;-0.37000
15980551;-0.37000
15983329;-0.39000
15986107;-0.39500
15988884;-0.39000
15991662;-0.38500
15994440;-0.38500
15997218;-0.39500
15999996;-0.40500
16002773;-0.40500
16005551;-0.39500
16008329;-0.39500
16011107;-0.40500
16013884;-0.41500
16016662;-0.41500
16019440;-0.43000
16022218;-0.40500
16024996;-0.40500
16027773;-0.39500
16030551;-0.40500
16033329;-0.42500
16036107;-0.42000
16038884;-0.40500
16041662;-0.40500
16044440;-0.40000
16047218;-0.38500
16049996;-0.40000
16052773;-0.41000
16055551;-0.40000
16058329;-0.37500
16061107;-0.37500
16063884;-0.38000
16066662;-0.37000
16069440;-0.36500
16072218;-0.34000
16074995;-0.32500
16077773;-0.32500
16080551;-0.33000
16083329;-0.33000
16086107;-0.33500
16088884;-0.31000
16091662;-0.30500
16094440;-0.30500
16097218;-0.30000
16099995;-0.31500
16102773;-0.33000
16105551;-0.33000
16108329;-0.32500
16111107;-0.32500
16113884;-0.34000
16116662;-0.33500
16119440;-0.32500
16122218;-0.31500
16124995;-0.32000
16127773;-0.33500
16130551;-0.33500
16133329;-0.33000
16136107;-0.31500
16138884;-0.29500
16141662;-0.29500
16144440;-0.33000
16147218;-0.36000
16149995;-0.38000
16152773;-0.39000
16155551;-0.39500
16158329;-0.40000
16161107;-0.40500
16163884;-0.41500
16166662;-0.42500
16169440;-0.43000
16172218;-0.42000
16174995;-0.43000
16177773;-0.42500
16180551;-0.43500
16183329;-0.44000
16186107;-0.44500
16188884;-0.44000
16191662;-0.43500
16194440;-0.44500
16197218;-0.45000
16199995;-0.45000
16202773;-0.45000
16205551;-0.43500
16208329;-0.43000
16211107;-0.43500
16213884;-0.44500
16216662;-0.46000
16219440;-0.45500
16222218;-0.44500
16224995;-0.44000
16227773;-0.43500
16230551;-0.46000
16233329;-0.47500
16236107;-0.49500
16238884;-0.51000
16241662;-0.53500
16244440;-0.55000
16247218;-0.56500
16249995;-0.59000
16252773;-0.63000
16255551;-0.66500
16258329;-0.66000
16261107;-0.62000
16263884;-0.53000
16266662;-0.42500
16269440;-0.29500
16272218;-0.14000
16274995;0.03000
16277773;0.22000
16280551;0.44500
16283329;0.64000
16286107;0.79500
16288884;0.88500
16291662;0.87500
16294440;0.65000
16297218;0.26000
16299995;-0.15000
16302773;-0.43500
16305551;-0.53000
16308329;-0.55000
16311107;-0.53500
16313884;-0.52000
16316662;-0.51000
16319440;-0.52000
16322218;-0.50500
16324995;-0.49500
16327773;-0.49500
16330551;-0.48000
16333329;-0.47500
16336107;-0.47500
16338884;-0.47000
16341662;-0.46000
16344440;-0.45500
16347218;-0.46500
16349995;-0.46500
16352773;-0.48000
16355551;-0.48000
16358329;-0.48500
16361107;-0.49500
16363884;-0.49000
16366662;-0.49500
16369440;-0.49000
16372218;-0.47500
16374995;-0.47500
16377773;-0.47000
16380551;-0.47500
16383329;-0.49000
16386107;-0.50500
16388884;-0.48500
16391662;-0.47000
16394440;-0.46500
16397218;-0.47500
16399995;-0.49500
16402773;-0.49500
16405551;-0.49500
16408329;-0.49000
16411107;-0.47500
16413884;-0.47000
16416662;-0.47500
16419440;-0.49000
16422218;-0.49000
16424995;-0.47500
16427773;-0.47500
16430551;-0.49500
16433329;-0.51000
16436107;-0.50500
16438884;-0.49500
16441662;-0.48000
16444440;-0.49000
16447218;-0.50000
16449995;-0.51500
16452773;-0.52000
16455551;-0.50500
16458329;-0.49000
16461107;-0.50000
