time_ms;ecg_value
0;1.05500
2778;1.03500
5556;0.81500
8333;0.45500
11111;0.05500
13889;-0.22000
16667;-0.37500
19444;-0.45500
22222;-0.52500
25000;-0.56000
27778;-0.55000
30556;-0.52000
33333;-0.48000
36111;-0.44500
38889;-0.43500
41667;-0.43500
44444;-0.45000
47222;-0.45000
50000;-0.45000
52778;-0.45000
55556;-0.44000
58333;-0.44500
61111;-0.45000
63889;-0.45000
66667;-0.47000
69444;-0.46000
72222;-0.45000
75000;-0.44500
77778;-0.44500
80556;-0.45500
83333;-0.46500
86111;-0.46500
88889;-0.45000
91667;-0.45000
94444;-0.44500
97222;-0.44500
100000;-0.45000
102778;-0.45000
105556;-0.44000
108333;-0.44000
111111;-0.45000
113889;-0.45500
116667;-0.46000
119444;-0.45500
122222;-0.44500
125000;-0.45500
127778;-0.45500
130556;-0.47000
133333;-0.47500
136111;-0.46500
138889;-0.44000
141667;-0.44500
144444;-0.46000
147222;-0.47000
150000;-0.47000
152778;-0.45000
155556;-0.45000
158333;-0.45500
161111;-0.46500
163889;-0.46500
166667;-0.46500
169444;-0.44500
172222;-0.44000
175000;-0.43500
177778;-0.44000
180556;-0.45500
183333;-0.45000
186111;-0.46000
188889;-0.43500
191667;-0.44000
194444;-0.45500
197222;-0.46000
200000;-0.45500
202778;-0.45000
205555;-0.45000
208333;-0.43000
211111;-0.43500
213889;-0.44000
216667;-0.44500
219444;-0.44500
222222;-0.44000
225000;-0.45500
227778;-0.47000
230555;-0.47500
233333;-0.47500
236111;-0.47500
238889;-0.47000
241667;-0.47000
244444;-0.48500
247222;-0.49500
250000;-0.50000
252778;-0.49000
255555;-0.48500
258333;-0.47500
261111;-0.49000
263889;-0.50000
266667;-0.50500
269444;-0.49500
272222;-0.48000
275000;-0.46500
277778;-0.47500
280555;-0.46500
283333;-0.46500
286111;-0.44500
288889;-0.44000
291667;-0.42000
294444;-0.41000
297222;-0.41500
300000;-0.41000
302778;-0.37500
305555;-0.37000
308333;-0.35000
311111;-0.36000
313889;-0.36000
316667;-0.35000
319444;-0.32500
322222;-0.31500
325000;-0.31500
327778;-0.31500
330555;-0.32000
333333;-0.32500
336111;-0.31000
338889;-0.29000
341667;-0.29000
344444;-0.29500
347222;-0.32000
350000;-0.32000
352778;-0.31000
355555;-0.30000
358333;-0.29500
361111;-0.31500
363889;-0.31000
366667;-0.32500
369444;-0.31500
372222;-0.31000
375000;-0.29000
377778;-0.30000
380555;-0.32000
383333;-0.31500
386111;-0.30500
388889;-0.30000
391667;-0.29500
394444;-0.30500
397222;-0.30500
400000;-0.30000
402778;-0.31500
405555;-0.31000
408333;-0.30500
411111;-0.32000
413889;-0.33000
416667;-0.34000
419444;-0.33000
422222;-0.32000
425000;-0.32500
427778;-0.33000
430555;-0.34000
433333;-0.34000
436111;-0.32500
438889;-0.32000
441667;-0.33000
444444;-0.33000
447222;-0.34000
450000;-0.35500
452778;-0.35000
455555;-0.34000
458333;-0.34000
461111;-0.34000
463889;-0.35000
466667;-0.35000
469444;-0.34500
472222;-0.33500
475000;-0.34000
477778;-0.34500
480555;-0.35000
483333;-0.35500
486111;-0.34500
488889;-0.34000
491667;-0.34500
494444;-0.34500
497222;-0.35000
500000;-0.36500
502778;-0.36000
505555;-0.35000
508333;-0.34000
511111;-0.33000
513889;-0.35500
516667;-0.34500
519444;-0.34500
522222;-0.33000
525000;-0.33000
527778;-0.34500
530555;-0.33000
533333;-0.34000
536111;-0.33000
538889;-0.32000
541667;-0.31000
544444;-0.32500
547222;-0.32500
550000;-0.32000
552778;-0.30500
555555;-0.30500
558333;-0.28500
561111;-0.27500
563889;-0.27500
566667;-0.28000
569444;-0.26000
572222;-0.24000
575000;-0.24500
577778;-0.24500
580555;-0.25000
583333;-0.23500
586111;-0.23500
588889;-0.21000
591667;-0.20000
594444;-0.21500
597222;-0.23000
600000;-0.24500
602778;-0.23500
605555;-0.23000
608333;-0.23500
611111;-0.25000
613889;-0.26000
616666;-0.23500
619444;-0.22000
622222;-0.20500
625000;-0.21500
627778;-0.23000
630555;-0.25500
633333;-0.26000
636111;-0.24500
638889;-0.23000
641666;-0.20500
644444;-0.18500
647222;-0.19500
650000;-0.22000
652778;-0.24500
655555;-0.27000
658333;-0.28000
661111;-0.29500
663889;-0.31500
666666;-0.33000
669444;-0.33000
672222;-0.33500
675000;-0.33500
677778;-0.33500
680555;-0.33500
683333;-0.33500
686111;-0.33000
688889;-0.32000
691666;-0.32000
694444;-0.34000
697222;-0.33500
700000;-0.34000
702778;-0.33500
705555;-0.33000
708333;-0.32000
711111;-0.32000
713889;-0.33500
716666;-0.35000
719444;-0.33000
722222;-0.32000
725000;-0.33000
727778;-0.33500
730555;-0.37000
733333;-0.40500
736111;-0.44500
738889;-0.47500
741666;-0.49500
744444;-0.51000
747222;-0.55000
750000;-0.51000
752778;-0.39000
755555;-0.23000
758333;-0.04000
761111;0.14500
763889;0.40000
766666;0.70500
769444;0.98500
772222;1.15000
775000;1.18500
777778;1.06000
780555;0.67000
783333;0.16000
786111;-0.26500
788889;-0.45500
791666;-0.45000
794444;-0.40000
797222;-0.35500
800000;-0.35500
802778;-0.34500
805555;-0.35000
808333;-0.35000
811111;-0.36000
813889;-0.35500
816666;-0.35000
819444;-0.36500
822222;-0.35000
825000;-0.35000
827778;-0.36000
830555;-0.37000
833333;-0.38500
836111;-0.37500
838889;-0.37000
841666;-0.38000
844444;-0.37500
847222;-0.38500
850000;-0.39000
852778;-0.39000
855555;-0.37500
858333;-0.37000
861111;-0.37500
863889;-0.37500
866666;-0.39000
869444;-0.38500
872222;-0.37500
875000;-0.37000
877778;-0.37500
880555;-0.38500
883333;-0.39500
886111;-0.38500
888889;-0.38000
891666;-0.38000
894444;-0.38500
897222;-0.39000
900000;-0.39000
902778;-0.39000
905555;-0.37500
908333;-0.37500
911111;-0.38500
913889;-0.39500
916666;-0.38500
919444;-0.38500
922222;-0.38500
925000;-0.37500
927778;-0.38000
930555;-0.38000
933333;-0.39000
936111;-0.37500
938889;-0.37000
941666;-0.36500
944444;-0.37500
947222;-0.38000
950000;-0.38500
952778;-0.38000
955555;-0.38000
958333;-0.37500
961111;-0.38000
963889;-0.38500
966666;-0.39000
969444;-0.37500
972222;-0.37500
975000;-0.37500
977778;-0.38000
980555;-0.39000
983333;-0.39000
986111;-0.38000
988889;-0.37000
991666;-0.35500
994444;-0.37500
997222;-0.39000
1000000;-0.38000
1002777;-0.37000
1005555;-0.36500
1008333;-0.36500
1011111;-0.36500
1013889;-0.37000
1016666;-0.39000
1019444;-0.36500
1022222;-0.36500
1025000;-0.36000
1027777;-0.37500
1030555;-0.38000
1033333;-0.38000
1036111;-0.37000
1038889;-0.36000
1041666;-0.35000
1044444;-0.35000
1047222;-0.35000
1050000;-0.36000
1052777;-0.34500
1055555;-0.33000
1058333;-0.33000
1061111;-0.32000
1063889;-0.32000
1066666;-0.32000
1069444;-0.29500
1072222;-0.29000
1075000;-0.27500
1077777;-0.27000
1080555;-0.26000
1083333;-0.25500
1086111;-0.25000
1088889;-0.23000
1091666;-0.22500
1094444;-0.23500
1097222;-0.23000
1100000;-0.24000
1102777;-0.22000
1105555;-0.22500
1108333;-0.23000
1111111;-0.23000
1113889;-0.24000
1116666;-0.25000
1119444;-0.24000
1122222;-0.23500
1125000;-0.23500
1127777;-0.23500
1130555;-0.24500
1133333;-0.24500
1136111;-0.25500
1138889;-0.24500
1141666;-0.24000
1144444;-0.24500
1147222;-0.25500
1150000;-0.25000
1152777;-0.24500
1155555;-0.23000
1158333;-0.23000
1161111;-0.23500
1163889;-0.24000
1166666;-0.25000
1169444;-0.24500
1172222;-0.24500
1175000;-0.24000
1177777;-0.25000
1180555;-0.26000
1183333;-0.27500
1186111;-0.26500
1188889;-0.25500
1191666;-0.26000
1194444;-0.26500
1197222;-0.27500
1200000;-0.28500
1202777;-0.27000
1205555;-0.27500
1208333;-0.27000
1211111;-0.28500
1213889;-0.29000
1216666;-0.29000
1219444;-0.29000
1222222;-0.27000
1225000;-0.27500
1227777;-0.29000
1230555;-0.30000
1233333;-0.28500
1236111;-0.29500
1238889;-0.29500
1241666;-0.29500
1244444;-0.29500
1247222;-0.31000
1250000;-0.31000
1252777;-0.31000
1255555;-0.30500
1258333;-0.29500
1261111;-0.30000
1263889;-0.30500
1266666;-0.32000
1269444;-0.31000
1272222;-0.30500
1275000;-0.31000
1277777;-0.30500
1280555;-0.30500
1283333;-0.31000
1286111;-0.30500
1288889;-0.29500
1291666;-0.30000
1294444;-0.30000
1297222;-0.30000
1300000;-0.31000
1302777;-0.29500
1305555;-0.29000
1308333;-0.28500
1311111;-0.28500
1313889;-0.28000
1316666;-0.26500
1319444;-0.24000
1322222;-0.22000
1325000;-0.21500
1327777;-0.21000
1330555;-0.21500
1333333;-0.22000
1336111;-0.20000
1338889;-0.18000
1341666;-0.18500
1344444;-0.18000
1347222;-0.18000
1350000;-0.17000
1352777;-0.17500
1355555;-0.17000
1358333;-0.17000
1361111;-0.17500
1363889;-0.19000
1366666;-0.19500
1369444;-0.19500
1372222;-0.19500
1375000;-0.19000
1377777;-0.19500
1380555;-0.18500
1383333;-0.18500
1386111;-0.19000
1388888;-0.19000
1391666;-0.19500
1394444;-0.19000
1397222;-0.18500
1400000;-0.17500
1402777;-0.17000
1405555;-0.21000
1408333;-0.24500
1411111;-0.24500
1413888;-0.27000
1416666;-0.28500
1419444;-0.30000
1422222;-0.29500
1425000;-0.30500
1427777;-0.30500
1430555;-0.29500
1433333;-0.30500
1436111;-0.29500
1438888;-0.29000
1441666;-0.30000
1444444;-0.30000
1447222;-0.31000
1450000;-0.32000
1452777;-0.32000
1455555;-0.31000
1458333;-0.30000
1461111;-0.32000
1463888;-0.32000
1466666;-0.32000
1469444;-0.31000
1472222;-0.30500
1475000;-0.29500
1477777;-0.30000
1480555;-0.31000
1483333;-0.31000
1486111;-0.33500
1488888;-0.36000
1491666;-0.40000
1494444;-0.43500
1497222;-0.47000
1500000;-0.50500
1502777;-0.52000
1505555;-0.45000
1508333;-0.29000
1511111;-0.10500
1513888;0.08500
1516666;0.32500
1519444;0.64000
1522222;0.91500
1525000;1.11500
1527777;1.18000
1530555;1.07000
1533333;0.71500
1536111;0.21500
1538888;-0.22000
1541666;-0.42500
1544444;-0.44000
1547222;-0.36500
1550000;-0.32500
1552777;-0.29500
1555555;-0.30500
1558333;-0.30500
1561111;-0.31500
1563888;-0.32000
1566666;-0.32500
1569444;-0.32500
1572222;-0.31000
1575000;-0.32000
1577777;-0.33000
1580555;-0.33500
1583333;-0.35000
1586111;-0.35000
1588888;-0.34000
1591666;-0.34500
1594444;-0.34000
1597222;-0.35500
1600000;-0.36000
1602777;-0.33500
1605555;-0.34500
1608333;-0.34500
1611111;-0.35000
1613888;-0.35500
1616666;-0.36500
1619444;-0.34000
1622222;-0.33000
1625000;-0.32500
1627777;-0.34000
1630555;-0.34000
1633333;-0.34500
1636111;-0.33500
1638888;-0.33000
1641666;-0.34000
1644444;-0.34500
1647222;-0.34500
1650000;-0.35000
1652777;-0.35000
1655555;-0.34000
1658333;-0.33500
1661111;-0.34500
1663888;-0.35000
1666666;-0.35500
1669444;-0.36000
1672222;-0.35000
1675000;-0.35000
1677777;-0.35500
1680555;-0.35000
1683333;-0.36000
1686111;-0.35000
1688888;-0.35500
1691666;-0.35000
1694444;-0.34500
1697222;-0.36000
1700000;-0.35000
1702777;-0.34500
1705555;-0.34000
1708333;-0.34000
1711111;-0.33000
1713888;-0.34000
1716666;-0.33500
1719444;-0.33500
1722222;-0.32500
1725000;-0.33000
1727777;-0.32500
1730555;-0.32000
1733333;-0.32500
1736111;-0.34000
1738888;-0.33000
1741666;-0.33000
1744444;-0.33500
1747222;-0.34500
1750000;-0.36000
1752777;-0.35000
1755555;-0.34000
1758333;-0.35000
1761111;-0.34500
1763888;-0.35000
1766666;-0.35500
1769444;-0.35500
1772222;-0.34000
1775000;-0.34000
1777777;-0.34500
1780555;-0.36000
1783333;-0.36500
1786111;-0.36000
1788888;-0.34000
1791666;-0.33500
1794444;-0.33000
1797222;-0.33500
1799999;-0.33500
1802777;-0.32500
1805555;-0.32000
1808333;-0.31000
1811111;-0.30000
1813888;-0.31000
1816666;-0.30500
1819444;-0.29500
1822222;-0.27500
1824999;-0.27500
1827777;-0.27500
1830555;-0.26500
1833333;-0.27000
1836111;-0.25500
1838888;-0.24000
1841666;-0.23500
1844444;-0.22500
1847222;-0.23500
1849999;-0.23500
1852777;-0.22500
1855555;-0.22500
1858333;-0.21000
1861111;-0.22000
1863888;-0.23500
1866666;-0.23000
1869444;-0.22500
1872222;-0.22000
1874999;-0.22000
1877777;-0.21500
1880555;-0.22000
1883333;-0.21500
1886111;-0.21500
1888888;-0.22000
1891666;-0.21500
1894444;-0.21500
1897222;-0.23500
1899999;-0.24000
1902777;-0.24000
1905555;-0.23500
1908333;-0.23500
1911111;-0.23500
1913888;-0.24000
1916666;-0.25500
1919444;-0.24500
1922222;-0.25000
1924999;-0.23000
1927777;-0.25000
1930555;-0.25000
1933333;-0.24500
1936111;-0.25000
1938888;-0.25000
1941666;-0.25000
1944444;-0.25000
1947222;-0.25500
1949999;-0.26500
1952777;-0.26000
1955555;-0.25000
1958333;-0.25500
1961111;-0.26500
1963888;-0.27000
1966666;-0.27000
1969444;-0.27000
1972222;-0.26000
1974999;-0.26500
1977777;-0.28000
1980555;-0.28500
1983333;-0.30000
1986111;-0.29000
1988888;-0.27500
1991666;-0.28000
1994444;-0.28500
1997222;-0.30000
1999999;-0.30500
2002777;-0.31000
2005555;-0.29500
2008333;-0.29000
2011111;-0.29500
2013888;-0.30500
2016666;-0.30500
2019444;-0.30500
2022222;-0.30000
2024999;-0.29500
2027777;-0.28500
2030555;-0.31500
2033333;-0.30000
2036111;-0.29500
2038888;-0.28000
2041666;-0.27000
2044444;-0.28000
2047222;-0.29000
2049999;-0.29500
2052777;-0.29000
2055555;-0.28500
2058333;-0.28000
2061111;-0.28500
2063888;-0.29000
2066666;-0.29000
2069444;-0.29500
2072222;-0.28000
2074999;-0.27000
2077777;-0.27000
2080555;-0.27000
2083333;-0.27500
2086111;-0.26000
2088888;-0.24500
2091666;-0.23000
2094444;-0.21000
2097222;-0.21000
2099999;-0.20500
2102777;-0.20000
2105555;-0.19000
2108333;-0.18500
2111111;-0.19000
2113888;-0.18000
2116666;-0.18500
2119444;-0.16500
2122222;-0.16000
2124999;-0.16500
2127777;-0.16000
2130555;-0.17000
2133333;-0.18000
2136111;-0.17500
2138888;-0.18000
2141666;-0.18500
2144444;-0.19000
2147222;-0.19500
2149999;-0.20000
2152777;-0.20500
2155555;-0.19500
2158333;-0.18000
2161111;-0.15000
2163888;-0.15500
2166666;-0.18000
2169444;-0.19000
2172222;-0.22000
2174999;-0.23000
2177777;-0.23000
2180555;-0.26000
2183333;-0.26500
2186110;-0.27000
2188888;-0.27000
2191666;-0.27500
2194444;-0.28500
2197222;-0.29500
2199999;-0.29000
2202777;-0.28500
2205555;-0.28000
2208333;-0.28000
2211110;-0.30500
2213888;-0.31000
2216666;-0.32000
2219444;-0.31000
2222222;-0.29500
2224999;-0.30000
2227777;-0.30500
2230555;-0.31500
2233333;-0.31500
2236110;-0.30500
2238888;-0.29500
2241666;-0.28500
2244444;-0.28500
2247222;-0.29500
2249999;-0.30500
2252777;-0.29000
2255555;-0.28500
2258333;-0.29500
2261110;-0.30000
2263888;-0.34000
2266666;-0.38500
2269444;-0.41000
2272222;-0.42500
2274999;-0.46500
2277777;-0.49500
2280555;-0.46000
2283333;-0.33500
2286110;-0.13000
2288888;0.06500
2291666;0.29500
2294444;0.57000
2297222;0.82500
2299999;1.00500
2302777;1.06000
2305555;0.97000
2308333;0.67000
2311110;0.24000
2313888;-0.15500
2316666;-0.38500
2319444;-0.43000
2322222;-0.37500
2324999;-0.32000
2327777;-0.30500
2330555;-0.31000
2333333;-0.33000
2336110;-0.32000
2338888;-0.31500
2341666;-0.30500
2344444;-0.32000
2347222;-0.33500
2349999;-0.34000
2352777;-0.34500
2355555;-0.32500
2358333;-0.33500
2361110;-0.33500
2363888;-0.34000
2366666;-0.34000
2369444;-0.34000
2372222;-0.33500
2374999;-0.33500
2377777;-0.35500
2380555;-0.34500
2383333;-0.34500
2386110;-0.35000
2388888;-0.33500
2391666;-0.33500
2394444;-0.34000
2397222;-0.34500
2399999;-0.36000
2402777;-0.35500
2405555;-0.34000
2408333;-0.33500
2411110;-0.32500
2413888;-0.33000
2416666;-0.34500
2419444;-0.35000
2422222;-0.34000
2424999;-0.33000
2427777;-0.33000
2430555;-0.34000
2433333;-0.36000
2436110;-0.36000
2438888;-0.36000
2441666;-0.35000
2444444;-0.35000
2447222;-0.34000
2449999;-0.33500
2452777;-0.33000
2455555;-0.33500
2458333;-0.33500
2461110;-0.33500
2463888;-0.34500
2466666;-0.34500
2469444;-0.36000
2472222;-0.34000
2474999;-0.34000
2477777;-0.33500
2480555;-0.34500
2483333;-0.35500
2486110;-0.36000
2488888;-0.34500
2491666;-0.34500
2494444;-0.34500
2497222;-0.36000
2499999;-0.36500
2502777;-0.35500
2505555;-0.35000
2508333;-0.34500
2511110;-0.36000
2513888;-0.35500
2516666;-0.36500
2519444;-0.35000
2522222;-0.33500
2524999;-0.34000
2527777;-0.33500
2530555;-0.35000
2533333;-0.36500
2536110;-0.35500
2538888;-0.35500
2541666;-0.35500
2544444;-0.35000
2547222;-0.37500
2549999;-0.36000
2552777;-0.35000
2555555;-0.34500
2558333;-0.34500
2561110;-0.35500
2563888;-0.37000
2566666;-0.37500
2569444;-0.36000
2572222;-0.34000
2574999;-0.35000
2577777;-0.34000
2580555;-0.34500
2583333;-0.34500
2586110;-0.33500
2588888;-0.32000
2591666;-0.30500
2594444;-0.29000
2597221;-0.29000
2599999;-0.30500
2602777;-0.30000
2605555;-0.28000
2608333;-0.26500
2611110;-0.25000
2613888;-0.26500
2616666;-0.26500
2619444;-0.25500
2622221;-0.24500
2624999;-0.24000
2627777;-0.23500
2630555;-0.24500
2633333;-0.26000
2636110;-0.26500
2638888;-0.26000
2641666;-0.28500
2644444;-0.29000
2647221;-0.28000
2649999;-0.27500
2652777;-0.25000
2655555;-0.25000
2658333;-0.25500
2661110;-0.25500
2663888;-0.26500
2666666;-0.27500
2669444;-0.27000
2672221;-0.25500
2674999;-0.25000
2677777;-0.26000
2680555;-0.26000
2683333;-0.27000
2686110;-0.28000
2688888;-0.26500
2691666;-0.26500
2694444;-0.27500
2697221;-0.29000
2699999;-0.29500
2702777;-0.29500
2705555;-0.28000
2708333;-0.28500
2711110;-0.29000
2713888;-0.28500
2716666;-0.29500
2719444;-0.28500
2722221;-0.27500
2724999;-0.27000
2727777;-0.29000
2730555;-0.30500
2733333;-0.31500
2736110;-0.31500
2738888;-0.31500
2741666;-0.33000
2744444;-0.32000
2747221;-0.32000
2749999;-0.32500
2752777;-0.32500
2755555;-0.31500
2758333;-0.31000
2761110;-0.31500
2763888;-0.32500
2766666;-0.33500
2769444;-0.32500
2772221;-0.32000
2774999;-0.34000
2777777;-0.34500
2780555;-0.36000
2783333;-0.35000
2786110;-0.34500
2788888;-0.33500
2791666;-0.33000
2794444;-0.36000
2797221;-0.37000
2799999;-0.38500
2802777;-0.38500
2805555;-0.35500
2808333;-0.35500
2811110;-0.35000
2813888;-0.35000
2816666;-0.35000
2819444;-0.33000
2822221;-0.32500
2824999;-0.33500
2827777;-0.34500
2830555;-0.38000
2833333;-0.39000
2836110;-0.38000
2838888;-0.35500
2841666;-0.32500
2844444;-0.32000
2847221;-0.31000
2849999;-0.30000
2852777;-0.29500
2855555;-0.28500
2858333;-0.28500
2861110;-0.27500
2863888;-0.27000
2866666;-0.26000
2869444;-0.23500
2872221;-0.22000
2874999;-0.22500
2877777;-0.23500
2880555;-0.25000
2883333;-0.26500
2886110;-0.25000
2888888;-0.24500
2891666;-0.24000
2894444;-0.22500
2897221;-0.24000
2899999;-0.26000
2902777;-0.25500
2905555;-0.25000
2908333;-0.23500
2911110;-0.24500
2913888;-0.25500
2916666;-0.28500
2919444;-0.28500
2922221;-0.29000
2924999;-0.27000
2927777;-0.24000
2930555;-0.24000
2933333;-0.26500
2936110;-0.29000
2938888;-0.30500
2941666;-0.31500
2944444;-0.32500
2947221;-0.33000
2949999;-0.35500
2952777;-0.37000
2955555;-0.37500
2958333;-0.37000
2961110;-0.36500
2963888;-0.36500
2966666;-0.36000
2969444;-0.36000
2972221;-0.36000
2974999;-0.36500
2977777;-0.38000
2980555;-0.38000
2983332;-0.38000
2986110;-0.38000
2988888;-0.38000
2991666;-0.38500
2994444;-0.39000
2997221;-0.39500
2999999;-0.40000
3002777;-0.38000
3005555;-0.37500
3008332;-0.38500
3011110;-0.38000
3013888;-0.39000
3016666;-0.40500
3019444;-0.43000
3022221;-0.46500
3024999;-0.48500
3027777;-0.51500
3030555;-0.55000
3033332;-0.55500
3036110;-0.49000
3038888;-0.33500
3041666;-0.18500
3044444;0.00500
3047221;0.23500
3049999;0.50000
3052777;0.79500
3055555;1.01000
3058332;1.15000
3061110;1.21500
3063888;1.17000
3066666;0.96500
3069444;0.63500
3072221;0.24000
3074999;-0.11500
3077777;-0.35000
3080555;-0.46500
3083332;-0.51500
3086110;-0.50000
3088888;-0.47500
3091666;-0.44000
3094444;-0.41500
3097221;-0.41500
3099999;-0.43000
3102777;-0.42000
3105555;-0.40000
3108332;-0.38500
3111110;-0.38500
3113888;-0.40000
3116666;-0.40500
3119444;-0.42000
3122221;-0.42000
3124999;-0.42000
3127777;-0.41500
3130555;-0.42500
3133332;-0.42500
3136110;-0.42500
3138888;-0.41500
3141666;-0.41500
3144444;-0.41000
3147221;-0.40500
3149999;-0.41000
3152777;-0.41000
3155555;-0.40000
3158332;-0.40500
3161110;-0.42500
3163888;-0.42500
3166666;-0.42000
3169444;-0.40500
3172221;-0.39500
3174999;-0.39000
3177777;-0.40000
3180555;-0.40500
3183332;-0.41500
3186110;-0.41500
3188888;-0.41000
3191666;-0.42000
3194444;-0.43000
3197221;-0.42500
3199999;-0.44000
3202777;-0.41500
3205555;-0.41000
3208332;-0.41500
3211110;-0.41000
3213888;-0.42000
3216666;-0.43000
3219444;-0.42000
3222221;-0.41500
3224999;-0.41000
3227777;-0.41500
3230555;-0.42000
3233332;-0.42000
3236110;-0.41000
3238888;-0.40000
3241666;-0.38500
3244444;-0.38500
3247221;-0.39500
3249999;-0.40000
3252777;-0.39000
3255555;-0.39000
3258332;-0.37000
3261110;-0.38000
3263888;-0.39500
3266666;-0.41000
3269444;-0.40500
3272221;-0.41500
3274999;-0.41000
3277777;-0.42000
3280555;-0.42500
3283332;-0.44000
3286110;-0.42500
3288888;-0.42000
3291666;-0.41500
3294444;-0.42000
3297221;-0.43500
3299999;-0.44500
3302777;-0.44500
3305555;-0.43500
3308332;-0.43500
3311110;-0.44000
3313888;-0.44000
3316666;-0.45000
3319444;-0.43500
3322221;-0.43500
3324999;-0.43500
3327777;-0.43500
3330555;-0.44000
3333332;-0.45500
3336110;-0.45500
3338888;-0.43500
3341666;-0.44000
3344444;-0.42500
3347221;-0.44500
3349999;-0.43500
3352777;-0.41500
3355555;-0.41500
3358332;-0.39000
3361110;-0.39000
3363888;-0.38000
3366666;-0.37500
3369444;-0.36000
3372221;-0.34000
3374999;-0.32000
3377777;-0.32000
3380555;-0.32000
3383332;-0.32500
3386110;-0.31500
3388888;-0.30000
3391666;-0.28000
3394443;-0.28500
3397221;-0.28500
3399999;-0.29000
3402777;-0.28000
3405555;-0.26500
3408332;-0.27000
3411110;-0.26500
3413888;-0.26500
3416666;-0.28000
3419443;-0.27500
3422221;-0.27000
3424999;-0.25500
3427777;-0.26000
3430555;-0.26500
3433332;-0.28500
3436110;-0.28500
3438888;-0.28000
3441666;-0.27000
3444443;-0.27000
3447221;-0.27500
3449999;-0.29500
3452777;-0.29000
3455555;-0.28000
3458332;-0.26500
3461110;-0.28000
3463888;-0.29000
3466666;-0.29500
3469443;-0.29000
3472221;-0.27500
3474999;-0.27500
3477777;-0.28000
3480555;-0.29000
3483332;-0.30000
3486110;-0.29000
3488888;-0.28500
3491666;-0.27500
3494443;-0.28500
3497221;-0.29000
3499999;-0.30500
3502777;-0.29500
3505555;-0.29500
3508332;-0.28500
3511110;-0.28500
3513888;-0.30000
3516666;-0.31000
3519443;-0.31000
3522221;-0.30500
3524999;-0.31000
3527777;-0.31500
3530555;-0.31500
3533332;-0.32000
3536110;-0.34000
3538888;-0.31500
3541666;-0.31000
3544443;-0.32500
3547221;-0.33000
3549999;-0.34500
3552777;-0.32500
3555555;-0.33000
3558332;-0.32500
3561110;-0.32000
3563888;-0.32500
3566666;-0.34500
3569443;-0.32500
3572221;-0.31500
3574999;-0.32500
3577777;-0.31500
3580555;-0.31500
3583332;-0.32500
3586110;-0.32000
3588888;-0.31000
3591666;-0.31500
3594443;-0.30500
3597221;-0.31000
3599999;-0.32500
3602777;-0.31500
3605555;-0.32000
3608332;-0.31000
3611110;-0.30500
3613888;-0.31500
3616666;-0.32000
3619443;-0.30000
3622221;-0.31500
3624999;-0.31500
3627777;-0.31500
3630555;-0.33500
3633332;-0.33500
3636110;-0.33000
3638888;-0.32000
3641666;-0.31500
3644443;-0.31000
3647221;-0.31500
3649999;-0.32500
3652777;-0.31000
3655555;-0.29500
3658332;-0.28000
3661110;-0.26500
3663888;-0.25500
3666666;-0.27500
3669443;-0.25000
3672221;-0.23000
3674999;-0.22500
3677777;-0.22000
3680555;-0.22000
3683332;-0.22500
3686110;-0.19500
3688888;-0.19500
3691666;-0.18000
3694443;-0.18500
3697221;-0.20000
3699999;-0.21000
3702777;-0.21500
3705555;-0.23000
3708332;-0.21500
3711110;-0.21500
3713888;-0.22000
3716666;-0.22500
3719443;-0.22500
3722221;-0.22000
3724999;-0.21000
3727777;-0.20000
3730555;-0.18500
3733332;-0.20000
3736110;-0.21500
3738888;-0.24500
3741666;-0.25000
3744443;-0.27500
3747221;-0.29500
3749999;-0.30000
3752777;-0.30500
3755555;-0.30000
3758332;-0.31500
3761110;-0.32000
3763888;-0.35500
3766666;-0.34500
3769443;-0.34500
3772221;-0.33000
3774999;-0.33000
3777777;-0.33500
3780554;-0.35000
3783332;-0.35000
3786110;-0.34500
3788888;-0.34500
3791666;-0.32500
3794443;-0.34500
3797221;-0.34500
3799999;-0.35000
3802777;-0.34500
3805554;-0.34000
3808332;-0.33000
3811110;-0.32500
3813888;-0.33000
3816666;-0.33000
3819443;-0.33000
3822221;-0.32500
3824999;-0.32000
3827777;-0.35000
3830554;-0.40000
3833332;-0.44000
3836110;-0.46500
3838888;-0.46000
3841666;-0.49000
3844443;-0.51500
3847221;-0.50000
3849999;-0.39000
3852777;-0.20500
3855554;0.01500
3858332;0.24500
3861110;0.54000
3863888;0.83500
3866666;1.07000
3869443;1.20500
3872221;1.17500
3874999;0.89000
3877777;0.38000
3880554;-0.11500
3883332;-0.41000
3886110;-0.47500
3888888;-0.40000
3891666;-0.33000
3894443;-0.30500
3897221;-0.33000
3899999;-0.33500
3902777;-0.34000
3905554;-0.34500
3908332;-0.33500
3911110;-0.35000
3913888;-0.36000
3916666;-0.37500
3919443;-0.37000
3922221;-0.36000
3924999;-0.36500
3927777;-0.36500
3930554;-0.37500
3933332;-0.37500
3936110;-0.37500
3938888;-0.37500
3941666;-0.36500
3944443;-0.37000
3947221;-0.38000
3949999;-0.38500
3952777;-0.37500
3955554;-0.36500
3958332;-0.35500
3961110;-0.36500
3963888;-0.36500
3966666;-0.37000
3969443;-0.36000
3972221;-0.35000
3974999;-0.34000
3977777;-0.34500
3980554;-0.34500
3983332;-0.35500
3986110;-0.34500
3988888;-0.34000
3991666;-0.33000
3994443;-0.35000
3997221;-0.36000
3999999;-0.37000
4002777;-0.36000
4005554;-0.36000
4008332;-0.35000
4011110;-0.36000
4013888;-0.38000
4016666;-0.38500
4019443;-0.36500
4022221;-0.36000
4024999;-0.36000
4027777;-0.36500
4030554;-0.38000
4033332;-0.37500
4036110;-0.36500
4038888;-0.36000
4041666;-0.34000
4044443;-0.34500
4047221;-0.35500
4049999;-0.37500
4052777;-0.37000
4055554;-0.36500
4058332;-0.34500
4061110;-0.35500
4063888;-0.36000
4066666;-0.37000
4069443;-0.35500
4072221;-0.35500
4074999;-0.35000
4077777;-0.36000
4080554;-0.37500
4083332;-0.37500
4086110;-0.36500
4088888;-0.36000
4091666;-0.35500
4094443;-0.35000
4097221;-0.36500
4099999;-0.38000
4102777;-0.37500
4105554;-0.36000
4108332;-0.35500
4111110;-0.34500
4113888;-0.35500
4116666;-0.36000
4119443;-0.35500
4122221;-0.34500
4124999;-0.34000
4127777;-0.34500
4130554;-0.34500
4133332;-0.36000
4136110;-0.35000
4138888;-0.34000
4141666;-0.32000
4144443;-0.32000
4147221;-0.32500
4149999;-0.32000
4152777;-0.31000
4155554;-0.30500
4158332;-0.29500
4161110;-0.29000
4163888;-0.28000
4166666;-0.28500
4169443;-0.28500
4172221;-0.26000
4174999;-0.24500
4177777;-0.25000
4180554;-0.24500
4183332;-0.25000
4186110;-0.24500
4188888;-0.23000
4191665;-0.23000
4194443;-0.23000
4197221;-0.24000
4199999;-0.24500
4202777;-0.23500
4205554;-0.23000
4208332;-0.22000
4211110;-0.22500
4213888;-0.23000
4216665;-0.24000
4219443;-0.23500
4222221;-0.22000
4224999;-0.23000
4227777;-0.23500
4230554;-0.25000
4233332;-0.25000
4236110;-0.25000
4238888;-0.24500
4241665;-0.23500
4244443;-0.24000
4247221;-0.24500
4249999;-0.25000
4252777;-0.25000
4255554;-0.23500
4258332;-0.23500
4261110;-0.23500
4263888;-0.24500
4266665;-0.23500
4269443;-0.25500
4272221;-0.24500
4274999;-0.23500
4277777;-0.25000
4280554;-0.25500
4283332;-0.26500
4286110;-0.26000
4288888;-0.24500
4291665;-0.24500
4294443;-0.25000
4297221;-0.27000
4299999;-0.27000
4302777;-0.27000
4305554;-0.26000
4308332;-0.24500
4311110;-0.26500
4313888;-0.28000
4316665;-0.29000
4319443;-0.29500
4322221;-0.27500
4324999;-0.29000
4327777;-0.29500
4330554;-0.29500
4333332;-0.30500
4336110;-0.29500
4338888;-0.28500
4341665;-0.28500
4344443;-0.29500
4347221;-0.31000
4349999;-0.32000
4352777;-0.30000
4355554;-0.29500
4358332;-0.29500
4361110;-0.29000
4363888;-0.30500
4366665;-0.31500
4369443;-0.30500
4372221;-0.31000
4374999;-0.29500
4377777;-0.29000
4380554;-0.31000
4383332;-0.31000
4386110;-0.30000
4388888;-0.30000
4391665;-0.29500
4394443;-0.30000
4397221;-0.30500
4399999;-0.30500
4402777;-0.29500
4405554;-0.30500
4408332;-0.29500
4411110;-0.29500
4413888;-0.31500
4416665;-0.31000
4419443;-0.31000
4422221;-0.29500
4424999;-0.29500
4427777;-0.29500
4430554;-0.29500
4433332;-0.30500
4436110;-0.28000
4438888;-0.26500
4441665;-0.24000
4444443;-0.22500
4447221;-0.21000
4449999;-0.21000
4452777;-0.20500
4455554;-0.19500
4458332;-0.19000
4461110;-0.18500
4463888;-0.18500
4466665;-0.17500
4469443;-0.17000
4472221;-0.16500
4474999;-0.15500
4477777;-0.17000
4480554;-0.19000
4483332;-0.20000
4486110;-0.20500
4488888;-0.19000
4491665;-0.19500
4494443;-0.20000
4497221;-0.20000
4499999;-0.21000
4502777;-0.22500
4505554;-0.20500
4508332;-0.18000
4511110;-0.16000
4513888;-0.17000
4516665;-0.19500
4519443;-0.22000
4522221;-0.23000
4524999;-0.24000
4527777;-0.25500
4530554;-0.27000
4533332;-0.28500
4536110;-0.28500
4538888;-0.28500
4541665;-0.29000
4544443;-0.29500
4547221;-0.31000
4549999;-0.31000
4552777;-0.31000
4555554;-0.30500
4558332;-0.29000
4561110;-0.30000
4563888;-0.31500
4566665;-0.32000
4569443;-0.31500
4572221;-0.31000
4574999;-0.32500
4577776;-0.33000
4580554;-0.33500
4583332;-0.32500
4586110;-0.31500
4588888;-0.31500
4591665;-0.31500
4594443;-0.31500
4597221;-0.32000
4599999;-0.32500
4602776;-0.31500
4605554;-0.32000
4608332;-0.32000
4611110;-0.32500
4613888;-0.36500
4616665;-0.41000
4619443;-0.43500
4622221;-0.44000
4624999;-0.45500
4627776;-0.50000
4630554;-0.50500
4633332;-0.44500
4636110;-0.30000
4638888;-0.11000
4641665;0.09500
4644443;0.31000
4647221;0.58000
4649999;0.86000
4652776;1.08500
4655554;1.20500
4658332;1.20000
4661110;1.04000
4663888;0.65500
4666665;0.18500
4669443;-0.20500
4672221;-0.42500
4674999;-0.48000
4677776;-0.45500
4680554;-0.42500
4683332;-0.39000
4686110;-0.34000
4688888;-0.33000
4691665;-0.33500
4694443;-0.34500
4697221;-0.36000
4699999;-0.35500
4702776;-0.35500
4705554;-0.35500
4708332;-0.34000
4711110;-0.34500
4713888;-0.34500
4716665;-0.35500
4719443;-0.36500
4722221;-0.35500
4724999;-0.34500
4727776;-0.35500
4730554;-0.37000
4733332;-0.36500
4736110;-0.38500
4738888;-0.37000
4741665;-0.35500
4744443;-0.36000
4747221;-0.38000
4749999;-0.37500
4752776;-0.37500
4755554;-0.36000
4758332;-0.37000
4761110;-0.36500
4763888;-0.37500
4766665;-0.38000
4769443;-0.37500
4772221;-0.36000
4774999;-0.35500
4777776;-0.37000
4780554;-0.37500
4783332;-0.38000
4786110;-0.35500
4788888;-0.36000
4791665;-0.34500
4794443;-0.35000
4797221;-0.35500
4799999;-0.36000
4802776;-0.36000
4805554;-0.35000
4808332;-0.34500
4811110;-0.34000
4813888;-0.35000
4816665;-0.37000
4819443;-0.36500
4822221;-0.35500
4824999;-0.34000
4827776;-0.35000
4830554;-0.34500
4833332;-0.37500
4836110;-0.36000
4838888;-0.35000
4841665;-0.35500
4844443;-0.34000
4847221;-0.35000
4849999;-0.37500
4852776;-0.36000
4855554;-0.35000
4858332;-0.34000
4861110;-0.34000
4863888;-0.34500
4866665;-0.36000
4869443;-0.37000
4872221;-0.34500
4874999;-0.34000
4877776;-0.35000
4880554;-0.35000
4883332;-0.37500
4886110;-0.37000
4888888;-0.36500
4891665;-0.36500
4894443;-0.36000
4897221;-0.37500
4899999;-0.37500
4902776;-0.36500
4905554;-0.36000
4908332;-0.34500
4911110;-0.35000
4913888;-0.36000
4916665;-0.35000
4919443;-0.34500
4922221;-0.35500
4924999;-0.34500
4927776;-0.35000
4930554;-0.35000
4933332;-0.35500
4936110;-0.35000
4938888;-0.33000
4941665;-0.32000
4944443;-0.33000
4947221;-0.32000
4949999;-0.32500
4952776;-0.30500
4955554;-0.29000
4958332;-0.27500
4961110;-0.27500
4963887;-0.27500
4966665;-0.27000
4969443;-0.27000
4972221;-0.24500
4974999;-0.24000
4977776;-0.23500
4980554;-0.24500
4983332;-0.25500
4986110;-0.24500
4988887;-0.24500
4991665;-0.24000
4994443;-0.24000
4997221;-0.24000
4999999;-0.24500
5002776;-0.25000
5005554;-0.23000
5008332;-0.23500
5011110;-0.23500
5013887;-0.24500
5016665;-0.25500
5019443;-0.26000
5022221;-0.25000
5024999;-0.23000
5027776;-0.23500
5030554;-0.24500
5033332;-0.25000
5036110;-0.23500
5038887;-0.23500
5041665;-0.23000
5044443;-0.23000
5047221;-0.23500
5049999;-0.24500
5052776;-0.25000
5055554;-0.24000
5058332;-0.23000
5061110;-0.24500
5063887;-0.26000
5066665;-0.26500
5069443;-0.26500
5072221;-0.27000
5074999;-0.26000
5077776;-0.26000
5080554;-0.27500
5083332;-0.28000
5086110;-0.28500
5088887;-0.26500
5091665;-0.26000
5094443;-0.27000
5097221;-0.28000
5099999;-0.29000
5102776;-0.28000
5105554;-0.27000
5108332;-0.26500
5111110;-0.28500
5113887;-0.28500
5116665;-0.30000
5119443;-0.29000
5122221;-0.29000
5124999;-0.28500
5127776;-0.29500
5130554;-0.29500
5133332;-0.31000
5136110;-0.32000
5138887;-0.29500
5141665;-0.29500
5144443;-0.30000
5147221;-0.31000
5149999;-0.32000
5152776;-0.31500
5155554;-0.31000
5158332;-0.30000
5161110;-0.29500
5163887;-0.31000
5166665;-0.31500
5169443;-0.31000
5172221;-0.30500
5174999;-0.27500
5177776;-0.28500
5180554;-0.29500
5183332;-0.30000
5186110;-0.30000
5188887;-0.29000
5191665;-0.28000
5194443;-0.28500
5197221;-0.30000
5199999;-0.30500
5202776;-0.29500
5205554;-0.29000
5208332;-0.28500
5211110;-0.28000
5213887;-0.29000
5216665;-0.29000
5219443;-0.28500
5222221;-0.26500
5224999;-0.24500
5227776;-0.23500
5230554;-0.22500
5233332;-0.22500
5236110;-0.21000
5238887;-0.20000
5241665;-0.20500
5244443;-0.19500
5247221;-0.19000
5249999;-0.18500
5252776;-0.17000
5255554;-0.16000
5258332;-0.13500
5261110;-0.14000
5263887;-0.16000
5266665;-0.19000
5269443;-0.18500
5272221;-0.17000
5274999;-0.18000
5277776;-0.18500
5280554;-0.19500
5283332;-0.21000
5286110;-0.21500
5288887;-0.21000
5291665;-0.19500
5294443;-0.16500
5297221;-0.15500
5299999;-0.14500
5302776;-0.13500
5305554;-0.13500
5308332;-0.15500
5311110;-0.19000
5313887;-0.21500
5316665;-0.23500
5319443;-0.25000
5322221;-0.25000
5324999;-0.25500
5327776;-0.26000
5330554;-0.28500
5333332;-0.30000
5336110;-0.28500
5338887;-0.27500
5341665;-0.25500
5344443;-0.27500
5347221;-0.29000
5349999;-0.30500
5352776;-0.30000
5355554;-0.29000
5358332;-0.29000
5361110;-0.29000
5363887;-0.30500
5366665;-0.31500
5369443;-0.31000
5372221;-0.29500
5374998;-0.29500
5377776;-0.30000
5380554;-0.30500
5383332;-0.30500
5386110;-0.30000
5388887;-0.28500
5391665;-0.30000
5394443;-0.32500
5397221;-0.37000
5399998;-0.42000
5402776;-0.43500
5405554;-0.44000
5408332;-0.47500
5411110;-0.47000
5413887;-0.40500
5416665;-0.27500
5419443;-0.12000
5422221;0.04500
5424998;0.23500
5427776;0.45500
5430554;0.66500
5433332;0.84000
5436110;0.96500
5438887;1.07000
5441665;1.15000
5444443;1.21000
5447221;1.21500
5449998;1.08500
5452776;0.76500
5455554;0.33500
5458332;-0.07000
5461110;-0.33000
5463887;-0.42500
5466665;-0.41500
5469443;-0.35500
5472221;-0.30500
5474998;-0.29500
5477776;-0.30500
5480554;-0.32500
5483332;-0.34000
5486110;-0.33000
5488887;-0.31500
5491665;-0.32500
5494443;-0.32500
5497221;-0.33500
5499998;-0.35000
5502776;-0.34500
5505554;-0.33000
5508332;-0.33000
5511110;-0.32500
5513887;-0.35000
5516665;-0.36500
5519443;-0.36000
5522221;-0.35500
5524998;-0.36000
5527776;-0.35500
5530554;-0.36000
5533332;-0.36500
5536110;-0.34500
5538887;-0.33500
5541665;-0.33500
5544443;-0.33000
5547221;-0.35000
5549998;-0.36000
5552776;-0.35500
5555554;-0.34000
5558332;-0.33500
5561110;-0.33500
5563887;-0.35000
5566665;-0.36000
5569443;-0.35500
5572221;-0.37000
5574998;-0.35000
5577776;-0.36500
5580554;-0.35500
5583332;-0.36000
5586110;-0.35500
5588887;-0.34500
5591665;-0.33000
5594443;-0.35000
5597221;-0.36000
5599998;-0.35000
5602776;-0.34500
5605554;-0.34000
5608332;-0.33500
5611110;-0.33500
5613887;-0.34500
5616665;-0.36000
5619443;-0.35500
5622221;-0.35000
5624998;-0.34000
5627776;-0.34500
5630554;-0.36000
5633332;-0.36000
5636110;-0.37000
5638887;-0.36000
5641665;-0.35500
5644443;-0.34500
5647221;-0.35000
5649998;-0.35500
5652776;-0.36000
5655554;-0.36000
5658332;-0.35500
5661110;-0.36000
5663887;-0.36500
5666665;-0.37000
5669443;-0.36500
5672221;-0.35500
5674998;-0.36000
5677776;-0.36000
5680554;-0.37500
5683332;-0.37500
5686110;-0.36500
5688887;-0.35000
5691665;-0.35000
5694443;-0.35000
5697221;-0.35500
5699998;-0.36500
5702776;-0.34500
5705554;-0.34500
5708332;-0.34000
5711110;-0.34500
5713887;-0.34000
5716665;-0.34500
5719443;-0.32000
5722221;-0.30000
5724998;-0.28000
5727776;-0.28000
5730554;-0.27000
5733332;-0.29500
5736110;-0.29000
5738887;-0.28500
5741665;-0.26500
5744443;-0.26500
5747221;-0.25500
5749998;-0.26500
5752776;-0.26000
5755554;-0.25500
5758332;-0.23000
5761109;-0.23000
5763887;-0.24000
5766665;-0.24500
5769443;-0.24000
5772221;-0.24500
5774998;-0.24500
5777776;-0.25500
5780554;-0.28000
5783332;-0.27500
5786109;-0.27500
5788887;-0.26000
5791665;-0.24500
5794443;-0.26000
5797221;-0.27000
5799998;-0.28000
5802776;-0.28000
5805554;-0.28000
5808332;-0.26500
5811109;-0.28500
5813887;-0.28500
5816665;-0.30500
5819443;-0.28500
5822221;-0.28000
5824998;-0.27000
5827776;-0.26500
5830554;-0.29000
5833332;-0.28000
5836109;-0.26500
5838887;-0.26500
5841665;-0.28000
5844443;-0.27500
5847221;-0.30000
5849998;-0.30500
5852776;-0.32000
5855554;-0.30500
5858332;-0.30500
5861109;-0.31000
5863887;-0.31500
5866665;-0.32500
5869443;-0.33000
5872221;-0.33500
5874998;-0.34000
5877776;-0.34000
5880554;-0.32000
5883332;-0.32500
5886109;-0.31000
5888887;-0.30000
5891665;-0.30500
5894443;-0.31500
5897221;-0.32000
5899998;-0.32500
5902776;-0.32000
5905554;-0.33500
5908332;-0.34000
5911109;-0.33500
5913887;-0.35000
5916665;-0.34500
5919443;-0.34500
5922221;-0.35500
5924998;-0.35000
5927776;-0.34000
5930554;-0.33000
5933332;-0.34000
5936109;-0.34000
5938887;-0.33500
5941665;-0.31000
5944443;-0.32500
5947221;-0.33500
5949998;-0.36000
5952776;-0.34500
5955554;-0.32000
5958332;-0.31500
5961109;-0.30000
5963887;-0.30500
5966665;-0.28500
5969443;-0.27500
5972221;-0.26000
5974998;-0.26000
5977776;-0.26500
5980554;-0.26000
5983332;-0.26000
5986109;-0.24000
5988887;-0.22000
5991665;-0.21000
5994443;-0.21000
5997221;-0.21500
5999998;-0.23500
6002776;-0.23000
6005554;-0.22500
6008332;-0.24000
6011109;-0.25000
6013887;-0.25000
6016665;-0.25000
6019443;-0.24500
6022221;-0.25000
6024998;-0.25000
6027776;-0.24000
6030554;-0.22500
6033332;-0.23500
6036109;-0.25500
6038887;-0.26500
6041665;-0.27500
6044443;-0.29000
6047221;-0.31500
6049998;-0.34000
6052776;-0.34000
6055554;-0.33500
6058332;-0.31500
6061109;-0.33000
6063887;-0.34500
6066665;-0.34000
6069443;-0.33000
6072221;-0.33500
6074998;-0.34500
6077776;-0.35000
6080554;-0.35500
6083332;-0.36500
6086109;-0.35500
6088887;-0.36500
6091665;-0.38000
6094443;-0.38000
6097221;-0.39000
6099998;-0.38000
6102776;-0.36500
6105554;-0.36500
6108332;-0.36500
6111109;-0.35000
6113887;-0.36000
6116665;-0.37000
6119443;-0.37000
6122221;-0.35500
6124998;-0.35500
6127776;-0.39000
6130554;-0.44000
6133332;-0.48000
6136109;-0.49000
6138887;-0.51500
6141665;-0.53000
6144443;-0.55000
6147221;-0.49500
6149998;-0.37000
6152776;-0.20000
6155554;0.00000
6158332;0.22500
6161109;0.49000
6163887;0.74000
6166665;0.91000
6169443;0.99000
6172220;0.90500
6174998;0.58000
6177776;0.11000
6180554;-0.29000
6183332;-0.49500
6186109;-0.52000
6188887;-0.48500
6191665;-0.42000
6194443;-0.38000
6197220;-0.39000
6199998;-0.41500
6202776;-0.42000
6205554;-0.41000
6208332;-0.39000
6211109;-0.39000
6213887;-0.39500
6216665;-0.39000
6219443;-0.37500
6222220;-0.36500
6224998;-0.35500
6227776;-0.38000
6230554;-0.39500
6233332;-0.42000
6236109;-0.40500
6238887;-0.39500
6241665;-0.39000
6244443;-0.39000
6247220;-0.40000
6249998;-0.41500
6252776;-0.41500
6255554;-0.41000
6258332;-0.40000
6261109;-0.40000
6263887;-0.41000
6266665;-0.41500
6269443;-0.41500
6272220;-0.41000
6274998;-0.39500
6277776;-0.41000
6280554;-0.42000
6283332;-0.43000
6286109;-0.42000
6288887;-0.42000
6291665;-0.40500
6294443;-0.40500
6297220;-0.41500
6299998;-0.43000
6302776;-0.42000
6305554;-0.40000
6308332;-0.41000
6311109;-0.40500
6313887;-0.41000
6316665;-0.42500
6319443;-0.42000
6322220;-0.42000
6324998;-0.41500
6327776;-0.42000
6330554;-0.42000
6333332;-0.42500
6336109;-0.42000
6338887;-0.42500
6341665;-0.41500
6344443;-0.41000
6347220;-0.42500
6349998;-0.42500
6352776;-0.43000
6355554;-0.41500
6358332;-0.41000
6361109;-0.39500
6363887;-0.41000
6366665;-0.41500
6369443;-0.41500
6372220;-0.41000
6374998;-0.41000
6377776;-0.42000
6380554;-0.42500
6383332;-0.44000
6386109;-0.44000
6388887;-0.44000
6391665;-0.43000
6394443;-0.43000
6397220;-0.43500
6399998;-0.44000
6402776;-0.43000
6405554;-0.42500
6408332;-0.42500
6411109;-0.44000
6413887;-0.44000
6416665;-0.46000
6419443;-0.45500
6422220;-0.46500
6424998;-0.46000
6427776;-0.46000
6430554;-0.46000
6433332;-0.48000
6436109;-0.45500
6438887;-0.45000
6441665;-0.44500
6444443;-0.43500
6447220;-0.43000
6449998;-0.42000
6452776;-0.41000
6455554;-0.38000
6458332;-0.37000
6461109;-0.35000
6463887;-0.34500
6466665;-0.35500
6469443;-0.34000
6472220;-0.33000
6474998;-0.31500
6477776;-0.31000
6480554;-0.31000
6483332;-0.31000
6486109;-0.30500
6488887;-0.29500
6491665;-0.28500
6494443;-0.29500
6497220;-0.30500
6499998;-0.31000
6502776;-0.29500
6505554;-0.30000
6508332;-0.29000
6511109;-0.28000
6513887;-0.29500
6516665;-0.30000
6519443;-0.29500
6522220;-0.29000
6524998;-0.29000
6527776;-0.29000
6530554;-0.29000
6533332;-0.29500
6536109;-0.30500
6538887;-0.29500
6541665;-0.28000
6544443;-0.30500
6547220;-0.30500
6549998;-0.31500
6552776;-0.31000
6555554;-0.31500
6558331;-0.30500
6561109;-0.32000
6563887;-0.32000
6566665;-0.34000
6569443;-0.33000
6572220;-0.32000
6574998;-0.31500
6577776;-0.31500
6580554;-0.32000
6583331;-0.33000
6586109;-0.33500
6588887;-0.32500
6591665;-0.31500
6594443;-0.31500
6597220;-0.31500
6599998;-0.34000
6602776;-0.33000
6605554;-0.31500
6608331;-0.31500
6611109;-0.32500
6613887;-0.33500
6616665;-0.34000
6619443;-0.34000
6622220;-0.33500
6624998;-0.33500
6627776;-0.34500
6630554;-0.35500
6633331;-0.36000
6636109;-0.35000
6638887;-0.34500
6641665;-0.33500
6644443;-0.35000
6647220;-0.35500
6649998;-0.35000
6652776;-0.35500
6655554;-0.33500
6658331;-0.34000
6661109;-0.33000
6663887;-0.33500
6666665;-0.35000
6669443;-0.34500
6672220;-0.34000
6674998;-0.33000
6677776;-0.32500
6680554;-0.32500
6683331;-0.35000
6686109;-0.33000
6688887;-0.31500
6691665;-0.32000
6694443;-0.32500
6697220;-0.34000
6699998;-0.34000
6702776;-0.33500
6705554;-0.31000
6708331;-0.29500
6711109;-0.28000
6713887;-0.27500
6716665;-0.26500
6719443;-0.27000
6722220;-0.25500
6724998;-0.24500
6727776;-0.25000
6730554;-0.24500
6733331;-0.24500
6736109;-0.24500
6738887;-0.24000
6741665;-0.22000
6744443;-0.22000
6747220;-0.21500
6749998;-0.22500
6752776;-0.22500
6755554;-0.22500
6758331;-0.23500
6761109;-0.23500
6763887;-0.25000
6766665;-0.25000
6769443;-0.24500
6772220;-0.23000
6774998;-0.23000
6777776;-0.24500
6780554;-0.25000
6783331;-0.24500
6786109;-0.22000
6788887;-0.21500
6791665;-0.22500
6794443;-0.26000
6797220;-0.29500
6799998;-0.31500
6802776;-0.32500
6805554;-0.33500
6808331;-0.33500
6811109;-0.35000
6813887;-0.36000
6816665;-0.36500
6819443;-0.36000
6822220;-0.35500
6824998;-0.33500
6827776;-0.33500
6830554;-0.35000
6833331;-0.35500
6836109;-0.36000
6838887;-0.35000
6841665;-0.35000
6844443;-0.34000
6847220;-0.36000
6849998;-0.37000
6852776;-0.37000
6855554;-0.35500
6858331;-0.36000
6861109;-0.36000
6863887;-0.37000
6866665;-0.37500
6869443;-0.38500
6872220;-0.38500
6874998;-0.43000
6877776;-0.47500
6880554;-0.50000
6883331;-0.50000
6886109;-0.50500
6888887;-0.53500
6891665;-0.55500
6894443;-0.53000
6897220;-0.41500
6899998;-0.25500
6902776;-0.05000
6905554;0.17000
6908331;0.44000
6911109;0.73000
6913887;0.96000
6916665;1.08000
6919443;1.08000
6922220;0.87500
6924998;0.43500
6927776;-0.07000
6930554;-0.42000
6933331;-0.51500
6936109;-0.47000
6938887;-0.39000
6941665;-0.35500
6944442;-0.37000
6947220;-0.38000
6949998;-0.40000
6952776;-0.40000
6955554;-0.39000
6958331;-0.37000
6961109;-0.37500
6963887;-0.39500
6966665;-0.41000
6969442;-0.40000
6972220;-0.40000
6974998;-0.38500
6977776;-0.38000
6980554;-0.39000
6983331;-0.41000
6986109;-0.40500
6988887;-0.39500
6991665;-0.38500
6994442;-0.39000
6997220;-0.41000
6999998;-0.42000
7002776;-0.40500
7005554;-0.41500
7008331;-0.42000
7011109;-0.41000
7013887;-0.41500
7016665;-0.42000
7019442;-0.42500
7022220;-0.41000
7024998;-0.42000
7027776;-0.42500
7030554;-0.41500
7033331;-0.43000
7036109;-0.43500
7038887;-0.41500
7041665;-0.40500
7044442;-0.41000
7047220;-0.42500
7049998;-0.43000
7052776;-0.42000
7055554;-0.41000
7058331;-0.40000
7061109;-0.41000
7063887;-0.41000
7066665;-0.43000
7069442;-0.41000
7072220;-0.40500
7074998;-0.40000
7077776;-0.40500
7080554;-0.42000
7083331;-0.43000
7086109;-0.42000
7088887;-0.42500
7091665;-0.40500
7094442;-0.41500
7097220;-0.41500
7099998;-0.42500
7102776;-0.42500
7105554;-0.41500
7108331;-0.40500
7111109;-0.40500
7113887;-0.41500
7116665;-0.42500
7119442;-0.42000
7122220;-0.42000
7124998;-0.40500
7127776;-0.41500
7130554;-0.41500
7133331;-0.43500
7136109;-0.42500
7138887;-0.42000
7141665;-0.41000
7144442;-0.41500
7147220;-0.42000
7149998;-0.43000
7152776;-0.43500
7155554;-0.43000
7158331;-0.42500
7161109;-0.41000
7163887;-0.42500
7166665;-0.43000
7169442;-0.43000
7172220;-0.42500
7174998;-0.42000
7177776;-0.40500
7180554;-0.41000
7183331;-0.42000
7186109;-0.41500
7188887;-0.40500
7191665;-0.39000
7194442;-0.37500
7197220;-0.37500
7199998;-0.38000
7202776;-0.36000
7205554;-0.34500
7208331;-0.32500
7211109;-0.33000
7213887;-0.31500
7216665;-0.32500
7219442;-0.31500
7222220;-0.31000
7224998;-0.30000
7227776;-0.29000
7230554;-0.30000
7233331;-0.31500
7236109;-0.30500
7238887;-0.30000
7241665;-0.31000
7244442;-0.31000
7247220;-0.30000
7249998;-0.31000
7252776;-0.30500
7255554;-0.30000
7258331;-0.29500
7261109;-0.29000
7263887;-0.30500
7266665;-0.30500
7269442;-0.31000
7272220;-0.30000
7274998;-0.30000
7277776;-0.30000
7280554;-0.31000
7283331;-0.33500
7286109;-0.32500
7288887;-0.31500
7291665;-0.31000
7294442;-0.31500
7297220;-0.31500
7299998;-0.33500
7302776;-0.32000
7305554;-0.32000
7308331;-0.31500
7311109;-0.31500
7313887;-0.32500
7316665;-0.34500
7319442;-0.34000
7322220;-0.33500
7324998;-0.32500
7327776;-0.32500
7330554;-0.33500
7333331;-0.35000
7336109;-0.33500
7338887;-0.33500
7341665;-0.33500
7344442;-0.32500
7347220;-0.34000
7349998;-0.35000
7352776;-0.36500
7355553;-0.35500
7358331;-0.35000
7361109;-0.35500
7363887;-0.36000
7366665;-0.37000
7369442;-0.36500
7372220;-0.35500
7374998;-0.35000
7377776;-0.36500
7380553;-0.37500
7383331;-0.37500
7386109;-0.37500
7388887;-0.37500
7391665;-0.37000
7394442;-0.36000
7397220;-0.37000
7399998;-0.37500
7402776;-0.37500
7405553;-0.36500
7408331;-0.35000
7411109;-0.34500
7413887;-0.35000
7416665;-0.37500
7419442;-0.36500
7422220;-0.35000
7424998;-0.36000
7427776;-0.34500
7430553;-0.35500
7433331;-0.36500
7436109;-0.36000
7438887;-0.35500
7441665;-0.35500
7444442;-0.35500
7447220;-0.36000
7449998;-0.37500
7452776;-0.36000
7455553;-0.33000
7458331;-0.30500
7461109;-0.29000
7463887;-0.29000
7466665;-0.29000
7469442;-0.28500
7472220;-0.27000
7474998;-0.25500
7477776;-0.25000
7480553;-0.24000
7483331;-0.24500
7486109;-0.23500
7488887;-0.22500
7491665;-0.22500
7494442;-0.22000
7497220;-0.23000
7499998;-0.25500
7502776;-0.25000
7505553;-0.24500
7508331;-0.25000
7511109;-0.26000
7513887;-0.27000
7516665;-0.27000
7519442;-0.26000
7522220;-0.25000
7524998;-0.24500
7527776;-0.25500
7530553;-0.26500
7533331;-0.27000
7536109;-0.24500
7538887;-0.22000
7541665;-0.21000
7544442;-0.24500
7547220;-0.28000
7549998;-0.29000
7552776;-0.31500
7555553;-0.31000
7558331;-0.31500
7561109;-0.33500
7563887;-0.34500
7566665;-0.37000
7569442;-0.36000
7572220;-0.35500
7574998;-0.34500
7577776;-0.33500
7580553;-0.34500
7583331;-0.35500
7586109;-0.36000
7588887;-0.36000
7591665;-0.36000
7594442;-0.36500
7597220;-0.38000
7599998;-0.39500
7602776;-0.38500
7605553;-0.37500
7608331;-0.36500
7611109;-0.36000
7613887;-0.36000
7616665;-0.37500
7619442;-0.37500
7622220;-0.37500
7624998;-0.37500
7627776;-0.39000
7630553;-0.42000
7633331;-0.46500
7636109;-0.49500
7638887;-0.50500
7641665;-0.52500
7644442;-0.56000
7647220;-0.60000
7649998;-0.57000
7652776;-0.48500
7655553;-0.35000
7658331;-0.20000
7661109;-0.06000
7663887;0.07500
7666665;0.24000
7669442;0.46000
7672220;0.71500
7674998;0.95000
7677776;1.08500
7680553;1.16000
7683331;1.16500
7686109;1.06000
7688887;0.73500
7691665;0.26000
7694442;-0.21000
7697220;-0.45000
7699998;-0.48000
7702776;-0.42000
7705553;-0.36500
7708331;-0.35000
7711109;-0.37000
7713887;-0.38500
7716665;-0.39500
7719442;-0.40000
7722220;-0.39500
7724998;-0.38000
7727776;-0.39500
7730553;-0.39000
7733331;-0.41000
7736109;-0.40000
7738887;-0.39000
7741664;-0.38000
7744442;-0.38500
7747220;-0.40000
7749998;-0.40000
7752776;-0.40500
7755553;-0.40000
7758331;-0.39500
7761109;-0.38500
7763887;-0.41000
7766664;-0.42500
7769442;-0.40500
7772220;-0.41500
7774998;-0.39500
7777776;-0.39000
7780553;-0.40500
7783331;-0.41500
7786109;-0.42000
7788887;-0.41000
7791664;-0.40000
7794442;-0.42000
7797220;-0.41500
7799998;-0.41000
7802776;-0.41500
7805553;-0.40500
7808331;-0.40000
7811109;-0.39500
7813887;-0.40000
7816664;-0.41500
7819442;-0.40000
7822220;-0.40500
7824998;-0.39000
7827776;-0.38500
7830553;-0.39500
7833331;-0.41000
7836109;-0.40500
7838887;-0.40000
7841664;-0.39000
7844442;-0.40000
7847220;-0.40500
7849998;-0.42500
7852776;-0.42000
7855553;-0.40500
7858331;-0.40500
7861109;-0.41500
7863887;-0.42500
7866664;-0.42500
7869442;-0.41500
7872220;-0.41000
7874998;-0.40000
7877776;-0.40000
7880553;-0.41000
7883331;-0.41500
7886109;-0.41500
7888887;-0.39500
7891664;-0.39500
7894442;-0.39000
7897220;-0.40000
7899998;-0.40500
7902776;-0.40500
7905553;-0.40500
7908331;-0.39500
7911109;-0.40500
7913887;-0.40500
7916664;-0.42000
7919442;-0.41000
7922220;-0.40500
7924998;-0.40500
7927776;-0.41000
7930553;-0.42500
7933331;-0.42500
7936109;-0.41000
7938887;-0.40500
7941664;-0.39000
7944442;-0.39000
7947220;-0.39000
7949998;-0.40000
7952776;-0.39500
7955553;-0.36500
7958331;-0.36000
7961109;-0.36500
7963887;-0.35000
7966664;-0.35000
7969442;-0.34000
7972220;-0.33000
7974998;-0.31500
7977776;-0.31000
7980553;-0.31500
7983331;-0.32500
7986109;-0.32000
7988887;-0.29000
7991664;-0.28000
7994442;-0.28500
7997220;-0.30500
7999998;-0.31500
8002776;-0.30000
8005553;-0.31000
8008331;-0.29500
8011109;-0.28500
8013887;-0.29500
8016664;-0.31000
8019442;-0.31000
8022220;-0.29500
8024998;-0.30000
8027776;-0.30000
8030553;-0.30000
8033331;-0.31000
8036109;-0.30000
8038887;-0.30500
8041664;-0.29000
8044442;-0.30000
8047220;-0.30500
8049998;-0.31500
8052776;-0.32000
8055553;-0.30500
8058331;-0.30000
8061109;-0.30500
8063887;-0.31000
8066664;-0.31500
8069442;-0.31500
8072220;-0.30000
8074998;-0.31000
8077776;-0.29500
8080553;-0.31000
8083331;-0.31500
8086109;-0.32000
8088887;-0.30500
8091664;-0.31500
8094442;-0.32500
8097220;-0.33500
8099998;-0.33500
8102776;-0.34000
8105553;-0.33500
8108331;-0.32500
8111109;-0.33000
8113887;-0.34500
8116664;-0.34500
8119442;-0.35500
8122220;-0.33500
8124998;-0.34500
8127776;-0.35500
8130553;-0.35500
8133331;-0.36500
8136109;-0.36000
8138887;-0.35000
8141664;-0.34000
8144442;-0.35000
8147220;-0.35000
8149998;-0.38000
8152775;-0.38000
8155553;-0.36000
8158331;-0.36000
8161109;-0.36500
8163887;-0.38000
8166664;-0.38000
8169442;-0.38000
8172220;-0.37500
8174998;-0.37000
8177775;-0.36500
8180553;-0.37500
8183331;-0.38500
8186109;-0.37500
8188887;-0.37500
8191664;-0.36500
8194442;-0.37000
8197220;-0.38000
8199998;-0.38500
8202775;-0.38000
8205553;-0.37000
8208331;-0.35500
8211109;-0.36000
8213887;-0.37000
8216664;-0.37000
8219442;-0.37000
8222220;-0.36000
8224998;-0.34500
8227775;-0.35000
8230553;-0.35500
8233331;-0.35500
8236109;-0.35500
8238887;-0.34500
8241664;-0.35000
8244442;-0.35000
8247220;-0.35000
8249998;-0.36000
8252775;-0.35000
8255553;-0.33500
8258331;-0.30500
8261109;-0.30500
8263887;-0.28500
8266664;-0.28500
8269442;-0.27500
8272220;-0.27500
8274998;-0.27000
8277775;-0.27000
8280553;-0.26500
8283331;-0.26500
8286109;-0.25000
8288887;-0.22000
8291664;-0.22500
8294442;-0.22500
8297220;-0.24000
8299998;-0.25000
8302775;-0.25000
8305553;-0.24500
8308331;-0.24000
8311109;-0.24000
8313887;-0.24500
8316664;-0.25500
8319442;-0.26000
8322220;-0.23500
8324998;-0.23000
8327775;-0.22000
8330553;-0.21000
8333331;-0.24000
8336109;-0.26500
8338887;-0.29000
8341664;-0.30000
8344442;-0.30000
8347220;-0.31500
8349998;-0.33500
8352775;-0.34000
8355553;-0.34500
8358331;-0.33500
8361109;-0.34500
8363887;-0.35500
8366664;-0.37000
8369442;-0.37000
8372220;-0.36500
8374998;-0.36000
8377775;-0.34500
8380553;-0.35500
8383331;-0.37500
8386109;-0.37500
8388887;-0.36500
8391664;-0.35000
8394442;-0.36000
8397220;-0.36500
8399998;-0.36500
8402775;-0.37500
8405553;-0.36000
8408331;-0.36000
8411109;-0.37000
8413887;-0.37000
8416664;-0.38500
8419442;-0.38500
8422220;-0.37000
8424998;-0.36500
8427775;-0.38500
8430553;-0.43000
8433331;-0.48000
8436109;-0.51000
8438887;-0.50500
8441664;-0.53000
8444442;-0.56500
8447220;-0.54500
8449998;-0.46000
8452775;-0.31000
8455553;-0.11000
8458331;0.10500
8461109;0.36000
8463887;0.66500
8466664;0.89500
8469442;1.03500
8472220;1.04500
8474998;0.91000
8477775;0.56000
8480553;0.13000
8483331;-0.24500
8486109;-0.44500
8488887;-0.49500
8491664;-0.43000
8494442;-0.39000
8497220;-0.37500
8499998;-0.41000
8502775;-0.40500
8505553;-0.40000
8508331;-0.39000
8511109;-0.38500
8513887;-0.39000
8516664;-0.40000
8519442;-0.41000
8522220;-0.41000
8524998;-0.40000
8527775;-0.38500
8530553;-0.39000
8533331;-0.40000
8536109;-0.39000
8538886;-0.39500
8541664;-0.37500
8544442;-0.37500
8547220;-0.38500
8549998;-0.40000
8552775;-0.39500
8555553;-0.38500
8558331;-0.37500
8561109;-0.38500
8563886;-0.40500
8566664;-0.42500
8569442;-0.41000
8572220;-0.40500
8574998;-0.40000
8577775;-0.40500
8580553;-0.41000
8583331;-0.42500
8586109;-0.41500
8588886;-0.41000
8591664;-0.40500
8594442;-0.39500
8597220;-0.41000
8599998;-0.40500
8602775;-0.42500
8605553;-0.40500
8608331;-0.40000
8611109;-0.40500
8613886;-0.42000
8616664;-0.41500
8619442;-0.41000
8622220;-0.39000
8624998;-0.37500
8627775;-0.39500
8630553;-0.41000
8633331;-0.42500
8636109;-0.42500
8638886;-0.43000
8641664;-0.42500
8644442;-0.42000
8647220;-0.41000
8649998;-0.42500
8652775;-0.42500
8655553;-0.41000
8658331;-0.39500
8661109;-0.40000
8663886;-0.40500
8666664;-0.41500
8669442;-0.40500
8672220;-0.41000
8674998;-0.40000
8677775;-0.40500
8680553;-0.41000
8683331;-0.41500
8686109;-0.41500
8688886;-0.41000
8691664;-0.38500
8694442;-0.39000
8697220;-0.39000
8699998;-0.40500
8702775;-0.40000
8705553;-0.40000
8708331;-0.40000
8711109;-0.39500
8713886;-0.40000
8716664;-0.43000
8719442;-0.43500
8722220;-0.42500
8724998;-0.41000
8727775;-0.41000
8730553;-0.41000
8733331;-0.41500
8736109;-0.41500
8738886;-0.41500
8741664;-0.41500
8744442;-0.42000
8747220;-0.42000
8749998;-0.41500
8752775;-0.41500
8755553;-0.41000
8758331;-0.39500
8761109;-0.39000
8763886;-0.38500
8766664;-0.38000
8769442;-0.36500
8772220;-0.35000
8774998;-0.34500
8777775;-0.34500
8780553;-0.34000
8783331;-0.34000
8786109;-0.34000
8788886;-0.33000
8791664;-0.32500
8794442;-0.32500
8797220;-0.32000
8799998;-0.33500
8802775;-0.32500
8805553;-0.31000
8808331;-0.30500
8811109;-0.30500
8813886;-0.31000
8816664;-0.31000
8819442;-0.31000
8822220;-0.30500
8824998;-0.30500
8827775;-0.31000
8830553;-0.32000
8833331;-0.32500
8836109;-0.34000
8838886;-0.31000
8841664;-0.31000
8844442;-0.31500
8847220;-0.31000
8849998;-0.33000
8852775;-0.34000
8855553;-0.33500
8858331;-0.33000
8861109;-0.33000
8863886;-0.33500
8866664;-0.34000
8869442;-0.33000
8872220;-0.32000
8874998;-0.31500
8877775;-0.33500
8880553;-0.34500
8883331;-0.34500
8886109;-0.33500
8888886;-0.32500
8891664;-0.31000
8894442;-0.33500
8897220;-0.35000
8899998;-0.36000
8902775;-0.36000
8905553;-0.35500
8908331;-0.36000
8911109;-0.34500
8913886;-0.35000
8916664;-0.37000
8919442;-0.38000
8922220;-0.37500
8924998;-0.36500
8927775;-0.37000
8930553;-0.38000
8933331;-0.38500
8936109;-0.38000
8938886;-0.36500
8941664;-0.36000
8944442;-0.37500
8947220;-0.38000
8949997;-0.40000
8952775;-0.39500
8955553;-0.37500
8958331;-0.37000
8961109;-0.37500
8963886;-0.39000
8966664;-0.40500
8969442;-0.40000
8972220;-0.41000
8974997;-0.38000
8977775;-0.38500
8980553;-0.39500
8983331;-0.41000
8986109;-0.40500
8988886;-0.40500
8991664;-0.38500
8994442;-0.39500
8997220;-0.40000
8999997;-0.40000
9002775;-0.40500
9005553;-0.38500
9008331;-0.38000
9011109;-0.39000
9013886;-0.40000
9016664;-0.40500
9019442;-0.40500
9022220;-0.40500
9024997;-0.39000
9027775;-0.39000
9030553;-0.38500
9033331;-0.38500
9036109;-0.38500
9038886;-0.36500
9041664;-0.34000
9044442;-0.33000
9047220;-0.33000
9049997;-0.34500
9052775;-0.34500
9055553;-0.34500
9058331;-0.32000
9061109;-0.32000
9063886;-0.31500
9066664;-0.31500
9069442;-0.30000
9072220;-0.28500
9074997;-0.28500
9077775;-0.29000
9080553;-0.29000
9083331;-0.28000
9086109;-0.28500
9088886;-0.28000
9091664;-0.27000
9094442;-0.28000
9097220;-0.29500
9099997;-0.30000
9102775;-0.30000
9105553;-0.29500
9108331;-0.28500
9111109;-0.28000
9113886;-0.30000
9116664;-0.32000
9119442;-0.33000
9122220;-0.32000
9124997;-0.29500
9127775;-0.28500
9130553;-0.29500
9133331;-0.33000
9136109;-0.34000
9138886;-0.33500
9141664;-0.33500
9144442;-0.37500
9147220;-0.39500
9149997;-0.41500
9152775;-0.42500
9155553;-0.42500
9158331;-0.42500
9161109;-0.41000
9163886;-0.40500
9166664;-0.42000
9169442;-0.43000
9172220;-0.42500
9174997;-0.43000
9177775;-0.42000
9180553;-0.43500
9183331;-0.43500
9186109;-0.44500
9188886;-0.42500
9191664;-0.42500
9194442;-0.44500
9197220;-0.45000
9199997;-0.43500
9202775;-0.44000
9205553;-0.43000
9208331;-0.41000
9211109;-0.42500
9213886;-0.43000
9216664;-0.45000
9219442;-0.48000
9222220;-0.50500
9224997;-0.53000
9227775;-0.52000
9230553;-0.52500
9233331;-0.54500
9236109;-0.55500
9238886;-0.59500
9241664;-0.62000
9244442;-0.65500
9247220;-0.64000
9249997;-0.61500
9252775;-0.50000
9255553;-0.35000
9258331;-0.19500
9261109;0.00500
9263886;0.23500
9266664;0.49500
9269442;0.74000
9272220;0.90000
9274997;0.94500
9277775;0.78500
9280553;0.42000
9283331;-0.00500
9286109;-0.33500
9288886;-0.51500
9291664;-0.55000
9294442;-0.56500
9297220;-0.52500
9299997;-0.48500
9302775;-0.45000
9305553;-0.45000
9308331;-0.43000
9311109;-0.45000
9313886;-0.44000
9316664;-0.44000
9319442;-0.45500
9322220;-0.46500
9324997;-0.47500
9327775;-0.47500
9330553;-0.46000
9333331;-0.45000
9336108;-0.46000
9338886;-0.44500
9341664;-0.44500
9344442;-0.45000
9347220;-0.47000
9349997;-0.46000
9352775;-0.46000
9355553;-0.44500
9358331;-0.44000
9361108;-0.44500
9363886;-0.46000
9366664;-0.47000
9369442;-0.47000
9372220;-0.45000
9374997;-0.45500
9377775;-0.48000
9380553;-0.48000
9383331;-0.47500
9386108;-0.46500
9388886;-0.45500
9391664;-0.44500
9394442;-0.45500
9397220;-0.47500
9399997;-0.49000
9402775;-0.49000
9405553;-0.47500
9408331;-0.46000
9411108;-0.46500
9413886;-0.47000
9416664;-0.47500
9419442;-0.47500
9422220;-0.46500
9424997;-0.45000
9427775;-0.45000
9430553;-0.45500
9433331;-0.46000
9436108;-0.46500
9438886;-0.46000
9441664;-0.44500
9444442;-0.45500
9447220;-0.47000
9449997;-0.47500
9452775;-0.47500
9455553;-0.46000
9458331;-0.45500
9461108;-0.45500
9463886;-0.47000
9466664;-0.47000
9469442;-0.48500
9472220;-0.48000
9474997;-0.47000
9477775;-0.47500
9480553;-0.47000
9483331;-0.47500
9486108;-0.48500
9488886;-0.48500
9491664;-0.47000
9494442;-0.48000
9497220;-0.49500
9499997;-0.50500
9502775;-0.51000
9505553;-0.50000
9508331;-0.49500
9511108;-0.50500
9513886;-0.51500
9516664;-0.52000
9519442;-0.52500
9522220;-0.50000
9524997;-0.49500
9527775;-0.50000
9530553;-0.51500
9533331;-0.51000
9536108;-0.51500
9538886;-0.51000
9541664;-0.48500
9544442;-0.48000
9547220;-0.47000
9549997;-0.46000
9552775;-0.47000
9555553;-0.45000
9558331;-0.42500
9561108;-0.43000
9563886;-0.44000
9566664;-0.44500
9569442;-0.42500
9572220;-0.40000
9574997;-0.38000
9577775;-0.38000
9580553;-0.36500
9583331;-0.36000
9586108;-0.36500
9588886;-0.36500
9591664;-0.35500
9594442;-0.35500
9597220;-0.34500
9599997;-0.35500
9602775;-0.36000
9605553;-0.34000
9608331;-0.32000
9611108;-0.32500
9613886;-0.33000
9616664;-0.33500
9619442;-0.33500
9622220;-0.33000
9624997;-0.32000
9627775;-0.32000
9630553;-0.33000
9633331;-0.33500
9636108;-0.32000
9638886;-0.32500
9641664;-0.32500
9644442;-0.31500
9647220;-0.31500
9649997;-0.33000
9652775;-0.33500
9655553;-0.32500
9658331;-0.32000
9661108;-0.32000
9663886;-0.33000
9666664;-0.33500
9669442;-0.34500
9672220;-0.34000
9674997;-0.33500
9677775;-0.35000
9680553;-0.34500
9683331;-0.34000
9686108;-0.35500
9688886;-0.34500
9691664;-0.35000
9694442;-0.35000
9697220;-0.35500
9699997;-0.37000
9702775;-0.35000
9705553;-0.35500
9708331;-0.34500
9711108;-0.35500
9713886;-0.36000
9716664;-0.38500
9719442;-0.38500
9722220;-0.36500
9724997;-0.35000
9727775;-0.35500
9730553;-0.36500
9733331;-0.37000
9736108;-0.38000
9738886;-0.36500
9741664;-0.35500
9744442;-0.36000
9747219;-0.37000
9749997;-0.39000
9752775;-0.39000
9755553;-0.38000
9758331;-0.35500
9761108;-0.36500
9763886;-0.37500
9766664;-0.37500
9769442;-0.39000
9772219;-0.38500
9774997;-0.36500
9777775;-0.37000
9780553;-0.36500
9783331;-0.38000
9786108;-0.36500
9788886;-0.37000
9791664;-0.36000
9794442;-0.36500
9797219;-0.36000
9799997;-0.36500
9802775;-0.36500
9805553;-0.36000
9808331;-0.35000
9811108;-0.34500
9813886;-0.35500
9816664;-0.34500
9819442;-0.34500
9822219;-0.35000
9824997;-0.34000
9827775;-0.35000
9830553;-0.36000
9833331;-0.36000
9836108;-0.36500
9838886;-0.35500
9841664;-0.32500
9844442;-0.33000
9847219;-0.33000
9849997;-0.31000
9852775;-0.30000
9855553;-0.27500
9858331;-0.27000
9861108;-0.25000
9863886;-0.25000
9866664;-0.27000
9869442;-0.26000
9872219;-0.23500
9874997;-0.22000
9877775;-0.23000
9880553;-0.23000
9883331;-0.23500
9886108;-0.23500
9888886;-0.22500
9891664;-0.20500
9894442;-0.21000
9897219;-0.22000
9899997;-0.24500
9902775;-0.26500
9905553;-0.25500
9908331;-0.24000
9911108;-0.26000
9913886;-0.25000
9916664;-0.25000
9919442;-0.27500
9922219;-0.27500
9924997;-0.26500
9927775;-0.24500
9930553;-0.22000
9933331;-0.23500
9936108;-0.27000
9938886;-0.28500
9941664;-0.28500
9944442;-0.30500
9947219;-0.32500
9949997;-0.34500
9952775;-0.35000
9955553;-0.35000
9958331;-0.36500
9961108;-0.36000
9963886;-0.36000
9966664;-0.37500
9969442;-0.37500
9972219;-0.37000
9974997;-0.35000
9977775;-0.36500
9980553;-0.37000
9983331;-0.38000
9986108;-0.39000
9988886;-0.37500
9991664;-0.36000
9994442;-0.37000
9997219;-0.37000
9999997;-0.37000
10002775;-0.38000
10005553;-0.37000
10008331;-0.36000
10011108;-0.37000
10013886;-0.36500
10016664;-0.38000
10019442;-0.39000
10022219;-0.40000
10024997;-0.43500
10027775;-0.49000
10030553;-0.52000
10033331;-0.54500
10036108;-0.58500
10038886;-0.62000
10041664;-0.62000
10044442;-0.57500
10047219;-0.49500
10049997;-0.39500
10052775;-0.28000
10055553;-0.13500
10058331;0.00000
10061108;0.15500
10063886;0.34500
10066664;0.58500
10069442;0.82000
10072219;1.02500
10074997;1.13000
10077775;1.12500
10080553;0.92000
10083331;0.50000
10086108;0.00000
10088886;-0.36000
10091664;-0.48500
10094442;-0.45000
10097219;-0.40500
10099997;-0.37500
10102775;-0.36500
10105553;-0.36500
10108331;-0.36500
10111108;-0.36500
10113886;-0.36500
10116664;-0.39000
10119442;-0.39500
10122219;-0.40000
10124997;-0.38500
10127775;-0.39000
10130553;-0.39000
10133330;-0.41000
10136108;-0.40500
10138886;-0.40500
10141664;-0.40000
10144442;-0.39000
10147219;-0.39500
10149997;-0.40000
10152775;-0.40000
10155553;-0.39500
10158330;-0.38500
10161108;-0.39000
10163886;-0.40000
10166664;-0.41000
10169442;-0.42000
10172219;-0.40500
10174997;-0.39000
10177775;-0.40000
10180553;-0.40000
10183330;-0.40500
10186108;-0.40500
10188886;-0.40000
10191664;-0.39500
10194442;-0.39000
10197219;-0.40500
10199997;-0.41000
10202775;-0.41000
10205553;-0.40500
10208330;-0.40000
10211108;-0.39500
10213886;-0.40000
10216664;-0.40500
10219442;-0.41500
10222219;-0.39500
10224997;-0.39500
10227775;-0.39500
10230553;-0.39500
10233330;-0.40500
10236108;-0.41000
10238886;-0.40500
10241664;-0.40000
10244442;-0.39500
10247219;-0.41000
10249997;-0.41500
10252775;-0.42000
10255553;-0.42000
10258330;-0.40500
10261108;-0.40500
10263886;-0.40000
10266664;-0.40500
10269442;-0.40500
10272219;-0.39500
10274997;-0.39000
10277775;-0.38000
10280553;-0.39500
10283330;-0.42000
10286108;-0.42500
10288886;-0.40500
10291664;-0.41500
10294442;-0.41000
10297219;-0.43000
10299997;-0.43500
10302775;-0.42000
10305553;-0.41500
10308330;-0.41000
10311108;-0.41500
10313886;-0.42000
10316664;-0.42000
10319442;-0.43000
10322219;-0.40500
10324997;-0.40000
10327775;-0.40000
10330553;-0.40000
10333330;-0.40000
10336108;-0.40000
10338886;-0.39000
10341664;-0.38000
10344442;-0.37500
10347219;-0.36500
10349997;-0.37500
10352775;-0.37500
10355553;-0.36000
10358330;-0.34000
10361108;-0.31500
10363886;-0.32500
10366664;-0.32000
10369442;-0.33000
10372219;-0.30500
10374997;-0.29000
10377775;-0.29000
10380553;-0.29000
10383330;-0.29000
10386108;-0.28500
10388886;-0.27500
10391664;-0.27000
10394442;-0.27500
10397219;-0.27500
10399997;-0.28500
10402775;-0.28500
10405553;-0.27500
10408330;-0.27000
10411108;-0.26500
10413886;-0.27500
10416664;-0.28500
10419442;-0.28500
10422219;-0.28500
10424997;-0.27000
10427775;-0.27000
10430553;-0.29000
10433330;-0.29500
10436108;-0.29500
10438886;-0.28000
10441664;-0.27500
10444442;-0.26500
10447219;-0.28000
10449997;-0.29000
10452775;-0.29000
10455553;-0.29500
10458330;-0.28500
10461108;-0.28500
10463886;-0.29500
10466664;-0.30000
10469442;-0.29500
10472219;-0.29500
10474997;-0.28500
10477775;-0.28500
10480553;-0.28500
10483330;-0.29500
10486108;-0.31000
10488886;-0.29500
10491664;-0.29000
10494442;-0.29000
10497219;-0.29500
10499997;-0.31500
10502775;-0.32000
10505553;-0.30500
10508330;-0.30500
10511108;-0.32000
10513886;-0.32500
10516664;-0.34000
10519441;-0.34500
10522219;-0.33500
10524997;-0.32000
10527775;-0.33000
10530553;-0.32500
10533330;-0.34500
10536108;-0.34500
10538886;-0.34500
10541664;-0.33500
10544441;-0.33000
10547219;-0.33000
10549997;-0.34500
10552775;-0.35500
10555553;-0.34500
10558330;-0.33500
10561108;-0.33000
10563886;-0.34000
10566664;-0.34000
10569441;-0.34500
10572219;-0.33500
10574997;-0.32000
10577775;-0.31500
10580553;-0.33500
10583330;-0.35000
10586108;-0.34000
10588886;-0.34500
10591664;-0.33500
10594441;-0.34500
10597219;-0.34500
10599997;-0.34000
10602775;-0.35500
10605553;-0.33000
10608330;-0.32000
10611108;-0.34000
10613886;-0.33500
10616664;-0.34000
10619441;-0.34500
10622219;-0.34500
10624997;-0.32000
10627775;-0.32000
10630553;-0.32000
10633330;-0.31500
10636108;-0.32000
10638886;-0.30000
10641664;-0.29000
10644441;-0.26000
10647219;-0.25500
10649997;-0.25500
10652775;-0.26000
10655553;-0.24500
10658330;-0.22000
10661108;-0.25000
10663886;-0.24000
10666664;-0.22000
10669441;-0.22000
10672219;-0.20000
10674997;-0.20000
10677775;-0.20000
10680553;-0.20500
10683330;-0.22000
10686108;-0.23500
10688886;-0.22500
10691664;-0.23500
10694441;-0.22000
10697219;-0.22000
10699997;-0.23000
10702775;-0.24500
10705553;-0.22500
10708330;-0.21000
10711108;-0.19500
10713886;-0.17500
10716664;-0.18500
10719441;-0.20000
10722219;-0.23000
10724997;-0.24000
10727775;-0.25500
10730553;-0.27500
10733330;-0.28000
10736108;-0.29500
10738886;-0.30000
10741664;-0.30000
10744441;-0.30500
10747219;-0.31000
10749997;-0.32500
10752775;-0.34000
10755553;-0.34000
10758330;-0.34000
10761108;-0.32500
10763886;-0.34000
10766664;-0.34500
10769441;-0.34500
10772219;-0.34000
10774997;-0.33500
10777775;-0.34000
10780553;-0.35000
10783330;-0.36000
10786108;-0.35000
10788886;-0.34000
10791664;-0.33500
10794441;-0.33500
10797219;-0.33000
10799997;-0.35000
10802775;-0.35500
10805553;-0.34000
10808330;-0.33000
10811108;-0.32000
10813886;-0.34500
10816664;-0.36000
10819441;-0.37500
10822219;-0.41000
10824997;-0.43500
10827775;-0.47000
10830553;-0.49000
10833330;-0.52500
10836108;-0.55500
10838886;-0.54500
10841664;-0.46000
10844441;-0.30500
10847219;-0.12500
10849997;0.05000
10852775;0.27500
10855553;0.56000
10858330;0.83500
10861108;1.03500
10863886;1.12500
10866664;1.08000
10869441;0.81500
10872219;0.36000
10874997;-0.09000
10877775;-0.38500
10880553;-0.46500
10883330;-0.43000
10886108;-0.36000
10888886;-0.33000
10891664;-0.32000
10894441;-0.34500
10897219;-0.36000
10899997;-0.37000
10902775;-0.38000
10905553;-0.37500
10908330;-0.37500
10911108;-0.37000
10913886;-0.37000
10916664;-0.38500
10919441;-0.40000
10922219;-0.40000
10924997;-0.38000
10927775;-0.37500
10930552;-0.38500
10933330;-0.39500
10936108;-0.39000
10938886;-0.37500
10941664;-0.37500
10944441;-0.37000
10947219;-0.39500
10949997;-0.38500
10952775;-0.39000
10955552;-0.38500
10958330;-0.37000
10961108;-0.37500
10963886;-0.39000
10966664;-0.39000
10969441;-0.39500
10972219;-0.37500
10974997;-0.36000
10977775;-0.36500
10980552;-0.37500
10983330;-0.38000
10986108;-0.38500
10988886;-0.37500
10991664;-0.37000
10994441;-0.37500
10997219;-0.38000
10999997;-0.39000
11002775;-0.38500
11005552;-0.37500
11008330;-0.37500
11011108;-0.37500
11013886;-0.37000
11016664;-0.38000
11019441;-0.38000
11022219;-0.37000
11024997;-0.37000
11027775;-0.37000
11030552;-0.38000
11033330;-0.38500
11036108;-0.38000
11038886;-0.37500
11041664;-0.37500
11044441;-0.37000
11047219;-0.37500
11049997;-0.38500
11052775;-0.39500
11055552;-0.38000
11058330;-0.37000
11061108;-0.37000
11063886;-0.37500
11066664;-0.36500
11069441;-0.37500
11072219;-0.36000
11074997;-0.36500
11077775;-0.36000
11080552;-0.36500
11083330;-0.37500
11086108;-0.37000
11088886;-0.38000
11091664;-0.36500
11094441;-0.37000
11097219;-0.38000
11099997;-0.38500
11102775;-0.39500
11105552;-0.37500
11108330;-0.36500
11111108;-0.37000
11113886;-0.37500
11116664;-0.38500
11119441;-0.38500
11122219;-0.37000
11124997;-0.35500
11127775;-0.36500
11130552;-0.36500
11133330;-0.35000
11136108;-0.36500
11138886;-0.34000
11141664;-0.32500
11144441;-0.32000
11147219;-0.31500
11149997;-0.31000
11152775;-0.31500
11155552;-0.28000
11158330;-0.28000
11161108;-0.26000
11163886;-0.26500
11166664;-0.26500
11169441;-0.26000
11172219;-0.25000
11174997;-0.24000
11177775;-0.25000
11180552;-0.26000
11183330;-0.26000
11186108;-0.27000
11188886;-0.26500
11191664;-0.25000
11194441;-0.26500
11197219;-0.25500
11199997;-0.28000
11202775;-0.27500
11205552;-0.27000
11208330;-0.26000
11211108;-0.26500
11213886;-0.27500
11216664;-0.28500
11219441;-0.27000
11222219;-0.27000
11224997;-0.26000
11227775;-0.27000
11230552;-0.27500
11233330;-0.28000
11236108;-0.27500
11238886;-0.27500
11241664;-0.26500
11244441;-0.26000
11247219;-0.27000
11249997;-0.27000
11252775;-0.29000
11255552;-0.27500
11258330;-0.27500
11261108;-0.28000
11263886;-0.28500
11266664;-0.29000
11269441;-0.31000
11272219;-0.30000
11274997;-0.29500
11277775;-0.29500
11280552;-0.31000
11283330;-0.31000
11286108;-0.31000
11288886;-0.31000
11291664;-0.30500
11294441;-0.31500
11297219;-0.31500
11299997;-0.33000
11302775;-0.33500
11305552;-0.31500
11308330;-0.30500
11311108;-0.31500
11313886;-0.32500
11316663;-0.33000
11319441;-0.34500
11322219;-0.33000
11324997;-0.32500
11327775;-0.32500
11330552;-0.33500
11333330;-0.33500
11336108;-0.35500
11338886;-0.34500
11341663;-0.34500
11344441;-0.35000
11347219;-0.35000
11349997;-0.35000
11352775;-0.34000
11355552;-0.34500
11358330;-0.33500
11361108;-0.33500
11363886;-0.35000
11366663;-0.33500
11369441;-0.35500
11372219;-0.34500
11374997;-0.33500
11377775;-0.32500
11380552;-0.34000
11383330;-0.35000
11386108;-0.35000
11388886;-0.34000
11391663;-0.31500
11394441;-0.32000
11397219;-0.32500
11399997;-0.32500
11402775;-0.32500
11405552;-0.32500
11408330;-0.31000
11411108;-0.31000
11413886;-0.32500
11416663;-0.33000
11419441;-0.32000
11422219;-0.31000
11424997;-0.29500
11427775;-0.28000
11430552;-0.26500
11433330;-0.25500
11436108;-0.26500
11438886;-0.25000
11441663;-0.24500
11444441;-0.24500
11447219;-0.24500
11449997;-0.25000
11452775;-0.23500
11455552;-0.22000
11458330;-0.19500
11461108;-0.19000
11463886;-0.19500
11466663;-0.20500
11469441;-0.20000
11472219;-0.20000
11474997;-0.20000
11477775;-0.21500
11480552;-0.22000
11483330;-0.23000
11486108;-0.24000
11488886;-0.23500
11491663;-0.22500
11494441;-0.23000
11497219;-0.21000
11499997;-0.19500
11502775;-0.21000
11505552;-0.22000
11508330;-0.23500
11511108;-0.26000
11513886;-0.28000
11516663;-0.30000
11519441;-0.32000
11522219;-0.32000
11524997;-0.33000
11527775;-0.33500
11530552;-0.34500
11533330;-0.34500
11536108;-0.35500
11538886;-0.33000
11541663;-0.32000
11544441;-0.31500
11547219;-0.34000
11549997;-0.35000
11552775;-0.35000
11555552;-0.34000
11558330;-0.34000
11561108;-0.35000
11563886;-0.34500
11566663;-0.35000
11569441;-0.35500
11572219;-0.35000
11574997;-0.35000
11577775;-0.34000
11580552;-0.34000
11583330;-0.34000
11586108;-0.35000
11588886;-0.34000
11591663;-0.33500
11594441;-0.33500
11597219;-0.34500
11599997;-0.36000
11602775;-0.39000
11605552;-0.44000
11608330;-0.47000
11611108;-0.49500
11613886;-0.52000
11616663;-0.56000
11619441;-0.54000
11622219;-0.46500
11624997;-0.32000
11627775;-0.15000
11630552;0.02000
11633330;0.23000
11636108;0.49500
11638886;0.76500
11641663;0.97500
11644441;1.07500
11647219;1.06000
11649997;0.88500
11652775;0.49500
11655552;0.05000
11658330;-0.28000
11661108;-0.44000
11663886;-0.46500
11666663;-0.44000
11669441;-0.38500
11672219;-0.35500
11674997;-0.35500
11677775;-0.37000
11680552;-0.39000
11683330;-0.38000
11686108;-0.37500
11688886;-0.36000
11691663;-0.35500
11694441;-0.36000
11697219;-0.36500
11699997;-0.39000
11702775;-0.37500
11705552;-0.37500
11708330;-0.36000
11711108;-0.37500
11713886;-0.38000
11716663;-0.38500
11719441;-0.38500
11722219;-0.38000
11724997;-0.37000
11727774;-0.38000
11730552;-0.37500
11733330;-0.40500
11736108;-0.40500
11738886;-0.38000
11741663;-0.36500
11744441;-0.37000
11747219;-0.36500
11749997;-0.37000
11752774;-0.37000
11755552;-0.37500
11758330;-0.36500
11761108;-0.36500
11763886;-0.37000
11766663;-0.39000
11769441;-0.39000
11772219;-0.39500
11774997;-0.38500
11777774;-0.38000
11780552;-0.37500
11783330;-0.37500
11786108;-0.36500
11788886;-0.38000
11791663;-0.37000
11794441;-0.37000
11797219;-0.37000
11799997;-0.38000
11802774;-0.38500
11805552;-0.37500
11808330;-0.39000
11811108;-0.38000
11813886;-0.38500
11816663;-0.38500
11819441;-0.40500
11822219;-0.38000
11824997;-0.37500
11827774;-0.39000
11830552;-0.39000
11833330;-0.40000
11836108;-0.40000
11838886;-0.38500
11841663;-0.37500
11844441;-0.38500
11847219;-0.40000
11849997;-0.40000
11852774;-0.40000
11855552;-0.38000
11858330;-0.36000
11861108;-0.37000
11863886;-0.38000
11866663;-0.39500
11869441;-0.40000
11872219;-0.39000
11874997;-0.37500
11877774;-0.37000
11880552;-0.38500
11883330;-0.40500
11886108;-0.40500
11888886;-0.39000
11891663;-0.38000
11894441;-0.39000
11897219;-0.41000
11899997;-0.41500
11902774;-0.42000
11905552;-0.39000
11908330;-0.38500
11911108;-0.38500
11913886;-0.37000
11916663;-0.38000
11919441;-0.37000
11922219;-0.36000
11924997;-0.33000
11927774;-0.32000
11930552;-0.31500
11933330;-0.32000
11936108;-0.31500
11938886;-0.32500
11941663;-0.32500
11944441;-0.31500
11947219;-0.31000
11949997;-0.31500
11952774;-0.31000
11955552;-0.29000
11958330;-0.28500
11961108;-0.29000
11963886;-0.28500
11966663;-0.30000
11969441;-0.30000
11972219;-0.29500
11974997;-0.29000
11977774;-0.28500
11980552;-0.29500
11983330;-0.32000
11986108;-0.31500
11988886;-0.31000
11991663;-0.29000
11994441;-0.29500
11997219;-0.29500
11999997;-0.30000
12002774;-0.30000
12005552;-0.28500
12008330;-0.27500
12011108;-0.27500
12013886;-0.28500
12016663;-0.30000
12019441;-0.30500
12022219;-0.31500
12024997;-0.30500
12027774;-0.31500
12030552;-0.32500
12033330;-0.32000
12036108;-0.32000
12038886;-0.31000
12041663;-0.31000
12044441;-0.32500
12047219;-0.33500
12049997;-0.34500
12052774;-0.35000
12055552;-0.34500
12058330;-0.32000
12061108;-0.32500
12063886;-0.32500
12066663;-0.35000
12069441;-0.35500
12072219;-0.34000
12074997;-0.34000
12077774;-0.32500
12080552;-0.34000
12083330;-0.35000
12086108;-0.34500
12088886;-0.35000
12091663;-0.34500
12094441;-0.35500
12097219;-0.35000
12099997;-0.35000
12102774;-0.36500
12105552;-0.36500
12108330;-0.35500
12111108;-0.36000
12113885;-0.38000
12116663;-0.38000
12119441;-0.38000
12122219;-0.38000
12124997;-0.37500
12127774;-0.37000
12130552;-0.36000
12133330;-0.36500
12136108;-0.38500
12138885;-0.37000
12141663;-0.35500
12144441;-0.36000
12147219;-0.36000
12149997;-0.35500
12152774;-0.36000
12155552;-0.35000
12158330;-0.34000
12161108;-0.34000
12163885;-0.34500
12166663;-0.35000
12169441;-0.36500
12172219;-0.35500
12174997;-0.34500
12177774;-0.34000
12180552;-0.34000
12183330;-0.34000
12186108;-0.33000
12188885;-0.31000
12191663;-0.30000
12194441;-0.29000
12197219;-0.28500
12199997;-0.28500
12202774;-0.29000
12205552;-0.28500
12208330;-0.28000
12211108;-0.28000
12213885;-0.27500
12216663;-0.27500
12219441;-0.26500
12222219;-0.25500
12224997;-0.23000
12227774;-0.21500
12230552;-0.23000
12233330;-0.25500
12236108;-0.27000
12238885;-0.27000
12241663;-0.25500
12244441;-0.25500
12247219;-0.26000
12249997;-0.27000
12252774;-0.28000
12255552;-0.27000
12258330;-0.27000
12261108;-0.24500
12263885;-0.24500
12266663;-0.24000
12269441;-0.27500
12272219;-0.29500
12274997;-0.30500
12277774;-0.32000
12280552;-0.35000
12283330;-0.37500
12286108;-0.37500
12288885;-0.38500
12291663;-0.36500
12294441;-0.37000
12297219;-0.38000
12299997;-0.39000
12302774;-0.39500
12305552;-0.39500
12308330;-0.37500
12311108;-0.37500
12313885;-0.38000
12316663;-0.39000
12319441;-0.38500
12322219;-0.38000
12324997;-0.38000
12327774;-0.37500
12330552;-0.37000
12333330;-0.38000
12336108;-0.39000
12338885;-0.37000
12341663;-0.35500
12344441;-0.34500
12347219;-0.37000
12349997;-0.37500
12352774;-0.38500
12355552;-0.38500
12358330;-0.37500
12361108;-0.37000
12363885;-0.39000
12366663;-0.42000
12369441;-0.46500
12372219;-0.48000
12374997;-0.50000
12377774;-0.54000
12380552;-0.58000
12383330;-0.56500
12386108;-0.44000
12388885;-0.28000
12391663;-0.09000
12394441;0.12500
12397219;0.39000
12399997;0.65000
12402774;0.84500
12405552;0.96000
12408330;0.92500
12411108;0.65500
12413885;0.22000
12416663;-0.19000
12419441;-0.44500
12422219;-0.52000
12424997;-0.49500
12427774;-0.45000
12430552;-0.42500
12433330;-0.41500
12436108;-0.43000
12438885;-0.41500
12441663;-0.41500
12444441;-0.41500
12447219;-0.41000
12449997;-0.41000
12452774;-0.42000
12455552;-0.42000
12458330;-0.41000
12461108;-0.40500
12463885;-0.42000
12466663;-0.42000
12469441;-0.43000
12472219;-0.42000
12474997;-0.40500
12477774;-0.42000
12480552;-0.43000
12483330;-0.43500
12486108;-0.42000
12488885;-0.42000
12491663;-0.42500
12494441;-0.42500
12497219;-0.42000
12499996;-0.42500
12502774;-0.42500
12505552;-0.41500
12508330;-0.40000
12511108;-0.40500
12513885;-0.40000
12516663;-0.42000
12519441;-0.44500
12522219;-0.42500
12524996;-0.42500
12527774;-0.43000
12530552;-0.43500
12533330;-0.42500
12536108;-0.43500
12538885;-0.42500
12541663;-0.43000
12544441;-0.42000
12547219;-0.42500
12549996;-0.43000
12552774;-0.44500
12555552;-0.43500
12558330;-0.41500
12561108;-0.42000
12563885;-0.42500
12566663;-0.43500
12569441;-0.44000
12572219;-0.43500
12574996;-0.42000
12577774;-0.41500
12580552;-0.41500
12583330;-0.41500
12586108;-0.42000
12588885;-0.43500
12591663;-0.42000
12594441;-0.43500
12597219;-0.44500
12599996;-0.46000
12602774;-0.45500
12605552;-0.45000
12608330;-0.43500
12611108;-0.43000
12613885;-0.43500
12616663;-0.44500
12619441;-0.46000
12622219;-0.44500
12624996;-0.44000
12627774;-0.43500
12630552;-0.43500
12633330;-0.45000
12636108;-0.46500
12638885;-0.46000
12641663;-0.46500
12644441;-0.45500
12647219;-0.47000
12649996;-0.48500
12652774;-0.48500
12655552;-0.48000
12658330;-0.47500
12661108;-0.47000
12663885;-0.47000
12666663;-0.48000
12669441;-0.48500
12672219;-0.48000
12674996;-0.45500
12677774;-0.44500
12680552;-0.43500
12683330;-0.43500
12686108;-0.42500
12688885;-0.40000
12691663;-0.38500
12694441;-0.37500
12697219;-0.36000
12699996;-0.37000
12702774;-0.35000
12705552;-0.33500
12708330;-0.32000
12711108;-0.31500
12713885;-0.30500
12716663;-0.32000
12719441;-0.31500
12722219;-0.30500
12724996;-0.30500
12727774;-0.30000
12730552;-0.30500
12733330;-0.32000
12736108;-0.32000
12738885;-0.30500
12741663;-0.30500
12744441;-0.29000
12747219;-0.30500
12749996;-0.30500
12752774;-0.30500
12755552;-0.30500
12758330;-0.30500
12761108;-0.30000
12763885;-0.31000
12766663;-0.32000
12769441;-0.32500
12772219;-0.32000
12774996;-0.31000
12777774;-0.30500
12780552;-0.31000
12783330;-0.31000
12786108;-0.32000
12788885;-0.30500
12791663;-0.30500
12794441;-0.32000
12797219;-0.33000
12799996;-0.34500
12802774;-0.35000
12805552;-0.33500
12808330;-0.33500
12811108;-0.34500
12813885;-0.35000
12816663;-0.35000
12819441;-0.36000
12822219;-0.35000
12824996;-0.34500
12827774;-0.34000
12830552;-0.35500
12833330;-0.36000
12836108;-0.36000
12838885;-0.35000
12841663;-0.35000
12844441;-0.35500
12847219;-0.35500
12849996;-0.36000
12852774;-0.37000
12855552;-0.36000
12858330;-0.36500
12861108;-0.35500
12863885;-0.37500
12866663;-0.38000
12869441;-0.38500
12872219;-0.38000
12874996;-0.37000
12877774;-0.37000
12880552;-0.37500
12883330;-0.37000
12886108;-0.38000
12888885;-0.37500
12891663;-0.37000
12894441;-0.35500
12897219;-0.37500
12899996;-0.39000
12902774;-0.38500
12905552;-0.36000
12908330;-0.36500
12911107;-0.36000
12913885;-0.36500
12916663;-0.37000
12919441;-0.36500
12922219;-0.36000
12924996;-0.35500
12927774;-0.35000
12930552;-0.34500
12933330;-0.35500
12936107;-0.35500
12938885;-0.35500
12941663;-0.34000
12944441;-0.35000
12947219;-0.35000
12949996;-0.36500
12952774;-0.36000
12955552;-0.34500
12958330;-0.32500
12961107;-0.31500
12963885;-0.31000
12966663;-0.30500
12969441;-0.29500
12972219;-0.29000
12974996;-0.27000
12977774;-0.27000
12980552;-0.26500
12983330;-0.26500
12986107;-0.25500
12988885;-0.24000
12991663;-0.24000
12994441;-0.23500
12997219;-0.25500
12999996;-0.26500
13002774;-0.27000
13005552;-0.26500
13008330;-0.26000
13011107;-0.26000
13013885;-0.26500
13016663;-0.29000
13019441;-0.29500
13022219;-0.26500
13024996;-0.24000
13027774;-0.22000
13030552;-0.24000
13033330;-0.28000
13036107;-0.31500
13038885;-0.31000
13041663;-0.31000
13044441;-0.31000
13047219;-0.31500
13049996;-0.34500
13052774;-0.35500
13055552;-0.36000
13058330;-0.36000
13061107;-0.36000
13063885;-0.38000
13066663;-0.38000
13069441;-0.38000
13072219;-0.36500
13074996;-0.36500
13077774;-0.37000
13080552;-0.38500
13083330;-0.38500
13086107;-0.39500
13088885;-0.38500
13091663;-0.39000
13094441;-0.39500
13097219;-0.39500
13099996;-0.39500
13102774;-0.39500
13105552;-0.40000
13108330;-0.37500
13111107;-0.39000
13113885;-0.39000
13116663;-0.40000
13119441;-0.42500
13122219;-0.45000
13124996;-0.49000
13127774;-0.52500
13130552;-0.54500
13133330;-0.58500
13136107;-0.59000
13138885;-0.55000
13141663;-0.42000
13144441;-0.23500
13147219;-0.05500
13149996;0.15000
13152774;0.41000
13155552;0.71500
13158330;0.96000
13161107;1.11000
13163885;1.11000
13166663;0.90000
13169441;0.43500
13172219;-0.06500
13174996;-0.43000
13177774;-0.54500
13180552;-0.51000
13183330;-0.45500
13186107;-0.41500
13188885;-0.38500
13191663;-0.38000
13194441;-0.39500
13197219;-0.40500
13199996;-0.42000
13202774;-0.42000
13205552;-0.42000
13208330;-0.41000
13211107;-0.41000
13213885;-0.41000
13216663;-0.43500
13219441;-0.42500
13222219;-0.43000
13224996;-0.41500
13227774;-0.41500
13230552;-0.42000
13233330;-0.43500
13236107;-0.43500
13238885;-0.43500
13241663;-0.42500
13244441;-0.42000
13247219;-0.43000
13249996;-0.43500
13252774;-0.44000
13255552;-0.42500
13258330;-0.41500
13261107;-0.42500
13263885;-0.43000
13266663;-0.43500
13269441;-0.43500
13272219;-0.43000
13274996;-0.42500
13277774;-0.42500
13280552;-0.42500
13283330;-0.43000
13286107;-0.43000
13288885;-0.42000
13291663;-0.41500
13294441;-0.40500
13297218;-0.41000
13299996;-0.42500
13302774;-0.42000
13305552;-0.42000
13308330;-0.41500
13311107;-0.41000
13313885;-0.41000
13316663;-0.42500
13319441;-0.43000
13322218;-0.41000
13324996;-0.41000
13327774;-0.42000
13330552;-0.42500
13333330;-0.43000
13336107;-0.42000
13338885;-0.41000
13341663;-0.40000
13344441;-0.41500
13347218;-0.41500
13349996;-0.42500
13352774;-0.42500
13355552;-0.41000
13358330;-0.40500
13361107;-0.41000
13363885;-0.41500
13366663;-0.42000
13369441;-0.42500
13372218;-0.41500
13374996;-0.40500
13377774;-0.41000
13380552;-0.41000
13383330;-0.43000
13386107;-0.43000
13388885;-0.42500
13391663;-0.42000
13394441;-0.42500
13397218;-0.43000
13399996;-0.43500
13402774;-0.43500
13405552;-0.42500
13408330;-0.42500
13411107;-0.42000
13413885;-0.42000
13416663;-0.43000
13419441;-0.43000
13422218;-0.42000
13424996;-0.41500
13427774;-0.41000
13430552;-0.40000
13433330;-0.39500
13436107;-0.39000
13438885;-0.39000
13441663;-0.37000
13444441;-0.36000
13447218;-0.34500
13449996;-0.34000
13452774;-0.35500
13455552;-0.33500
13458330;-0.32000
13461107;-0.31000
13463885;-0.30500
13466663;-0.31500
13469441;-0.31000
13472218;-0.30000
13474996;-0.28000
13477774;-0.28500
13480552;-0.29000
13483330;-0.30000
13486107;-0.30000
13488885;-0.29500
13491663;-0.29500
13494441;-0.28500
13497218;-0.28000
13499996;-0.29500
13502774;-0.29000
13505552;-0.28000
13508330;-0.26500
13511107;-0.26500
13513885;-0.27000
13516663;-0.27500
13519441;-0.28500
13522218;-0.27500
13524996;-0.28000
13527774;-0.26500
13530552;-0.29000
13533330;-0.29500
13536107;-0.29000
13538885;-0.28500
13541663;-0.28000
13544441;-0.28000
13547218;-0.28500
13549996;-0.29500
13552774;-0.30500
13555552;-0.29500
13558330;-0.27500
13561107;-0.29500
13563885;-0.31000
13566663;-0.31000
13569441;-0.31000
13572218;-0.31000
13574996;-0.30000
13577774;-0.30500
13580552;-0.31000
13583330;-0.32500
13586107;-0.32000
13588885;-0.32000
13591663;-0.30500
13594441;-0.31000
13597218;-0.31500
13599996;-0.32000
13602774;-0.33000
13605552;-0.33500
13608330;-0.32000
13611107;-0.33000
13613885;-0.33500
13616663;-0.34000
13619441;-0.36500
13622218;-0.35000
13624996;-0.34000
13627774;-0.34500
13630552;-0.34500
13633330;-0.34500
13636107;-0.35000
13638885;-0.34500
13641663;-0.34000
13644441;-0.34000
13647218;-0.34500
13649996;-0.34500
13652774;-0.36500
13655552;-0.35500
13658330;-0.33500
13661107;-0.34000
13663885;-0.34000
13666663;-0.34500
13669441;-0.34000
13672218;-0.33500
13674996;-0.33000
13677774;-0.32000
13680552;-0.32000
13683330;-0.32000
13686107;-0.34000
13688885;-0.32500
13691663;-0.32500
13694441;-0.32000
13697218;-0.32500
13699996;-0.34000
13702774;-0.33500
13705552;-0.32000
13708329;-0.31500
13711107;-0.31500
13713885;-0.31000
13716663;-0.31500
13719441;-0.32000
13722218;-0.32000
13724996;-0.29500
13727774;-0.29500
13730552;-0.27500
13733329;-0.26500
13736107;-0.25500
13738885;-0.25000
13741663;-0.22500
13744441;-0.23000
13747218;-0.23500
13749996;-0.23000
13752774;-0.20500
13755552;-0.18500
13758329;-0.18000
13761107;-0.18000
13763885;-0.17500
13766663;-0.21000
13769441;-0.21500
13772218;-0.21500
13774996;-0.22000
13777774;-0.21500
13780552;-0.22500
13783329;-0.22500
13786107;-0.23500
13788885;-0.22500
13791663;-0.21500
13794441;-0.19000
13797218;-0.17500
13799996;-0.20000
13802774;-0.24000
13805552;-0.26500
13808329;-0.26000
13811107;-0.27500
13813885;-0.28000
13816663;-0.29500
13819441;-0.29500
13822218;-0.30500
13824996;-0.31000
13827774;-0.31500
13830552;-0.31000
13833329;-0.31500
13836107;-0.32500
13838885;-0.32000
13841663;-0.31500
13844441;-0.31000
13847218;-0.32500
13849996;-0.34000
13852774;-0.35500
13855552;-0.34000
13858329;-0.33500
13861107;-0.33500
13863885;-0.33500
13866663;-0.34500
13869441;-0.35500
13872218;-0.35000
13874996;-0.34500
13877774;-0.34000
13880552;-0.34000
13883329;-0.34500
13886107;-0.35500
13888885;-0.37500
13891663;-0.41000
13894441;-0.44000
13897218;-0.46500
13899996;-0.49000
13902774;-0.52500
13905552;-0.49500
13908329;-0.38500
13911107;-0.20000
13913885;-0.00500
13916663;0.19500
13919441;0.46000
13922218;0.75500
13924996;1.00500
13927774;1.14500
13930552;1.11500
13933329;0.84500
13936107;0.37500
13938885;-0.11500
13941663;-0.39500
13944441;-0.45500
13947218;-0.41500
13949996;-0.35500
13952774;-0.34000
13955552;-0.33500
13958329;-0.33500
13961107;-0.34500
13963885;-0.33500
13966663;-0.34000
13969441;-0.34500
13972218;-0.33500
13974996;-0.33500
13977774;-0.33000
13980552;-0.34000
13983329;-0.34500
13986107;-0.36500
13988885;-0.35500
13991663;-0.36000
13994441;-0.35500
13997218;-0.36500
13999996;-0.37500
14002774;-0.39000
14005552;-0.38000
14008329;-0.36500
14011107;-0.36000
14013885;-0.37000
14016663;-0.38000
14019441;-0.38000
14022218;-0.37500
14024996;-0.36500
14027774;-0.37000
14030552;-0.37500
14033329;-0.37000
14036107;-0.38500
14038885;-0.37500
14041663;-0.37000
14044441;-0.36500
14047218;-0.36500
14049996;-0.36000
14052774;-0.37500
14055552;-0.36000
14058329;-0.35000
14061107;-0.35000
14063885;-0.36000
14066663;-0.37000
14069441;-0.37000
14072218;-0.38000
14074996;-0.35500
14077774;-0.36500
14080552;-0.37500
14083329;-0.37500
14086107;-0.38500
14088885;-0.37500
14091663;-0.36500
14094440;-0.36000
14097218;-0.36000
14099996;-0.36500
14102774;-0.37000
14105552;-0.37000
14108329;-0.36500
14111107;-0.35500
14113885;-0.37500
14116663;-0.36500
14119440;-0.36500
14122218;-0.37000
14124996;-0.36500
14127774;-0.35000
14130552;-0.34500
14133329;-0.35500
14136107;-0.37000
14138885;-0.37000
14141663;-0.34500
14144440;-0.35000
14147218;-0.36500
14149996;-0.38500
14152774;-0.37500
14155552;-0.36500
14158329;-0.36000
14161107;-0.35000
14163885;-0.37500
14166663;-0.37500
14169440;-0.40500
14172218;-0.39000
14174996;-0.37500
14177774;-0.36500
14180552;-0.37000
14183329;-0.37000
14186107;-0.36500
14188885;-0.35000
14191663;-0.34500
14194440;-0.34000
14197218;-0.33000
14199996;-0.32000
14202774;-0.35500
14205552;-0.32000
14208329;-0.31500
14211107;-0.30500
14213885;-0.31000
14216663;-0.31000
14219440;-0.31000
14222218;-0.28500
14224996;-0.28000
14227774;-0.27000
14230552;-0.26500
14233329;-0.27000
14236107;-0.29500
14238885;-0.26500
14241663;-0.24500
14244440;-0.25000
14247218;-0.24500
14249996;-0.25500
14252774;-0.26000
14255552;-0.23500
14258329;-0.23000
14261107;-0.23000
14263885;-0.23000
14266663;-0.24500
14269440;-0.24500
14272218;-0.23000
14274996;-0.24000
14277774;-0.23500
14280552;-0.25000
14283329;-0.25000
14286107;-0.26500
14288885;-0.25000
14291663;-0.23500
14294440;-0.23000
14297218;-0.24500
14299996;-0.24000
14302774;-0.25500
14305552;-0.25000
14308329;-0.25000
14311107;-0.25000
14313885;-0.26000
14316663;-0.26500
14319440;-0.26500
14322218;-0.26000
14324996;-0.25500
14327774;-0.26500
14330552;-0.27000
14333329;-0.28000
14336107;-0.27500
14338885;-0.28500
14341663;-0.27500
14344440;-0.26500
14347218;-0.27000
14349996;-0.26500
14352774;-0.28500
14355552;-0.26500
14358329;-0.26000
14361107;-0.27500
14363885;-0.27000
14366663;-0.28500
14369440;-0.28000
14372218;-0.27500
14374996;-0.26500
14377774;-0.28500
14380552;-0.28500
14383329;-0.31000
14386107;-0.32000
14388885;-0.31500
14391663;-0.31500
14394440;-0.31000
14397218;-0.32000
14399996;-0.33000
14402774;-0.32500
14405552;-0.31500
14408329;-0.30500
14411107;-0.30000
14413885;-0.30500
14416663;-0.31000
14419440;-0.32500
14422218;-0.33000
14424996;-0.32500
14427774;-0.31500
14430552;-0.30000
14433329;-0.30500
14436107;-0.31500
14438885;-0.31000
14441663;-0.30500
14444440;-0.30000
14447218;-0.30000
14449996;-0.30500
14452774;-0.31000
14455552;-0.31000
14458329;-0.30500
14461107;-0.30000
14463885;-0.32000
14466663;-0.32000
14469440;-0.33500
14472218;-0.32500
14474996;-0.31000
14477774;-0.30000
14480552;-0.31000
14483329;-0.30500
14486107;-0.33000
14488885;-0.31000
14491663;-0.30000
14494440;-0.28500
14497218;-0.29500
14499996;-0.31000
14502774;-0.32000
14505551;-0.31500
14508329;-0.29000
14511107;-0.27000
14513885;-0.25500
14516663;-0.24500
14519440;-0.24500
14522218;-0.23500
14524996;-0.23500
14527774;-0.22500
14530551;-0.22000
14533329;-0.21000
14536107;-0.20000
14538885;-0.18000
14541663;-0.17000
14544440;-0.18000
14547218;-0.18000
14549996;-0.20000
14552774;-0.21000
14555551;-0.20500
14558329;-0.19500
14561107;-0.20500
14563885;-0.21500
14566663;-0.21500
14569440;-0.22500
14572218;-0.22500
14574996;-0.22500
14577774;-0.22000
14580551;-0.24500
14583329;-0.24000
14586107;-0.23000
14588885;-0.20000
14591663;-0.17500
14594440;-0.18500
14597218;-0.20500
14599996;-0.25000
14602774;-0.27500
14605551;-0.28500
14608329;-0.29000
14611107;-0.28000
14613885;-0.30000
14616663;-0.30500
14619440;-0.31500
14622218;-0.32000
14624996;-0.33000
14627774;-0.33000
14630551;-0.31500
14633329;-0.32000
14636107;-0.33500
14638885;-0.34000
14641663;-0.33500
14644440;-0.33000
14647218;-0.33000
14649996;-0.33500
14652774;-0.34000
14655551;-0.34500
14658329;-0.35500
14661107;-0.35500
14663885;-0.34500
14666663;-0.35000
14669440;-0.35500
14672218;-0.35000
14674996;-0.35500
14677774;-0.33500
14680551;-0.36500
14683329;-0.39500
14686107;-0.43500
14688885;-0.46000
14691663;-0.46000
14694440;-0.46500
14697218;-0.51500
14699996;-0.54500
14702774;-0.50000
14705551;-0.40500
14708329;-0.25500
14711107;-0.10500
14713885;0.06500
14716663;0.27500
14719440;0.54000
14722218;0.80000
14724996;0.97500
14727774;1.06500
14730551;1.04500
14733329;0.89000
14736107;0.59000
14738885;0.24000
14741663;-0.04000
14744440;-0.21000
14747218;-0.33500
14749996;-0.44000
14752774;-0.51500
14755551;-0.54500
14758329;-0.53000
14761107;-0.48000
14763885;-0.43500
14766663;-0.40500
14769440;-0.40500
14772218;-0.40500
14774996;-0.40000
14777774;-0.38500
14780551;-0.37000
14783329;-0.36500
14786107;-0.37500
14788885;-0.38500
14791663;-0.39000
14794440;-0.38000
14797218;-0.38000
14799996;-0.39000
14802774;-0.38500
14805551;-0.39000
14808329;-0.40000
14811107;-0.39000
14813885;-0.39000
14816663;-0.40000
14819440;-0.40000
14822218;-0.39500
14824996;-0.39500
14827774;-0.37000
14830551;-0.38000
14833329;-0.39500
14836107;-0.41000
14838885;-0.41000
14841663;-0.38500
14844440;-0.39500
14847218;-0.38000
14849996;-0.39500
14852774;-0.39500
14855551;-0.38000
14858329;-0.39500
14861107;-0.39500
14863885;-0.40500
14866663;-0.39000
14869440;-0.39000
14872218;-0.38000
14874996;-0.37500
14877774;-0.38000
14880551;-0.39000
14883329;-0.39500
14886107;-0.39500
14888885;-0.39000
14891662;-0.38500
14894440;-0.38500
14897218;-0.39500
14899996;-0.39000
14902774;-0.40000
14905551;-0.39500
14908329;-0.38000
14911107;-0.38000
14913885;-0.38500
14916662;-0.39500
14919440;-0.41000
14922218;-0.40500
14924996;-0.39000
14927774;-0.39000
14930551;-0.39500
14933329;-0.39000
14936107;-0.40000
14938885;-0.38500
14941662;-0.38000
14944440;-0.37000
14947218;-0.38500
14949996;-0.38000
14952774;-0.39500
14955551;-0.37500
14958329;-0.37500
14961107;-0.39000
14963885;-0.40000
14966662;-0.41000
14969440;-0.40500
14972218;-0.41000
14974996;-0.40500
14977774;-0.39500
14980551;-0.40500
14983329;-0.40500
14986107;-0.41500
14988885;-0.41500
14991662;-0.41500
14994440;-0.42500
14997218;-0.42500
14999996;-0.44000
15002774;-0.43500
15005551;-0.42000
15008329;-0.42500
15011107;-0.42500
15013885;-0.44500
15016662;-0.44500
15019440;-0.44500
15022218;-0.43500
15024996;-0.42000
15027774;-0.39500
15030551;-0.39500
15033329;-0.38500
15036107;-0.38000
15038885;-0.35500
15041662;-0.33500
15044440;-0.36000
15047218;-0.34000
15049996;-0.33000
15052774;-0.33500
15055551;-0.32000
15058329;-0.30000
15061107;-0.30500
15063885;-0.29500
15066662;-0.29000
15069440;-0.28500
15072218;-0.27000
15074996;-0.27500
15077774;-0.27500
15080551;-0.28000
15083329;-0.28500
15086107;-0.28500
15088885;-0.27500
15091662;-0.26500
15094440;-0.26500
15097218;-0.26500
15099996;-0.27000
15102774;-0.26000
15105551;-0.25000
15108329;-0.25500
15111107;-0.24000
15113885;-0.26000
15116662;-0.27000
15119440;-0.26000
15122218;-0.25500
15124996;-0.25000
15127774;-0.25500
15130551;-0.26000
15133329;-0.27000
15136107;-0.26000
15138885;-0.26000
15141662;-0.28500
15144440;-0.27000
15147218;-0.28000
15149996;-0.29500
15152774;-0.30500
15155551;-0.30000
15158329;-0.29500
15161107;-0.29000
15163885;-0.29000
15166662;-0.29000
15169440;-0.30500
15172218;-0.29500
15174996;-0.28500
15177774;-0.27500
15180551;-0.27000
15183329;-0.28000
15186107;-0.30000
15188885;-0.29000
15191662;-0.27500
15194440;-0.28000
15197218;-0.28000
15199996;-0.30000
15202774;-0.30000
15205551;-0.30500
15208329;-0.30500
15211107;-0.29500
15213885;-0.30000
15216662;-0.30500
15219440;-0.32000
15222218;-0.32500
15224996;-0.30500
15227774;-0.30500
15230551;-0.30500
15233329;-0.32500
15236107;-0.33000
15238885;-0.33000
15241662;-0.31500
15244440;-0.31000
15247218;-0.30500
15249996;-0.33000
15252774;-0.32000
15255551;-0.30500
15258329;-0.30000
15261107;-0.30500
15263885;-0.30500
15266662;-0.31000
15269440;-0.31500
15272218;-0.30500
15274996;-0.30000
15277774;-0.30000
15280551;-0.29000
15283329;-0.30500
15286107;-0.31000
15288885;-0.31500
15291662;-0.31500
15294440;-0.30500
15297218;-0.32000
15299996;-0.34000
15302773;-0.33000
15305551;-0.31500
15308329;-0.31000
15311107;-0.30000
15313885;-0.31000
15316662;-0.29500
15319440;-0.31500
15322218;-0.30000
15324996;-0.29000
15327773;-0.28000
15330551;-0.27000
15333329;-0.27000
15336107;-0.25500
15338885;-0.23000
15341662;-0.22500
15344440;-0.22000
15347218;-0.21500
15349996;-0.22000
15352773;-0.21500
15355551;-0.20500
15358329;-0.18000
15361107;-0.17000
15363885;-0.17000
15366662;-0.18000
15369440;-0.19000
15372218;-0.20000
15374996;-0.18500
15377773;-0.19000
15380551;-0.20500
15383329;-0.22500
15386107;-0.22000
15388885;-0.20500
15391662;-0.19000
15394440;-0.19500
15397218;-0.21500
15399996;-0.22500
15402773;-0.23500
15405551;-0.19500
15408329;-0.18500
15411107;-0.17500
15413885;-0.21000
15416662;-0.23500
15419440;-0.26000
15422218;-0.27500
15424996;-0.27000
15427773;-0.27500
15430551;-0.29500
15433329;-0.30000
15436107;-0.32000
15438885;-0.32000
15441662;-0.30000
15444440;-0.29500
15447218;-0.30000
15449996;-0.30500
15452773;-0.31000
15455551;-0.30500
15458329;-0.29000
15461107;-0.30500
15463885;-0.30000
15466662;-0.30500
15469440;-0.31500
15472218;-0.32000
15474996;-0.31000
15477773;-0.31000
15480551;-0.32000
15483329;-0.32000
15486107;-0.33000
15488885;-0.32000
15491662;-0.30500
15494440;-0.30000
15497218;-0.29500
15499996;-0.31000
15502773;-0.32000
15505551;-0.31500
15508329;-0.31500
15511107;-0.33000
15513885;-0.36500
15516662;-0.41000
15519440;-0.44500
15522218;-0.45000
15524996;-0.48000
15527773;-0.50500
15530551;-0.47000
15533329;-0.37500
15536107;-0.23500
15538885;-0.06000
15541662;0.15000
15544440;0.39000
15547218;0.69000
15549996;0.92000
15552773;1.04000
15555551;1.10500
15558329;1.00500
15561107;0.68000
15563885;0.19000
15566662;-0.21500
15569440;-0.44000
15572218;-0.46000
15574996;-0.41500
15577773;-0.36000
15580551;-0.32500
15583329;-0.32500
15586107;-0.34000
15588885;-0.33000
15591662;-0.32500
15594440;-0.32000
15597218;-0.31500
15599996;-0.33000
15602773;-0.33500
15605551;-0.33500
15608329;-0.33000
15611107;-0.33500
15613885;-0.33000
15616662;-0.33500
15619440;-0.33500
15622218;-0.34000
15624996;-0.32000
15627773;-0.32000
15630551;-0.32500
15633329;-0.32500
15636107;-0.33000
15638885;-0.33000
15641662;-0.33000
15644440;-0.32000
15647218;-0.33000
15649996;-0.34000
15652773;-0.35000
15655551;-0.35000
15658329;-0.33000
15661107;-0.33000
15663885;-0.33000
15666662;-0.33000
15669440;-0.34500
15672218;-0.33000
15674996;-0.31500
15677773;-0.31000
15680551;-0.32500
15683329;-0.32500
15686107;-0.33000
15688884;-0.33000
15691662;-0.32500
15694440;-0.32000
15697218;-0.32500
15699996;-0.34000
15702773;-0.34500
15705551;-0.33500
15708329;-0.32000
15711107;-0.32000
15713884;-0.32000
15716662;-0.32500
15719440;-0.34500
15722218;-0.34000
15724996;-0.32500
15727773;-0.32500
15730551;-0.32000
15733329;-0.33000
15736107;-0.33500
15738884;-0.33000
15741662;-0.32500
15744440;-0.31000
15747218;-0.30500
15749996;-0.32000
15752773;-0.32500
15755551;-0.32000
15758329;-0.30000
15761107;-0.30000
15763884;-0.30000
15766662;-0.31500
15769440;-0.31500
15772218;-0.31000
15774996;-0.31000
15777773;-0.30500
15780551;-0.31500
15783329;-0.34000
15786107;-0.36000
15788884;-0.35000
15791662;-0.33500
15794440;-0.32500
15797218;-0.33000
15799996;-0.33500
15802773;-0.35000
15805551;-0.34500
15808329;-0.33500
15811107;-0.34000
15813884;-0.32500
15816662;-0.34000
15819440;-0.35000
15822218;-0.34000
15824996;-0.33500
15827773;-0.32500
15830551;-0.32000
15833329;-0.32000
15836107;-0.31500
15838884;-0.30500
15841662;-0.29000
15844440;-0.27500
15847218;-0.26500
15849996;-0.26500
15852773;-0.26500
15855551;-0.25500
15858329;-0.24500
15861107;-0.23000
15863884;-0.23000
15866662;-0.24000
15869440;-0.24500
15872218;-0.23500
15874996;-0.22500
15877773;-0.20500
15880551;-0.20500
15883329;-0.21500
15886107;-0.22000
15888884;-0.21500
15891662;-0.21000
15894440;-0.20500
15897218;-0.21500
15899996;-0.21500
15902773;-0.22500
15905551;-0.21000
15908329;-0.21000
15911107;-0.20000
15913884;-0.20500
15916662;-0.21000
15919440;-0.22500
15922218;-0.21000
15924996;-0.20500
15927773;-0.21500
15930551;-0.20500
15933329;-0.21000
15936107;-0.21500
15938884;-0.21000
15941662;-0.21500
15944440;-0.21500
15947218;-0.22500
15949996;-0.23500
15952773;-0.24500
15955551;-0.25000
15958329;-0.22500
15961107;-0.23000
15963884;-0.23500
15966662;-0.25000
15969440;-0.25000
15972218;-0.24500
15974996;-0.25000
15977773;-0.23000
15980551;-0.25000
15983329;-0.25500
15986107;-0.26500
15988884;-0.26000
15991662;-0.26000
15994440;-0.24500
15997218;-0.25000
15999996;-0.25500
16002773;-0.27000
16005551;-0.27000
16008329;-0.26000
16011107;-0.26500
16013884;-0.25500
16016662;-0.27000
16019440;-0.27000
16022218;-0.26000
16024996;-0.25500
16027773;-0.25500
16030551;-0.27000
16033329;-0.28500
16036107;-0.29000
16038884;-0.28000
16041662;-0.27000
16044440;-0.27000
16047218;-0.28000
16049996;-0.27000
16052773;-0.29000
16055551;-0.28000
16058329;-0.28500
16061107;-0.27500
16063884;-0.28000
16066662;-0.28500
16069440;-0.30500
16072218;-0.28500
16074995;-0.28000
16077773;-0.27500
16080551;-0.29000
16083329;-0.28500
16086107;-0.30000
16088884;-0.28000
16091662;-0.28000
16094440;-0.26000
16097218;-0.28000
16099995;-0.28000
16102773;-0.29000
16105551;-0.27500
16108329;-0.28000
16111107;-0.28000
16113884;-0.27500
16116662;-0.29000
16119440;-0.30000
16122218;-0.27500
16124995;-0.26500
16127773;-0.27000
16130551;-0.26000
16133329;-0.27500
16136107;-0.27500
16138884;-0.26500
16141662;-0.25500
16144440;-0.23500
16147218;-0.22000
16149995;-0.21000
16152773;-0.22000
16155551;-0.20500
16158329;-0.19500
16161107;-0.19000
16163884;-0.18000
16166662;-0.17500
16169440;-0.18000
16172218;-0.17000
16174995;-0.15500
16177773;-0.15500
16180551;-0.15000
16183329;-0.17000
16186107;-0.18000
16188884;-0.18000
16191662;-0.17500
16194440;-0.17500
16197218;-0.18500
16199995;-0.19000
16202773;-0.20500
16205551;-0.18500
16208329;-0.18500
16211107;-0.19500
16213884;-0.19000
16216662;-0.18000
16219440;-0.15500
16222218;-0.14000
16224995;-0.15500
16227773;-0.18000
16230551;-0.21000
16233329;-0.23000
16236107;-0.22500
16238884;-0.23500
16241662;-0.26000
16244440;-0.27000
16247218;-0.26500
16249995;-0.26500
16252773;-0.28000
16255551;-0.27500
16258329;-0.27500
16261107;-0.27500
16263884;-0.27500
16266662;-0.27500
16269440;-0.29500
16272218;-0.28500
16274995;-0.28000
16277773;-0.28500
16280551;-0.28500
16283329;-0.29000
16286107;-0.31000
16288884;-0.30500
16291662;-0.29000
16294440;-0.29500
16297218;-0.29500
16299995;-0.31000
16302773;-0.32000
16305551;-0.32500
16308329;-0.30500
16311107;-0.30000
16313884;-0.29000
16316662;-0.30000
16319440;-0.31500
16322218;-0.34500
16324995;-0.36000
16327773;-0.39000
16330551;-0.42000
16333329;-0.43500
16336107;-0.47500
16338884;-0.51000
16341662;-0.50000
16344440;-0.42500
16347218;-0.29000
16349995;-0.14000
16352773;0.02500
16355551;0.24500
16358329;0.52500
16361107;0.81500
16363884;1.04000
16366662;1.13000
16369440;1.05500
16372218;0.79500
16374995;0.34500
16377773;-0.09000
16380551;-0.36500
16383329;-0.45000
16386107;-0.42000
16388884;-0.34000
16391662;-0.30000
16394440;-0.28500
16397218;-0.30500
16399995;-0.31500
16402773;-0.31500
16405551;-0.30000
16408329;-0.29000
16411107;-0.29000
16413884;-0.30500
16416662;-0.32000
16419440;-0.33000
16422218;-0.32500
16424995;-0.31500
16427773;-0.31500
16430551;-0.31500
16433329;-0.33000
16436107;-0.32500
16438884;-0.32500
16441662;-0.32000
16444440;-0.32000
16447218;-0.31500
16449995;-0.33000
16452773;-0.34000
16455551;-0.34000
16458329;-0.32500
16461107;-0.32500
16463884;-0.32000
16466662;-0.32500
16469440;-0.34500
16472218;-0.32000
16474995;-0.30500
16477773;-0.30000
16480551;-0.30000
16483329;-0.30000
16486106;-0.30500
16488884;-0.30000
16491662;-0.28500
16494440;-0.28500
16497218;-0.28500
16499995;-0.30000
16502773;-0.29500
16505551;-0.29000
16508329;-0.28000
16511106;-0.27500
16513884;-0.27500
16516662;-0.29000
16519440;-0.29500
16522218;-0.30500
16524995;-0.29000
16527773;-0.29500
16530551;-0.27500
16533329;-0.28000
16536106;-0.29000
16538884;-0.29000
16541662;-0.27000
16544440;-0.25500
16547218;-0.25000
16549995;-0.27000
16552773;-0.27000
16555551;-0.26000
16558329;-0.26500
16561106;-0.27000
16563884;-0.27000
16566662;-0.27500
16569440;-0.28500
16572218;-0.27500
16574995;-0.26500
16577773;-0.25000
16580551;-0.24500
16583329;-0.25500
16586106;-0.24500
16588884;-0.25000
16591662;-0.25000
16594440;-0.25000
16597218;-0.24000
16599995;-0.25000
16602773;-0.27000
16605551;-0.28000
16608329;-0.25500
16611106;-0.26000
16613884;-0.25500
16616662;-0.26500
16619440;-0.25000
16622218;-0.24000
16624995;-0.23000
16627773;-0.22000
16630551;-0.22500
16633329;-0.24500
16636106;-0.25500
16638884;-0.25000
16641662;-0.24000
16644440;-0.22000
16647218;-0.22500
16649995;-0.21500
16652773;-0.22500
16655551;-0.20000
16658329;-0.18000
16661106;-0.16000
16663884;-0.14000
16666662;-0.13000
16669440;-0.12500
16672218;-0.08500
16674995;-0.06000
16677773;-0.04500
16680551;-0.04000
16683329;-0.04000
16686106;-0.04500
16688884;-0.02000
16691662;0.00000
16694440;0.00500
16697218;-0.00500
16699995;0.00000
16702773;-0.03000
16705551;-0.03500
16708329;-0.03500
16711106;-0.05500
16713884;-0.08000
16716662;-0.09500
16719440;-0.11500
16722218;-0.12000
16724995;-0.13500
16727773;-0.13500
16730551;-0.13500
16733329;-0.13500
16736106;-0.14500
16738884;-0.16000
16741662;-0.16500
16744440;-0.17000
16747218;-0.16500
16749995;-0.17500
16752773;-0.17500
16755551;-0.18000
16758329;-0.17000
16761106;-0.17500
16763884;-0.19000
16766662;-0.20000
16769440;-0.21500
16772218;-0.22500
16774995;-0.22500
16777773;-0.22000
16780551;-0.24000
16783329;-0.25500
16786106;-0.26000
16788884;-0.26500
16791662;-0.26500
16794440;-0.25000
16797218;-0.25000
16799995;-0.25500
16802773;-0.28500
16805551;-0.29500
16808329;-0.30000
16811106;-0.28000
16813884;-0.29500
16816662;-0.30500
16819440;-0.32000
16822218;-0.31500
16824995;-0.30500
16827773;-0.29500
16830551;-0.29000
16833329;-0.30000
16836106;-0.30500
16838884;-0.31000
16841662;-0.30000
16844440;-0.30000
16847218;-0.33000
16849995;-0.36000
16852773;-0.37000
16855551;-0.35500
16858329;-0.31500
16861106;-0.30000
16863884;-0.33500
16866662;-0.36500
16869440;-0.37000
16872217;-0.30500
16874995;-0.18000
16877773;-0.02500
16880551;0.13500
16883329;0.28000
16886106;0.44000
16888884;0.65500
16891662;0.91000
16894440;1.07000
16897217;1.13500
16899995;0.92500
16902773;0.47000
16905551;-0.01500
16908329;-0.32500
16911106;-0.43000
16913884;-0.44500
16916662;-0.41000
16919440;-0.36000
16922217;-0.33500
16924995;-0.32500
16927773;-0.31500
16930551;-0.32000
16933329;-0.32500
16936106;-0.33500
16938884;-0.33000
16941662;-0.33500
16944440;-0.34000
16947217;-0.33500
16949995;-0.34000
16952773;-0.35500
16955551;-0.35500
16958329;-0.34000
16961106;-0.34500
16963884;-0.33500
16966662;-0.35500
16969440;-0.35000
16972217;-0.33500
16974995;-0.34000
16977773;-0.33000
16980551;-0.34000
16983329;-0.33500
16986106;-0.34500
16988884;-0.34000
16991662;-0.35000
16994440;-0.33000
16997217;-0.32500
16999995;-0.33000
17002773;-0.34000
17005551;-0.32000
17008329;-0.31500
17011106;-0.31000
17013884;-0.31000
17016662;-0.32500
17019440;-0.33000
17022217;-0.32500
17024995;-0.32500
17027773;-0.33000
17030551;-0.32500
17033329;-0.34000
17036106;-0.35500
17038884;-0.33500
17041662;-0.32500
17044440;-0.34000
17047217;-0.34500
17049995;-0.35500
17052773;-0.34500
17055551;-0.33000
17058329;-0.33500
17061106;-0.31500
17063884;-0.32000
17066662;-0.33000
17069440;-0.33000
17072217;-0.33000
17074995;-0.32500
17077773;-0.32000
17080551;-0.33000
17083329;-0.34000
17086106;-0.35500
17088884;-0.32000
17091662;-0.30500
17094440;-0.30000
17097217;-0.31000
17099995;-0.32500
17102773;-0.33500
17105551;-0.34500
17108329;-0.33500
17111106;-0.35500
17113884;-0.36000
17116662;-0.36000
17119440;-0.37000
17122217;-0.38000
17124995;-0.37000
17127773;-0.37000
17130551;-0.36000
17133329;-0.36500
17136106;-0.38500
17138884;-0.39500
17141662;-0.38500
17144440;-0.38000
17147217;-0.38000
17149995;-0.38500
17152773;-0.39500
17155551;-0.37500
17158329;-0.36500
17161106;-0.36000
17163884;-0.37000
17166662;-0.36500
17169440;-0.36000
17172217;-0.33000
17174995;-0.32000
17177773;-0.33000
17180551;-0.33000
17183329;-0.34000
17186106;-0.36000
17188884;-0.37000
17191662;-0.37000
17194440;-0.36000
17197217;-0.34500
17199995;-0.33000
17202773;-0.33000
17205551;-0.31000
17208329;-0.31000
17211106;-0.32000
17213884;-0.32000
17216662;-0.33000
17219440;-0.33500
17222217;-0.31000
17224995;-0.30000
17227773;-0.29500
17230551;-0.30500
17233329;-0.31000
17236106;-0.33000
17238884;-0.33500
17241662;-0.31500
17244440;-0.28500
17247217;-0.28500
17249995;-0.29000
17252773;-0.30000
17255551;-0.31000
17258329;-0.30000
17261106;-0.30000
17263884;-0.30500
17266662;-0.31000
17269440;-0.32500
17272217;-0.31000
17274995;-0.30000
17277773;-0.29000
17280551;-0.30500
17283328;-0.30500
17286106;-0.31500
17288884;-0.32000
17291662;-0.32000
17294440;-0.31000
17297217;-0.31000
17299995;-0.30500
17302773;-0.31000
17305551;-0.31500
17308328;-0.30500
17311106;-0.30500
17313884;-0.28500
17316662;-0.28500
17319440;-0.30500
17322217;-0.30500
17324995;-0.29000
17327773;-0.28500
17330551;-0.29500
17333328;-0.30500
17336106;-0.32500
17338884;-0.31000
17341662;-0.30500
17344440;-0.29000
17347217;-0.31000
17349995;-0.31500
17352773;-0.32500
17355551;-0.32500
17358328;-0.31500
17361106;-0.31000
17363884;-0.30500
17366662;-0.32000
17369440;-0.32000
17372217;-0.32000
17374995;-0.31500
17377773;-0.33000
17380551;-0.31500
17383328;-0.31500
17386106;-0.33500
17388884;-0.31000
17391662;-0.30500
17394440;-0.29500
17397217;-0.29500
17399995;-0.30000
17402773;-0.32000
17405551;-0.31500
17408328;-0.32000
17411106;-0.30500
17413884;-0.31500
17416662;-0.32500
17419440;-0.33500
17422217;-0.32500
17424995;-0.32000
17427773;-0.31000
17430551;-0.31000
17433328;-0.32000
17436106;-0.33000
17438884;-0.33500
17441662;-0.33000
17444440;-0.32000
17447217;-0.33000
17449995;-0.33500
17452773;-0.33000
17455551;-0.33000
17458328;-0.31500
17461106;-0.32500
17463884;-0.32000
17466662;-0.32000
17469440;-0.32000
17472217;-0.33000
17474995;-0.32000
17477773;-0.31500
17480551;-0.31500
17483328;-0.31500
17486106;-0.32500
17488884;-0.33000
17491662;-0.33500
17494440;-0.32500
17497217;-0.32500
17499995;-0.33500
17502773;-0.34500
17505551;-0.33500
17508328;-0.32500
17511106;-0.32000
17513884;-0.31500
17516662;-0.32500
17519440;-0.32000
17522217;-0.33000
17524995;-0.32500
17527773;-0.32000
17530551;-0.31500
17533328;-0.33000
17536106;-0.35000
17538884;-0.32500
17541662;-0.31500
17544440;-0.30000
17547217;-0.30500
17549995;-0.31000
17552773;-0.33500
17555551;-0.34500
17558328;-0.34500
17561106;-0.32500
17563884;-0.32000
17566662;-0.32000
17569440;-0.32500
17572217;-0.31000
17574995;-0.31000
17577773;-0.30500
17580551;-0.29500
17583328;-0.30500
17586106;-0.31000
17588884;-0.30000
17591662;-0.28000
17594440;-0.26500
17597217;-0.25000
17599995;-0.23000
17602773;-0.23500
17605551;-0.23000
17608328;-0.21000
17611106;-0.20000
17613884;-0.18500
17616662;-0.20000
17619440;-0.20000
17622217;-0.20500
17624995;-0.20500
17627773;-0.21000
17630551;-0.21000
17633328;-0.22000
17636106;-0.21500
17638884;-0.20000
17641662;-0.20000
17644440;-0.20500
17647217;-0.22500
17649995;-0.22500
17652773;-0.23000
17655551;-0.20000
17658328;-0.20000
17661106;-0.21000
17663884;-0.24000
17666662;-0.28500
17669439;-0.29000
17672217;-0.28500
17674995;-0.28500
17677773;-0.29000
17680551;-0.30000
17683328;-0.32000
17686106;-0.32500
17688884;-0.33000
17691662;-0.33000
17694439;-0.30500
17697217;-0.32000
17699995;-0.33000
17702773;-0.34000
17705551;-0.35000
17708328;-0.33500
17711106;-0.33000
17713884;-0.33500
17716662;-0.33500
17719439;-0.35000
17722217;-0.34500
17724995;-0.33000
17727773;-0.33000
17730551;-0.33500
17733328;-0.33500
17736106;-0.35500
17738884;-0.35000
17741662;-0.35000
17744439;-0.36000
17747217;-0.39000
17749995;-0.43000
17752773;-0.46000
17755551;-0.49000
17758328;-0.50500
17761106;-0.53000
17763884;-0.48000
17766662;-0.37500
17769439;-0.24500
17772217;-0.09500
17774995;0.07000
17777773;0.25000
17780551;0.45000
17783328;0.66500
17786106;0.84000
17788884;0.94500
17791662;1.04500
17794439;1.13500
17797217;1.20000
17799995;1.16000
17802773;0.92500
17805551;0.50500
17808328;0.05500
17811106;-0.28000
17813884;-0.45000
17816662;-0.47500
17819439;-0.45000
17822217;-0.40000
17824995;-0.36500
17827773;-0.35500
17830551;-0.36500
17833328;-0.37500
17836106;-0.38500
17838884;-0.37000
17841662;-0.35000
17844439;-0.36000
17847217;-0.37500
17849995;-0.39500
17852773;-0.41000
17855551;-0.40500
17858328;-0.40500
17861106;-0.38500
17863884;-0.40000
17866662;-0.39500
17869439;-0.42000
17872217;-0.41000
17874995;-0.41500
17877773;-0.41000
17880551;-0.41000
17883328;-0.42000
17886106;-0.43500
17888884;-0.42000
17891662;-0.41500
17894439;-0.41000
17897217;-0.41500
17899995;-0.41500
17902773;-0.41500
17905551;-0.41500
17908328;-0.40000
17911106;-0.39500
17913884;-0.40500
17916662;-0.42500
17919439;-0.43000
17922217;-0.43000
17924995;-0.42000
17927773;-0.40500
17930551;-0.42000
17933328;-0.42500
17936106;-0.43500
17938884;-0.43000
17941662;-0.43500
17944439;-0.41500
17947217;-0.42500
17949995;-0.42000
17952773;-0.41500
17955551;-0.42500
17958328;-0.42500
17961106;-0.41500
17963884;-0.42000
17966662;-0.43000
17969439;-0.44500
17972217;-0.43000
17974995;-0.41500
17977773;-0.41500
17980551;-0.41000
17983328;-0.41000
17986106;-0.44000
17988884;-0.43500
17991662;-0.41000
17994439;-0.41000
17997217;-0.41500
17999995;-0.42500
18002773;-0.43000
18005551;-0.44500
18008328;-0.43000
18011106;-0.42000
18013884;-0.43500
18016662;-0.43500
18019439;-0.43000
18022217;-0.44000
18024995;-0.44500
18027773;-0.43500
18030551;-0.44000
18033328;-0.45000
18036106;-0.48000
18038884;-0.47500
18041662;-0.47500
18044439;-0.46500
18047217;-0.45500
18049995;-0.47000
18052773;-0.47000
18055550;-0.45000
18058328;-0.45000
18061106;-0.44000
18063884;-0.42500
18066662;-0.43000
18069439;-0.45000
18072217;-0.43500
18074995;-0.42000
18077773;-0.40500
18080550;-0.39000
18083328;-0.39500
18086106;-0.39500
18088884;-0.38500
18091662;-0.35500
18094439;-0.33000
18097217;-0.32500
18099995;-0.32500
18102773;-0.33000
18105550;-0.32500
18108328;-0.30500
18111106;-0.28000
18113884;-0.28000
18116662;-0.29500
18119439;-0.31000
18122217;-0.29000
18124995;-0.29500
18127773;-0.27500
18130550;-0.27500
18133328;-0.28500
18136106;-0.30000
18138884;-0.28500
18141662;-0.28500
18144439;-0.27000
18147217;-0.28500
18149995;-0.28000
18152773;-0.30000
18155550;-0.29500
18158328;-0.28500
18161106;-0.29500
18163884;-0.29000
18166662;-0.30000
18169439;-0.30500
18172217;-0.30500
18174995;-0.29500
18177773;-0.28500
18180550;-0.29000
18183328;-0.30000
18186106;-0.32000
18188884;-0.31000
18191662;-0.31000
18194439;-0.30000
18197217;-0.30500
18199995;-0.32000
18202773;-0.32000
18205550;-0.32000
18208328;-0.29500
18211106;-0.30500
18213884;-0.31000
18216662;-0.31500
18219439;-0.33000
18222217;-0.34000
18224995;-0.33500
18227773;-0.32500
18230550;-0.32500
18233328;-0.32000
18236106;-0.34000
18238884;-0.34000
18241662;-0.34500
18244439;-0.35500
18247217;-0.35500
18249995;-0.35000
18252773;-0.36500
18255550;-0.37000
18258328;-0.35500
18261106;-0.35500
18263884;-0.35500
18266662;-0.36000
18269439;-0.37000
18272217;-0.37000
18274995;-0.36000
18277773;-0.35000
18280550;-0.35000
18283328;-0.36000
18286106;-0.37000
18288884;-0.36500
18291662;-0.35000
18294439;-0.34500
18297217;-0.35500
18299995;-0.37500
18302773;-0.39500
18305550;-0.39500
18308328;-0.36500
18311106;-0.35500
18313884;-0.34500
18316662;-0.36000
18319439;-0.37500
18322217;-0.38000
18324995;-0.37500
18327773;-0.34000
18330550;-0.33000
18333328;-0.33500
18336106;-0.34000
18338884;-0.32500
18341662;-0.31000
18344439;-0.30500
18347217;-0.30000
18349995;-0.29000
18352773;-0.31000
18355550;-0.29500
18358328;-0.26500
18361106;-0.26000
18363884;-0.25500
18366662;-0.25000
18369439;-0.26000
18372217;-0.25500
18374995;-0.24500
18377773;-0.25000
18380550;-0.27000
18383328;-0.27500
18386106;-0.28500
18388884;-0.26500
18391662;-0.26000
18394439;-0.26500
18397217;-0.26000
18399995;-0.24500
18402773;-0.24500
18405550;-0.25000
18408328;-0.28500
18411106;-0.31000
18413884;-0.31500
18416662;-0.33500
18419439;-0.35500
18422217;-0.37000
18424995;-0.36000
18427773;-0.35500
18430550;-0.37000
18433328;-0.37500
18436106;-0.38000
18438884;-0.38000
18441662;-0.38000
18444439;-0.37500
18447217;-0.38000
18449995;-0.38000
18452773;-0.39500
18455550;-0.39000
18458328;-0.39000
18461106;-0.39000
18463884;-0.39000
18466661;-0.40000
18469439;-0.40500
18472217;-0.40500
18474995;-0.40000
18477773;-0.40500
18480550;-0.40000
18483328;-0.39000
18486106;-0.41000
18488884;-0.40000
18491661;-0.41000
18494439;-0.43000
18497217;-0.47000
18499995;-0.51500
18502773;-0.53500
18505550;-0.56500
18508328;-0.59500
18511106;-0.56000
18513884;-0.46000
18516661;-0.30000
18519439;-0.12500
18522217;0.09000
18524995;0.35500
18527773;0.68000
18530550;0.92500
18533328;1.04500
18536106;1.03500
18538884;0.83500
18541661;0.40500
18544439;-0.06500
18547217;-0.40500
18549995;-0.53000
18552773;-0.52500
18555550;-0.45500
18558328;-0.40000
18561106;-0.38500
18563884;-0.39500
18566661;-0.41000
18569439;-0.43000
18572217;-0.41000
18574995;-0.40500
18577773;-0.39500
18580550;-0.39500
18583328;-0.40500
18586106;-0.41500
18588884;-0.41000
18591661;-0.41500
18594439;-0.41000
18597217;-0.41500
18599995;-0.41500
18602773;-0.42000
18605550;-0.42000
18608328;-0.42000
18611106;-0.40000
18613884;-0.39500
18616661;-0.42000
18619439;-0.42500
18622217;-0.43000
18624995;-0.41000
18627773;-0.41000
18630550;-0.40000
18633328;-0.42500
18636106;-0.43500
18638884;-0.42000
18641661;-0.41500
18644439;-0.39500
18647217;-0.40500
18649995;-0.40500
18652773;-0.41000
18655550;-0.41000
18658328;-0.40000
18661106;-0.38500
18663884;-0.39000
18666661;-0.40500
18669439;-0.41500
18672217;-0.40500
18674995;-0.41000
18677773;-0.40000
18680550;-0.40000
18683328;-0.41000
18686106;-0.41500
18688884;-0.41000
18691661;-0.39500
18694439;-0.39500
18697217;-0.39500
18699995;-0.40500
18702773;-0.41000
18705550;-0.40500
18708328;-0.40000
18711106;-0.39000
18713884;-0.38500
18716661;-0.39000
18719439;-0.39500
18722217;-0.39000
18724995;-0.38000
18727773;-0.37500
18730550;-0.37500
18733328;-0.38500
18736106;-0.40500
18738884;-0.39000
18741661;-0.38500
18744439;-0.37500
18747217;-0.38000
18749995;-0.38500
18752773;-0.39500
18755550;-0.39000
18758328;-0.37000
18761106;-0.37000
18763884;-0.37000
18766661;-0.37500
18769439;-0.39000
18772217;-0.38000
18774995;-0.38000
18777773;-0.37000
18780550;-0.37000
18783328;-0.38500
18786106;-0.39000
18788884;-0.39000
18791661;-0.38000
18794439;-0.37000
18797217;-0.38000
18799995;-0.38000
18802773;-0.38500
18805550;-0.37500
18808328;-0.36500
18811106;-0.35500
18813884;-0.34500
18816661;-0.34500
18819439;-0.35500
18822217;-0.34000
18824995;-0.32000
18827773;-0.31500
18830550;-0.31500
18833328;-0.31000
18836106;-0.30500
18838884;-0.30500
18841661;-0.28500
18844439;-0.26500
18847217;-0.26500
18849995;-0.27000
18852772;-0.27500
18855550;-0.27000
18858328;-0.27000
18861106;-0.25500
18863884;-0.25500
18866661;-0.27500
18869439;-0.27500
18872217;-0.28500
18874995;-0.27500
18877772;-0.25500
18880550;-0.26500
18883328;-0.29000
18886106;-0.28500
18888884;-0.28000
18891661;-0.27000
18894439;-0.27000
18897217;-0.27000
18899995;-0.28000
18902772;-0.28500
18905550;-0.29000
18908328;-0.28500
18911106;-0.27000
18913884;-0.27000
18916661;-0.27000
18919439;-0.29000
18922217;-0.29000
18924995;-0.28500
18927772;-0.26500
18930550;-0.27500
18933328;-0.28000
18936106;-0.29000
18938884;-0.29500
18941661;-0.29000
18944439;-0.28500
18947217;-0.29000
18949995;-0.31000
18952772;-0.32000
18955550;-0.32000
18958328;-0.31500
18961106;-0.29500
18963884;-0.30500
18966661;-0.31500
18969439;-0.32500
18972217;-0.33500
18974995;-0.32500
18977772;-0.32000
18980550;-0.32000
18983328;-0.33000
18986106;-0.34000
18988884;-0.34000
18991661;-0.33000
18994439;-0.32000
18997217;-0.32000
18999995;-0.32500
19002772;-0.34000
19005550;-0.33500
19008328;-0.32000
19011106;-0.31000
19013884;-0.31500
19016661;-0.33500
19019439;-0.35000
19022217;-0.34500
19024995;-0.33000
19027772;-0.32500
19030550;-0.34000
19033328;-0.35000
19036106;-0.35500
19038884;-0.34000
19041661;-0.34000
19044439;-0.33500
19047217;-0.33500
19049995;-0.34000
19052772;-0.34000
19055550;-0.32500
19058328;-0.31000
19061106;-0.30000
19063884;-0.27500
19066661;-0.27500
19069439;-0.27500
19072217;-0.27000
19074995;-0.24000
19077772;-0.25500
19080550;-0.25500
19083328;-0.24500
19086106;-0.23500
19088884;-0.23000
19091661;-0.21500
19094439;-0.19500
19097217;-0.20000
19099995;-0.20000
19102772;-0.21000
19105550;-0.22500
19108328;-0.22000
19111106;-0.22000
19113884;-0.23500
19116661;-0.24000
19119439;-0.25500
19122217;-0.23500
19124995;-0.22500
19127772;-0.24000
19130550;-0.26000
19133328;-0.25500
19136106;-0.25000
19138884;-0.21000
19141661;-0.20500
19144439;-0.22500
19147217;-0.26000
19149995;-0.28500
19152772;-0.32000
19155550;-0.33000
19158328;-0.33000
19161106;-0.33000
19163884;-0.33500
19166661;-0.35000
