time_ms;ecg_value
0;-0.50500
2778;-0.51000
5556;-0.50000
8333;-0.49000
11111;-0.49000
13889;-0.50500
16667;-0.49000
19444;-0.49500
22222;-0.48000
25000;-0.46500
27778;-0.45500
30556;-0.44500
33333;-0.44500
36111;-0.44000
38889;-0.41500
41667;-0.39000
44444;-0.37000
47222;-0.36500
50000;-0.37000
52778;-0.35500
55556;-0.33000
58333;-0.32000
61111;-0.32000
63889;-0.31500
66667;-0.31000
69444;-0.32000
72222;-0.30500
75000;-0.29000
77778;-0.29500
80556;-0.30500
83333;-0.29500
86111;-0.29500
88889;-0.28500
91667;-0.26500
94444;-0.28000
97222;-0.28000
100000;-0.29000
102778;-0.28500
105556;-0.28000
108333;-0.26500
111111;-0.27500
113889;-0.28000
116667;-0.28000
119444;-0.29500
122222;-0.28000
125000;-0.26500
127778;-0.26500
130556;-0.27000
133333;-0.27500
136111;-0.28000
138889;-0.26500
141667;-0.26000
144444;-0.26000
147222;-0.27500
150000;-0.29000
152778;-0.29500
155556;-0.29500
158333;-0.27500
161111;-0.28000
163889;-0.29000
166667;-0.30000
169444;-0.28000
172222;-0.28500
175000;-0.27500
177778;-0.27500
180556;-0.28500
183333;-0.29500
186111;-0.30000
188889;-0.28000
191667;-0.28000
194444;-0.29000
197222;-0.30500
200000;-0.31000
202778;-0.32000
205555;-0.29500
208333;-0.28000
211111;-0.29500
213889;-0.30000
216667;-0.31000
219444;-0.30000
222222;-0.30000
225000;-0.30000
227778;-0.29500
230555;-0.31000
233333;-0.31500
236111;-0.32000
238889;-0.31500
241667;-0.29500
244444;-0.31000
247222;-0.32000
250000;-0.33000
252778;-0.32000
255555;-0.32000
258333;-0.31000
261111;-0.32500
263889;-0.31500
266667;-0.32500
269444;-0.31500
272222;-0.30500
275000;-0.29500
277778;-0.30500
280555;-0.31000
283333;-0.31500
286111;-0.31500
288889;-0.30500
291667;-0.29000
294444;-0.29500
297222;-0.30000
300000;-0.29500
302778;-0.29000
305555;-0.28000
308333;-0.26000
311111;-0.27000
313889;-0.26000
316667;-0.26500
319444;-0.26000
322222;-0.23500
325000;-0.23000
327778;-0.23500
330555;-0.24500
333333;-0.23000
336111;-0.22000
338889;-0.20000
341667;-0.19000
344444;-0.19000
347222;-0.19000
350000;-0.18000
352778;-0.18000
355555;-0.17500
358333;-0.16500
361111;-0.16000
363889;-0.16500
366667;-0.18000
369444;-0.20000
372222;-0.18500
375000;-0.17500
377778;-0.17000
380555;-0.19000
383333;-0.20000
386111;-0.19000
388889;-0.18000
391667;-0.14500
394444;-0.15000
397222;-0.19000
400000;-0.23500
402778;-0.26500
405555;-0.26000
408333;-0.24500
411111;-0.28000
413889;-0.30000
416667;-0.31500
419444;-0.32500
422222;-0.32000
425000;-0.31500
427778;-0.30500
430555;-0.32000
433333;-0.31500
436111;-0.32500
438889;-0.30000
441667;-0.30000
444444;-0.32000
447222;-0.32000
450000;-0.32000
452778;-0.33500
455555;-0.31500
458333;-0.30500
461111;-0.32000
463889;-0.31000
466667;-0.32500
469444;-0.33500
472222;-0.32000
475000;-0.32000
477778;-0.31000
480555;-0.32000
483333;-0.33000
486111;-0.34500
488889;-0.35000
491667;-0.38500
494444;-0.42500
497222;-0.45000
500000;-0.47000
502778;-0.51000
505555;-0.52500
508333;-0.47000
511111;-0.34000
513889;-0.19000
516667;-0.03500
519444;0.15500
522222;0.43000
525000;0.70500
527778;0.91500
530555;1.02000
533333;1.00000
536111;0.77000
538889;0.38500
541667;-0.06500
544444;-0.37500
547222;-0.49500
550000;-0.46500
552778;-0.40000
555555;-0.34500
558333;-0.33000
561111;-0.35000
563889;-0.36000
566667;-0.36000
569444;-0.36500
572222;-0.35000
575000;-0.34500
577778;-0.35000
580555;-0.37500
583333;-0.38000
586111;-0.38500
588889;-0.35500
591667;-0.37000
594444;-0.37000
597222;-0.37000
600000;-0.38000
602778;-0.38000
605555;-0.37500
608333;-0.36000
611111;-0.36500
613889;-0.37500
616666;-0.38000
619444;-0.38000
622222;-0.37500
625000;-0.36000
627778;-0.36500
630555;-0.36000
633333;-0.36500
636111;-0.37000
638889;-0.36000
641666;-0.35000
644444;-0.35500
647222;-0.36500
650000;-0.37500
652778;-0.38000
655555;-0.37000
658333;-0.35500
661111;-0.36500
663889;-0.36000
666666;-0.38000
669444;-0.37500
672222;-0.37000
675000;-0.36000
677778;-0.35500
680555;-0.36000
683333;-0.38500
686111;-0.38500
688889;-0.38000
691666;-0.37000
694444;-0.36000
697222;-0.37000
700000;-0.38500
702778;-0.37500
705555;-0.36500
708333;-0.34500
711111;-0.36000
713889;-0.35500
716666;-0.37500
719444;-0.37500
722222;-0.36000
725000;-0.35500
727778;-0.36000
730555;-0.36500
733333;-0.39000
736111;-0.38500
738889;-0.37500
741666;-0.36000
744444;-0.36000
747222;-0.36500
750000;-0.38500
752778;-0.39000
755555;-0.37500
758333;-0.37500
761111;-0.37000
763889;-0.37500
766666;-0.38000
769444;-0.38500
772222;-0.37500
775000;-0.37000
777778;-0.36000
780555;-0.37000
783333;-0.38500
786111;-0.37500
788889;-0.37000
791666;-0.36500
794444;-0.38500
797222;-0.39000
800000;-0.38500
802778;-0.38500
805555;-0.37000
808333;-0.35500
811111;-0.34500
813889;-0.34500
816666;-0.36000
819444;-0.34500
822222;-0.32000
825000;-0.30000
827778;-0.29500
830555;-0.28500
833333;-0.29500
836111;-0.29500
838889;-0.27000
841666;-0.26500
844444;-0.26000
847222;-0.25500
850000;-0.26500
852778;-0.27000
855555;-0.25500
858333;-0.25000
861111;-0.25000
863889;-0.25000
866666;-0.26000
869444;-0.26500
872222;-0.26000
875000;-0.25500
877778;-0.25500
880555;-0.26500
883333;-0.26000
886111;-0.26500
888889;-0.26000
891666;-0.25500
894444;-0.26500
897222;-0.27000
900000;-0.27500
902778;-0.27500
905555;-0.26000
908333;-0.25500
911111;-0.25500
913889;-0.26000
916666;-0.27000
919444;-0.27000
922222;-0.25500
925000;-0.25000
927778;-0.26000
930555;-0.27500
933333;-0.27000
936111;-0.27000
938889;-0.24500
941666;-0.25000
944444;-0.25000
947222;-0.26000
950000;-0.26500
952778;-0.27000
955555;-0.26500
958333;-0.25500
961111;-0.26000
963889;-0.28500
966666;-0.29500
969444;-0.28500
972222;-0.28500
975000;-0.28000
977778;-0.27000
980555;-0.28500
983333;-0.28500
986111;-0.29000
988889;-0.30000
991666;-0.29500
994444;-0.29000
997222;-0.29500
1000000;-0.30000
1002777;-0.30500
1005555;-0.30500
1008333;-0.28000
1011111;-0.30000
1013889;-0.28500
1016666;-0.30500
1019444;-0.31000
1022222;-0.29500
1025000;-0.29000
1027777;-0.29500
1030555;-0.30500
1033333;-0.31000
1036111;-0.31500
1038889;-0.30500
1041666;-0.30000
1044444;-0.30000
1047222;-0.30500
1050000;-0.31000
1052777;-0.30000
1055555;-0.31000
1058333;-0.29000
1061111;-0.29500
1063889;-0.30500
1066666;-0.30000
1069444;-0.30000
1072222;-0.28000
1075000;-0.25000
1077777;-0.24500
1080555;-0.24000
1083333;-0.23500
1086111;-0.23000
1088889;-0.21500
1091666;-0.20500
1094444;-0.20500
1097222;-0.21000
1100000;-0.21000
1102777;-0.20500
1105555;-0.19000
1108333;-0.17000
1111111;-0.17500
1113889;-0.17500
1116666;-0.16500
1119444;-0.17500
1122222;-0.16500
1125000;-0.17500
1127777;-0.17000
1130555;-0.19000
1133333;-0.20000
1136111;-0.19000
1138889;-0.17500
1141666;-0.17000
1144444;-0.16000
1147222;-0.15500
1150000;-0.12500
1152777;-0.13000
1155555;-0.14000
1158333;-0.17000
1161111;-0.20000
1163889;-0.20500
1166666;-0.23500
1169444;-0.23500
1172222;-0.24000
1175000;-0.24500
1177777;-0.25000
1180555;-0.26000
1183333;-0.28500
1186111;-0.30500
1188889;-0.30000
1191666;-0.29000
1194444;-0.29500
1197222;-0.31000
1200000;-0.31500
1202777;-0.32000
1205555;-0.32000
1208333;-0.30000
1211111;-0.32000
1213889;-0.34000
1216666;-0.34000
1219444;-0.34500
1222222;-0.33500
1225000;-0.32500
1227777;-0.32500
1230555;-0.33500
1233333;-0.33000
1236111;-0.32000
1238889;-0.31500
1241666;-0.30500
1244444;-0.31500
1247222;-0.32000
1250000;-0.36000
1252777;-0.39000
1255555;-0.41500
1258333;-0.44500
1261111;-0.45500
1263889;-0.49500
1266666;-0.53000
1269444;-0.49000
1272222;-0.39000
1275000;-0.23500
1277777;-0.08000
1280555;0.11500
1283333;0.39000
1286111;0.67000
1288889;0.86500
1291666;0.93000
1294444;0.78000
1297222;0.43000
1300000;0.00500
1302777;-0.35500
1305555;-0.50500
1308333;-0.49500
1311111;-0.42000
1313889;-0.37500
1316666;-0.37000
1319444;-0.39000
1322222;-0.38000
1325000;-0.36500
1327777;-0.35000
1330555;-0.36000
1333333;-0.37500
1336111;-0.38000
1338889;-0.37500
1341666;-0.37000
1344444;-0.37000
1347222;-0.38500
1350000;-0.38000
1352777;-0.38500
1355555;-0.38500
1358333;-0.37500
1361111;-0.37500
1363889;-0.37000
1366666;-0.38000
1369444;-0.39500
1372222;-0.38000
1375000;-0.36500
1377777;-0.37000
1380555;-0.37000
1383333;-0.38500
1386111;-0.38000
1388888;-0.37000
1391666;-0.36000
1394444;-0.35500
1397222;-0.37000
1400000;-0.37500
1402777;-0.38500
1405555;-0.38500
1408333;-0.36000
1411111;-0.37000
1413888;-0.37000
1416666;-0.38000
1419444;-0.39500
1422222;-0.38500
1425000;-0.38000
1427777;-0.37000
1430555;-0.37500
1433333;-0.38500
1436111;-0.38000
1438888;-0.38500
1441666;-0.37500
1444444;-0.36500
1447222;-0.38000
1450000;-0.39000
1452777;-0.38500
1455555;-0.37500
1458333;-0.37000
1461111;-0.36500
1463888;-0.36500
1466666;-0.37000
1469444;-0.38000
1472222;-0.37500
1475000;-0.36000
1477777;-0.35500
1480555;-0.37000
1483333;-0.37500
1486111;-0.38000
1488888;-0.37500
1491666;-0.36500
1494444;-0.38000
1497222;-0.38000
1500000;-0.38500
1502777;-0.38500
1505555;-0.38500
1508333;-0.38000
1511111;-0.38500
1513888;-0.39500
1516666;-0.39500
1519444;-0.40500
1522222;-0.38500
1525000;-0.38500
1527777;-0.38000
1530555;-0.39000
1533333;-0.39000
1536111;-0.38500
1538888;-0.38500
1541666;-0.37500
1544444;-0.38000
1547222;-0.38500
1550000;-0.38500
1552777;-0.39500
1555555;-0.39000
1558333;-0.37000
1561111;-0.37000
1563888;-0.37000
1566666;-0.36500
1569444;-0.36500
1572222;-0.35000
1575000;-0.33500
1577777;-0.32500
1580555;-0.32500
1583333;-0.33000
1586111;-0.32500
1588888;-0.29000
1591666;-0.29000
1594444;-0.28500
1597222;-0.28500
1600000;-0.28500
1602777;-0.28000
1605555;-0.27500
1608333;-0.26000
1611111;-0.26500
1613888;-0.28000
1616666;-0.28500
1619444;-0.28500
1622222;-0.28000
1625000;-0.27500
1627777;-0.27500
1630555;-0.28000
1633333;-0.28500
1636111;-0.29000
1638888;-0.28000
1641666;-0.26500
1644444;-0.27000
1647222;-0.28500
1650000;-0.29000
1652777;-0.29500
1655555;-0.28000
1658333;-0.27500
1661111;-0.27500
1663888;-0.29500
1666666;-0.30500
1669444;-0.29500
1672222;-0.29000
1675000;-0.27500
1677777;-0.28500
1680555;-0.28500
1683333;-0.29000
1686111;-0.31000
1688888;-0.31000
1691666;-0.30000
1694444;-0.30500
1697222;-0.30500
1700000;-0.30500
1702777;-0.31000
1705555;-0.31000
1708333;-0.30000
1711111;-0.31500
1713888;-0.31500
1716666;-0.32000
1719444;-0.33500
1722222;-0.32500
1725000;-0.31000
1727777;-0.30500
1730555;-0.31500
1733333;-0.31000
1736111;-0.32000
1738888;-0.30500
1741666;-0.30500
1744444;-0.30500
1747222;-0.31000
1750000;-0.32000
1752777;-0.32500
1755555;-0.32000
1758333;-0.31500
1761111;-0.31500
1763888;-0.31500
1766666;-0.31500
1769444;-0.32000
1772222;-0.31000
1775000;-0.30000
1777777;-0.29500
1780555;-0.30500
1783333;-0.32000
1786111;-0.32500
1788888;-0.31500
1791666;-0.31000
1794444;-0.31000
1797222;-0.32000
1799999;-0.32500
1802777;-0.32500
1805555;-0.31000
1808333;-0.30500
1811111;-0.31500
1813888;-0.31000
1816666;-0.32000
1819444;-0.31000
1822222;-0.29500
1824999;-0.28000
1827777;-0.26500
1830555;-0.26000
1833333;-0.26500
1836111;-0.27000
1838888;-0.25000
1841666;-0.24000
1844444;-0.23000
1847222;-0.23000
1849999;-0.24000
1852777;-0.24000
1855555;-0.23000
1858333;-0.20500
1861111;-0.20000
1863888;-0.20500
1866666;-0.19500
1869444;-0.21000
1872222;-0.19000
1874999;-0.18000
1877777;-0.19500
1880555;-0.20500
1883333;-0.21000
1886111;-0.21000
1888888;-0.19500
1891666;-0.18500
1894444;-0.18000
1897222;-0.17000
1899999;-0.16500
1902777;-0.15500
1905555;-0.17500
1908333;-0.20500
1911111;-0.24000
1913888;-0.26500
1916666;-0.27500
1919444;-0.29500
1922222;-0.29500
1924999;-0.30000
1927777;-0.30000
1930555;-0.32000
1933333;-0.33000
1936111;-0.33000
1938888;-0.32500
1941666;-0.31500
1944444;-0.32500
1947222;-0.33500
1949999;-0.34500
1952777;-0.35000
1955555;-0.34000
1958333;-0.34500
1961111;-0.34500
1963888;-0.34500
1966666;-0.35000
1969444;-0.34500
1972222;-0.33500
1974999;-0.33500
1977777;-0.33500
1980555;-0.33000
1983333;-0.34500
1986111;-0.36000
1988888;-0.35500
1991666;-0.35000
1994444;-0.38500
1997222;-0.44500
1999999;-0.47500
2002777;-0.49500
2005555;-0.51500
2008333;-0.54000
2011111;-0.51500
2013888;-0.42000
2016666;-0.30500
2019444;-0.15500
2022222;0.05000
2024999;0.31500
2027777;0.58000
2030555;0.76000
2033333;0.89000
2036111;0.96500
2038888;1.05000
2041666;1.04000
2044444;0.91000
2047222;0.63500
2049999;0.31000
2052777;-0.04500
2055555;-0.31000
2058333;-0.47000
2061111;-0.53500
2063888;-0.54000
2066666;-0.50000
2069444;-0.45000
2072222;-0.39000
2074999;-0.38500
2077777;-0.40500
2080555;-0.41000
2083333;-0.41000
2086111;-0.41000
2088888;-0.41000
2091666;-0.40500
2094444;-0.40500
2097222;-0.41000
2099999;-0.41500
2102777;-0.40500
2105555;-0.40500
2108333;-0.39500
2111111;-0.40000
2113888;-0.39500
2116666;-0.41000
2119444;-0.41500
2122222;-0.41000
2124999;-0.39500
2127777;-0.40500
2130555;-0.40500
2133333;-0.42000
2136111;-0.41500
2138888;-0.42500
2141666;-0.41500
2144444;-0.41000
2147222;-0.42000
2149999;-0.42500
2152777;-0.43500
2155555;-0.42000
2158333;-0.42500
2161111;-0.40500
2163888;-0.42500
2166666;-0.44000
2169444;-0.43500
2172222;-0.41500
2174999;-0.40000
2177777;-0.39500
2180555;-0.44000
2183333;-0.45000
2186110;-0.44500
2188888;-0.42500
2191666;-0.41500
2194444;-0.41500
2197222;-0.41000
2199999;-0.41500
2202777;-0.42000
2205555;-0.42500
2208333;-0.41500
2211110;-0.41000
2213888;-0.41500
2216666;-0.42000
2219444;-0.42000
2222222;-0.42500
2224999;-0.42000
2227777;-0.40500
2230555;-0.42500
2233333;-0.42000
2236110;-0.43000
2238888;-0.42000
2241666;-0.42000
2244444;-0.42000
2247222;-0.42000
2249999;-0.44000
2252777;-0.44000
2255555;-0.43500
2258333;-0.42000
2261110;-0.41500
2263888;-0.43500
2266666;-0.44000
2269444;-0.45500
2272222;-0.44000
2274999;-0.42500
2277777;-0.44000
2280555;-0.44500
2283333;-0.45500
2286110;-0.46000
2288888;-0.45000
2291666;-0.45000
2294444;-0.43000
2297222;-0.43000
2299999;-0.41500
2302777;-0.41000
2305555;-0.38500
2308333;-0.37000
2311110;-0.36000
2313888;-0.36000
2316666;-0.35500
2319444;-0.34000
2322222;-0.34000
2324999;-0.32500
2327777;-0.33500
2330555;-0.33500
2333333;-0.33500
2336110;-0.32000
2338888;-0.33000
2341666;-0.31000
2344444;-0.31500
2347222;-0.31000
2349999;-0.32500
2352777;-0.31500
2355555;-0.30000
2358333;-0.29000
2361110;-0.30000
2363888;-0.30000
2366666;-0.31500
2369444;-0.31500
2372222;-0.30000
2374999;-0.29500
2377777;-0.29000
2380555;-0.29500
2383333;-0.29500
2386110;-0.29000
2388888;-0.28500
2391666;-0.28000
2394444;-0.30000
2397222;-0.31500
2399999;-0.32500
2402777;-0.31000
2405555;-0.28500
2408333;-0.28500
2411110;-0.29500
2413888;-0.28000
2416666;-0.29500
2419444;-0.30000
2422222;-0.30000
2424999;-0.30000
2427777;-0.30500
2430555;-0.32500
2433333;-0.33500
2436110;-0.33500
2438888;-0.32500
2441666;-0.32000
2444444;-0.32000
2447222;-0.32000
2449999;-0.33500
2452777;-0.33000
2455555;-0.32000
2458333;-0.30500
2461110;-0.32000
2463888;-0.32500
2466666;-0.34500
2469444;-0.37500
2472222;-0.35000
2474999;-0.34500
2477777;-0.33000
2480555;-0.34500
2483333;-0.34500
2486110;-0.35500
2488888;-0.35500
2491666;-0.35000
2494444;-0.35000
2497222;-0.35000
2499999;-0.35000
2502777;-0.34500
2505555;-0.33000
2508333;-0.33500
2511110;-0.33500
2513888;-0.34500
2516666;-0.36000
2519444;-0.36500
2522222;-0.35500
2524999;-0.35500
2527777;-0.34500
2530555;-0.35000
2533333;-0.36000
2536110;-0.34500
2538888;-0.34500
2541666;-0.33500
2544444;-0.34000
2547222;-0.35500
2549999;-0.37000
2552777;-0.38500
2555555;-0.36500
2558333;-0.35000
2561110;-0.33500
2563888;-0.34000
2566666;-0.34000
2569444;-0.34500
2572222;-0.31500
2574999;-0.29500
2577777;-0.28500
2580555;-0.29000
2583333;-0.29500
2586110;-0.28500
2588888;-0.27500
2591666;-0.27000
2594444;-0.27000
2597221;-0.28500
2599999;-0.27000
2602777;-0.24500
2605555;-0.23000
2608333;-0.22000
2611110;-0.22000
2613888;-0.22000
2616666;-0.22500
2619444;-0.22500
2622221;-0.21000
2624999;-0.21500
2627777;-0.23000
2630555;-0.23500
2633333;-0.25500
2636110;-0.26500
2638888;-0.25000
2641666;-0.23500
2644444;-0.23500
2647221;-0.23500
2649999;-0.24500
2652777;-0.25500
2655555;-0.23500
2658333;-0.21000
2661110;-0.22500
2663888;-0.24000
2666666;-0.27000
2669444;-0.28500
2672221;-0.29000
2674999;-0.30000
2677777;-0.32000
2680555;-0.35000
2683333;-0.37000
2686110;-0.37000
2688888;-0.35500
2691666;-0.34000
2694444;-0.33500
2697221;-0.35000
2699999;-0.35500
2702777;-0.36500
2705555;-0.36000
2708333;-0.35500
2711110;-0.37000
2713888;-0.37000
2716666;-0.37000
2719444;-0.37000
2722221;-0.36500
2724999;-0.36500
2727777;-0.36000
2730555;-0.37000
2733333;-0.36500
2736110;-0.36500
2738888;-0.37000
2741666;-0.37000
2744444;-0.38000
2747221;-0.39500
2749999;-0.43500
2752777;-0.47500
2755555;-0.47000
2758333;-0.48500
2761110;-0.53000
2763888;-0.54000
2766666;-0.51000
2769444;-0.40500
2772221;-0.26000
2774999;-0.08500
2777777;0.13500
2780555;0.41000
2783333;0.66000
2786110;0.86000
2788888;0.96500
2791666;0.93000
2794444;0.67500
2797221;0.27000
2799999;-0.12000
2802777;-0.38000
2805555;-0.50500
2808333;-0.54500
2811110;-0.54500
2813888;-0.55000
2816666;-0.53500
2819444;-0.49500
2822221;-0.44500
2824999;-0.41500
2827777;-0.42000
2830555;-0.42000
2833333;-0.43000
2836110;-0.42500
2838888;-0.41500
2841666;-0.41000
2844444;-0.40500
2847221;-0.41000
2849999;-0.42000
2852777;-0.42500
2855555;-0.41000
2858333;-0.41500
2861110;-0.40500
2863888;-0.42500
2866666;-0.43000
2869444;-0.42500
2872221;-0.41500
2874999;-0.42000
2877777;-0.41500
2880555;-0.42000
2883333;-0.43000
2886110;-0.43500
2888888;-0.42500
2891666;-0.41500
2894444;-0.41000
2897221;-0.41500
2899999;-0.42000
2902777;-0.42000
2905555;-0.42000
2908333;-0.42000
2911110;-0.42000
2913888;-0.43000
2916666;-0.43500
2919444;-0.42500
2922221;-0.41500
2924999;-0.40000
2927777;-0.40500
2930555;-0.41500
2933333;-0.41500
2936110;-0.42500
2938888;-0.41500
2941666;-0.40500
2944444;-0.41000
2947221;-0.41000
2949999;-0.41500
2952777;-0.41500
2955555;-0.41000
2958333;-0.40000
2961110;-0.40000
2963888;-0.40000
2966666;-0.41500
2969444;-0.41500
2972221;-0.41500
2974999;-0.40500
2977777;-0.40500
2980555;-0.41000
2983332;-0.42500
2986110;-0.43500
2988888;-0.42000
2991666;-0.41500
2994444;-0.41000
2997221;-0.41000
2999999;-0.43500
3002777;-0.44000
3005555;-0.43500
3008332;-0.43000
3011110;-0.44000
3013888;-0.44000
3016666;-0.45500
3019444;-0.45500
3022221;-0.44000
3024999;-0.43500
3027777;-0.44500
3030555;-0.44500
3033332;-0.46000
3036110;-0.47000
3038888;-0.45000
3041666;-0.45500
3044444;-0.44000
3047221;-0.44500
3049999;-0.44500
3052777;-0.44000
3055555;-0.43000
3058332;-0.40000
3061110;-0.39000
3063888;-0.38500
3066666;-0.39500
3069444;-0.39000
3072221;-0.38500
3074999;-0.38000
3077777;-0.35500
3080555;-0.34500
3083332;-0.34000
3086110;-0.33500
3088888;-0.31000
3091666;-0.28500
3094444;-0.27500
3097221;-0.27500
3099999;-0.28000
3102777;-0.28500
3105555;-0.27000
3108332;-0.26000
3111110;-0.25500
3113888;-0.26500
3116666;-0.28000
3119444;-0.27000
3122221;-0.26500
3124999;-0.25500
3127777;-0.25500
3130555;-0.26000
3133332;-0.27500
3136110;-0.26500
3138888;-0.26000
3141666;-0.25500
3144444;-0.26000
3147221;-0.25000
3149999;-0.26500
3152777;-0.27000
3155555;-0.25500
3158332;-0.25000
3161110;-0.25000
3163888;-0.25500
3166666;-0.25500
3169444;-0.25500
3172221;-0.25500
3174999;-0.25000
3177777;-0.26000
3180555;-0.27500
3183332;-0.27000
3186110;-0.28000
3188888;-0.28000
3191666;-0.27000
3194444;-0.27500
3197221;-0.28500
3199999;-0.28500
3202777;-0.28500
3205555;-0.28500
3208332;-0.28500
3211110;-0.27000
3213888;-0.28500
3216666;-0.29500
3219444;-0.31000
3222221;-0.29500
3224999;-0.28000
3227777;-0.28000
3230555;-0.28500
3233332;-0.30000
3236110;-0.30000
3238888;-0.28500
3241666;-0.27500
3244444;-0.27500
3247221;-0.27500
3249999;-0.29000
3252777;-0.29500
3255555;-0.29000
3258332;-0.29500
3261110;-0.28500
3263888;-0.29500
3266666;-0.29500
3269444;-0.30500
3272221;-0.28500
3274999;-0.28000
3277777;-0.28500
3280555;-0.29000
3283332;-0.30500
3286110;-0.30000
3288888;-0.29000
3291666;-0.29000
3294444;-0.29000
3297221;-0.28000
3299999;-0.28500
3302777;-0.30000
3305555;-0.27000
3308332;-0.26000
3311110;-0.26000
3313888;-0.26500
3316666;-0.26500
3319444;-0.26500
3322221;-0.25000
3324999;-0.23500
3327777;-0.23500
3330555;-0.22500
3333332;-0.23500
3336110;-0.24500
3338888;-0.22000
3341666;-0.22500
3344444;-0.21500
3347221;-0.21500
3349999;-0.22000
3352777;-0.21500
3355555;-0.20000
3358332;-0.19000
3361110;-0.17500
3363888;-0.18000
3366666;-0.17500
3369444;-0.17000
3372221;-0.16500
3374999;-0.16500
3377777;-0.16000
3380555;-0.17000
3383332;-0.18500
3386110;-0.18500
3388888;-0.17000
3391666;-0.15500
3394443;-0.14500
3397221;-0.15500
3399999;-0.16000
3402777;-0.14000
3405555;-0.12500
3408332;-0.12000
3411110;-0.15500
3413888;-0.20000
3416666;-0.22500
3419443;-0.24000
3422221;-0.24500
3424999;-0.25500
3427777;-0.26500
3430555;-0.27500
3433332;-0.29500
3436110;-0.31000
3438888;-0.29500
3441666;-0.29500
3444443;-0.28500
3447221;-0.29000
3449999;-0.30500
3452777;-0.30500
3455555;-0.30000
3458332;-0.29500
3461110;-0.30500
3463888;-0.30500
3466666;-0.31000
3469443;-0.30500
3472221;-0.30000
3474999;-0.28500
3477777;-0.29000
3480555;-0.30500
3483332;-0.32500
3486110;-0.32000
3488888;-0.29500
3491666;-0.30500
3494443;-0.30500
3497221;-0.31000
3499999;-0.35000
3502777;-0.39000
3505555;-0.43000
3508332;-0.43000
3511110;-0.44500
3513888;-0.49000
3516666;-0.51500
3519443;-0.48000
3522221;-0.35500
3524999;-0.21500
3527777;-0.06500
3530555;0.11500
3533332;0.35000
3536110;0.63000
3538888;0.87500
3541666;1.03500
3544443;1.13500
3547221;1.17500
3549999;1.11000
3552777;0.89500
3555555;0.57000
3558332;0.19500
3561110;-0.14500
3563888;-0.38500
3566666;-0.50500
3569443;-0.51000
3572221;-0.46000
3574999;-0.40000
3577777;-0.36500
3580555;-0.35500
3583332;-0.36000
3586110;-0.36500
3588888;-0.36000
3591666;-0.35000
3594443;-0.35500
3597221;-0.36000
3599999;-0.36500
3602777;-0.36000
3605555;-0.36500
3608332;-0.34500
3611110;-0.35000
3613888;-0.37000
3616666;-0.39000
3619443;-0.37500
3622221;-0.37000
3624999;-0.36000
3627777;-0.36500
3630555;-0.37000
3633332;-0.37500
3636110;-0.38000
3638888;-0.37500
3641666;-0.37000
3644443;-0.37000
3647221;-0.37000
3649999;-0.37500
3652777;-0.37500
3655555;-0.37000
3658332;-0.36000
3661110;-0.35500
3663888;-0.36500
3666666;-0.34500
3669443;-0.37000
3672221;-0.36000
3674999;-0.34500
3677777;-0.35500
3680555;-0.36500
3683332;-0.37500
3686110;-0.39000
3688888;-0.37000
3691666;-0.37500
3694443;-0.37000
3697221;-0.36000
3699999;-0.37500
3702777;-0.37500
3705555;-0.37000
3708332;-0.36000
3711110;-0.36000
3713888;-0.37500
3716666;-0.37000
3719443;-0.37500
3722221;-0.36000
3724999;-0.36000
3727777;-0.35000
3730555;-0.36000
3733332;-0.35500
3736110;-0.36500
3738888;-0.36000
3741666;-0.35500
3744443;-0.36000
3747221;-0.35000
3749999;-0.37000
3752777;-0.37500
3755555;-0.36000
3758332;-0.35500
3761110;-0.35500
3763888;-0.36500
3766666;-0.36500
3769443;-0.36000
3772221;-0.35500
3774999;-0.34500
3777777;-0.35000
3780554;-0.36000
3783332;-0.37000
3786110;-0.38000
3788888;-0.36500
3791666;-0.36500
3794443;-0.36500
3797221;-0.37000
3799999;-0.38000
3802777;-0.37500
3805554;-0.36500
3808332;-0.35000
3811110;-0.33500
3813888;-0.34500
3816666;-0.35000
3819443;-0.35000
3822221;-0.33000
3824999;-0.32000
3827777;-0.31000
3830554;-0.29500
3833332;-0.31000
3836110;-0.31000
3838888;-0.29000
3841666;-0.27500
3844443;-0.26000
3847221;-0.26500
3849999;-0.26000
3852777;-0.26500
3855554;-0.25000
3858332;-0.23500
3861110;-0.23500
3863888;-0.23500
3866666;-0.24000
3869443;-0.24000
3872221;-0.22500
3874999;-0.22000
3877777;-0.22000
3880554;-0.22000
3883332;-0.23000
3886110;-0.24500
3888888;-0.22500
3891666;-0.22500
3894443;-0.22000
3897221;-0.23500
3899999;-0.23500
3902777;-0.24000
3905554;-0.23000
3908332;-0.22000
3911110;-0.22500
3913888;-0.23500
3916666;-0.24500
3919443;-0.24500
3922221;-0.25000
3924999;-0.23000
3927777;-0.23000
3930554;-0.23500
3933332;-0.25500
3936110;-0.24000
3938888;-0.24500
3941666;-0.22500
3944443;-0.22500
3947221;-0.25500
3949999;-0.24000
3952777;-0.26000
3955554;-0.25000
3958332;-0.23500
3961110;-0.24000
3963888;-0.25000
3966666;-0.26500
3969443;-0.26000
3972221;-0.25000
3974999;-0.25500
3977777;-0.25000
3980554;-0.24500
3983332;-0.27000
3986110;-0.27500
3988888;-0.26500
3991666;-0.25500
3994443;-0.26000
3997221;-0.26000
3999999;-0.26500
4002777;-0.29000
4005554;-0.28000
4008332;-0.26500
4011110;-0.26000
4013888;-0.26500
4016666;-0.27000
4019443;-0.27500
4022221;-0.27000
4024999;-0.25500
4027777;-0.26500
4030554;-0.27500
4033332;-0.28000
4036110;-0.27500
4038888;-0.26500
4041666;-0.25500
4044443;-0.26000
4047221;-0.26500
4049999;-0.28000
4052777;-0.28000
4055554;-0.27500
4058332;-0.26000
4061110;-0.27000
4063888;-0.27000
4066666;-0.28000
4069443;-0.28000
4072221;-0.26500
4074999;-0.26000
4077777;-0.25500
4080554;-0.25500
4083332;-0.26500
4086110;-0.26500
4088888;-0.26000
4091666;-0.25000
4094443;-0.25500
4097221;-0.25500
4099999;-0.25500
4102777;-0.26000
4105554;-0.24000
4108332;-0.23000
4111110;-0.22500
4113888;-0.22000
4116666;-0.22000
4119443;-0.22500
4122221;-0.20500
4124999;-0.19000
4127777;-0.17000
4130554;-0.19000
4133332;-0.18500
4136110;-0.18000
4138888;-0.16000
4141666;-0.14500
4144443;-0.13500
4147221;-0.12500
4149999;-0.14000
4152777;-0.14000
4155554;-0.14500
4158332;-0.13500
4161110;-0.15000
4163888;-0.16000
4166666;-0.16500
4169443;-0.16500
4172221;-0.15500
4174999;-0.14500
4177777;-0.14500
4180554;-0.14500
4183332;-0.13000
4186110;-0.13000
4188888;-0.14500
4191665;-0.15500
4194443;-0.19000
4197221;-0.21000
4199999;-0.22000
4202777;-0.24500
4205554;-0.25500
4208332;-0.25000
4211110;-0.26000
4213888;-0.26500
4216665;-0.27500
4219443;-0.28500
4222221;-0.27500
4224999;-0.27500
4227777;-0.26500
4230554;-0.27000
4233332;-0.28500
4236110;-0.30000
4238888;-0.28500
4241665;-0.29000
4244443;-0.29000
4247221;-0.30000
4249999;-0.31000
4252777;-0.31000
4255554;-0.30500
4258332;-0.30500
4261110;-0.30500
4263888;-0.30500
4266665;-0.31000
4269443;-0.33000
4272221;-0.31500
4274999;-0.30500
4277777;-0.31000
4280554;-0.32000
4283332;-0.32000
4286110;-0.34500
4288888;-0.33500
4291665;-0.33000
4294443;-0.35000
4297221;-0.39000
4299999;-0.43000
4302777;-0.45000
4305554;-0.46000
4308332;-0.49000
4311110;-0.50500
4313888;-0.46500
4316665;-0.38000
4319443;-0.25500
4322221;-0.09000
4324999;0.08500
4327777;0.35500
4330554;0.63000
4333332;0.83000
4336110;0.90000
4338888;0.87500
4341665;0.65500
4344443;0.30000
4347221;-0.09000
4349999;-0.38500
4352777;-0.49000
4355554;-0.47500
4358332;-0.41500
4361110;-0.36000
4363888;-0.35000
4366665;-0.36000
4369443;-0.36000
4372221;-0.35000
4374999;-0.34000
4377777;-0.34500
4380554;-0.34500
4383332;-0.35000
4386110;-0.36500
4388888;-0.36000
4391665;-0.36000
4394443;-0.35000
4397221;-0.36000
4399999;-0.37000
4402777;-0.37500
4405554;-0.37500
4408332;-0.34500
4411110;-0.35500
4413888;-0.36000
4416665;-0.36000
4419443;-0.37000
4422221;-0.37000
4424999;-0.35500
4427777;-0.34000
4430554;-0.35000
4433332;-0.34500
4436110;-0.36500
4438888;-0.35000
4441665;-0.34500
4444443;-0.34500
4447221;-0.35000
4449999;-0.35000
4452777;-0.37000
4455554;-0.35500
4458332;-0.36500
4461110;-0.34000
4463888;-0.35500
4466665;-0.36000
4469443;-0.35500
4472221;-0.34000
4474999;-0.34000
4477777;-0.33500
4480554;-0.34000
4483332;-0.36500
4486110;-0.36000
4488888;-0.36000
4491665;-0.36000
4494443;-0.35000
4497221;-0.35500
4499999;-0.36000
4502777;-0.37000
4505554;-0.36000
4508332;-0.35500
4511110;-0.35000
4513888;-0.35000
4516665;-0.36000
4519443;-0.36500
4522221;-0.35500
4524999;-0.34500
4527777;-0.35000
4530554;-0.34500
4533332;-0.35500
4536110;-0.36000
4538888;-0.35000
4541665;-0.34000
4544443;-0.34000
4547221;-0.35000
4549999;-0.35000
4552777;-0.35500
4555554;-0.35000
4558332;-0.34000
4561110;-0.33500
4563888;-0.34500
4566665;-0.34500
4569443;-0.35000
4572221;-0.34500
4574999;-0.33500
4577776;-0.33500
4580554;-0.34500
4583332;-0.35000
4586110;-0.36500
4588888;-0.36000
4591665;-0.35500
4594443;-0.34000
4597221;-0.34500
4599999;-0.36000
4602776;-0.36500
4605554;-0.35000
4608332;-0.34500
4611110;-0.34000
4613888;-0.35500
4616665;-0.36000
4619443;-0.35000
4622221;-0.33500
4624999;-0.32000
4627776;-0.31000
4630554;-0.30500
4633332;-0.30000
4636110;-0.29500
4638888;-0.28000
4641665;-0.25500
4644443;-0.25000
4647221;-0.25000
4649999;-0.25500
4652776;-0.25000
4655554;-0.24000
4658332;-0.22000
4661110;-0.21500
4663888;-0.22500
4666665;-0.23500
4669443;-0.24500
4672221;-0.24000
4674999;-0.22000
4677776;-0.22000
4680554;-0.22500
4683332;-0.22500
4686110;-0.24500
4688888;-0.24000
4691665;-0.22500
4694443;-0.21000
4697221;-0.22000
4699999;-0.23500
4702776;-0.23000
4705554;-0.22500
4708332;-0.21000
4711110;-0.21000
4713888;-0.22500
4716665;-0.23500
4719443;-0.24000
4722221;-0.24000
4724999;-0.22500
4727776;-0.22500
4730554;-0.22500
4733332;-0.23000
4736110;-0.24000
4738888;-0.22500
4741665;-0.23500
4744443;-0.23000
4747221;-0.24000
4749999;-0.25000
4752776;-0.26500
4755554;-0.25000
4758332;-0.24000
4761110;-0.24000
4763888;-0.25000
4766665;-0.25500
4769443;-0.26500
4772221;-0.25000
4774999;-0.24500
4777776;-0.24500
4780554;-0.25500
4783332;-0.26500
4786110;-0.26500
4788888;-0.26500
4791665;-0.26000
4794443;-0.25000
4797221;-0.26000
4799999;-0.26500
4802776;-0.28000
4805554;-0.27500
4808332;-0.27000
4811110;-0.26500
4813888;-0.27500
4816665;-0.29500
4819443;-0.29500
4822221;-0.28500
4824999;-0.28000
4827776;-0.27500
4830554;-0.27000
4833332;-0.28000
4836110;-0.28500
4838888;-0.28500
4841665;-0.27500
4844443;-0.27500
4847221;-0.28000
4849999;-0.28500
4852776;-0.28500
4855554;-0.28000
4858332;-0.27500
4861110;-0.26000
4863888;-0.27000
4866665;-0.28000
4869443;-0.28000
4872221;-0.28000
4874999;-0.27000
4877776;-0.27000
4880554;-0.27000
4883332;-0.28000
4886110;-0.28500
4888888;-0.29000
4891665;-0.28000
4894443;-0.28000
4897221;-0.29000
4899999;-0.28500
4902776;-0.28000
4905554;-0.26500
4908332;-0.27000
4911110;-0.27000
4913888;-0.27500
4916665;-0.26500
4919443;-0.26500
4922221;-0.25500
4924999;-0.25000
4927776;-0.24500
4930554;-0.24000
4933332;-0.23000
4936110;-0.22500
4938888;-0.21000
4941665;-0.19000
4944443;-0.19500
4947221;-0.20000
4949999;-0.20000
4952776;-0.21000
4955554;-0.19500
4958332;-0.17500
4961110;-0.16500
4963887;-0.17000
4966665;-0.17500
4969443;-0.17500
4972221;-0.17000
4974999;-0.16000
4977776;-0.16500
4980554;-0.17000
4983332;-0.17000
4986110;-0.17000
4988887;-0.14500
4991665;-0.13000
4994443;-0.13000
4997221;-0.13000
4999999;-0.13500
5002776;-0.12000
5005554;-0.10500
5008332;-0.11000
5011110;-0.14500
5013887;-0.18000
5016665;-0.20000
5019443;-0.22000
5022221;-0.21000
5024999;-0.21000
5027776;-0.22500
5030554;-0.24500
5033332;-0.27000
5036110;-0.27500
5038887;-0.27500
5041665;-0.27500
5044443;-0.30000
5047221;-0.30500
5049999;-0.30500
5052776;-0.30500
5055554;-0.29500
5058332;-0.29500
5061110;-0.29500
5063887;-0.30500
5066665;-0.32000
5069443;-0.32000
5072221;-0.31000
5074999;-0.31000
5077776;-0.30500
5080554;-0.30000
5083332;-0.31000
5086110;-0.31500
5088887;-0.30500
5091665;-0.30000
5094443;-0.30000
5097221;-0.31500
5099999;-0.32000
5102776;-0.32500
5105554;-0.33000
5108332;-0.33000
5111110;-0.34500
5113887;-0.40000
5116665;-0.43000
5119443;-0.44000
5122221;-0.45500
5124999;-0.49000
5127776;-0.51000
5130554;-0.47000
5133332;-0.37500
5136110;-0.26000
5138887;-0.09000
5141665;0.12000
5144443;0.39000
5147221;0.65500
5149999;0.85500
5152776;0.93500
5155554;0.88500
5158332;0.66000
5161110;0.28500
5163887;-0.10000
5166665;-0.36000
5169443;-0.47500
5172221;-0.48000
5174999;-0.44000
5177776;-0.39000
5180554;-0.36000
5183332;-0.37500
5186110;-0.37500
5188887;-0.37500
5191665;-0.35500
5194443;-0.34500
5197221;-0.35500
5199999;-0.36500
5202776;-0.37000
5205554;-0.35500
5208332;-0.35000
5211110;-0.34500
5213887;-0.34500
5216665;-0.36500
5219443;-0.36500
5222221;-0.34500
5224999;-0.33500
5227776;-0.35000
5230554;-0.35000
5233332;-0.36500
5236110;-0.37500
5238887;-0.36500
5241665;-0.35000
5244443;-0.35000
5247221;-0.35000
5249999;-0.35500
5252776;-0.36000
5255554;-0.35500
5258332;-0.34500
5261110;-0.36000
5263887;-0.36000
5266665;-0.36500
5269443;-0.37000
5272221;-0.36500
5274999;-0.35000
5277776;-0.35500
5280554;-0.36500
5283332;-0.36500
5286110;-0.36000
5288887;-0.35000
5291665;-0.34000
5294443;-0.35000
5297221;-0.35000
5299999;-0.36500
5302776;-0.37000
5305554;-0.37000
5308332;-0.35000
5311110;-0.35000
5313887;-0.35500
5316665;-0.36000
5319443;-0.35500
5322221;-0.35000
5324999;-0.34500
5327776;-0.34000
5330554;-0.35000
5333332;-0.35500
5336110;-0.36500
5338887;-0.34500
5341665;-0.33500
5344443;-0.34000
5347221;-0.34500
5349999;-0.35000
5352776;-0.36000
5355554;-0.35000
5358332;-0.35000
5361110;-0.35500
5363887;-0.35500
5366665;-0.37500
5369443;-0.37000
5372221;-0.36500
5374998;-0.35500
5377776;-0.36000
5380554;-0.36000
5383332;-0.38000
5386110;-0.38500
5388887;-0.36000
5391665;-0.35000
5394443;-0.34500
5397221;-0.35000
5399998;-0.37000
5402776;-0.37000
5405554;-0.37000
5408332;-0.36000
5411110;-0.36500
5413887;-0.36500
5416665;-0.39000
5419443;-0.39500
5422221;-0.39500
5424998;-0.40000
5427776;-0.38000
5430554;-0.38000
5433332;-0.38500
5436110;-0.37500
5438887;-0.38000
5441665;-0.38000
5444443;-0.35500
5447221;-0.35500
5449998;-0.36500
5452776;-0.35000
5455554;-0.33500
5458332;-0.33000
5461110;-0.31000
5463887;-0.31000
5466665;-0.30500
5469443;-0.29500
5472221;-0.27500
5474998;-0.24500
5477776;-0.24000
5480554;-0.23000
5483332;-0.23500
5486110;-0.23000
5488887;-0.22500
5491665;-0.21500
5494443;-0.21500
5497221;-0.22000
5499998;-0.24000
5502776;-0.24000
5505554;-0.23000
5508332;-0.23000
5511110;-0.22000
5513887;-0.22500
5516665;-0.23000
5519443;-0.25000
5522221;-0.23500
5524998;-0.24500
5527776;-0.22500
5530554;-0.23000
5533332;-0.23000
5536110;-0.24000
5538887;-0.23000
5541665;-0.23500
5544443;-0.22500
5547221;-0.21500
5549998;-0.22500
5552776;-0.24000
5555554;-0.22000
5558332;-0.22500
5561110;-0.22000
5563887;-0.22500
5566665;-0.23500
5569443;-0.25500
5572221;-0.25000
5574998;-0.25000
5577776;-0.24000
5580554;-0.25000
5583332;-0.26000
5586110;-0.27000
5588887;-0.26500
5591665;-0.26000
5594443;-0.25000
5597221;-0.27000
5599998;-0.28000
5602776;-0.27500
5605554;-0.26000
5608332;-0.26000
5611110;-0.26500
5613887;-0.26500
5616665;-0.29000
5619443;-0.30000
5622221;-0.28500
5624998;-0.26500
5627776;-0.25000
5630554;-0.25000
5633332;-0.27000
5636110;-0.28000
5638887;-0.28000
5641665;-0.27500
5644443;-0.26500
5647221;-0.27500
5649998;-0.29500
5652776;-0.31000
5655554;-0.30000
5658332;-0.29500
5661110;-0.29000
5663887;-0.28500
5666665;-0.28000
5669443;-0.29500
5672221;-0.29500
5674998;-0.29500
5677776;-0.29500
5680554;-0.30500
5683332;-0.30000
5686110;-0.29000
5688887;-0.29000
5691665;-0.28500
5694443;-0.29000
5697221;-0.29500
5699998;-0.29500
5702776;-0.30500
5705554;-0.29000
5708332;-0.28000
5711110;-0.27000
5713887;-0.28500
5716665;-0.29000
5719443;-0.30000
5722221;-0.29000
5724998;-0.28000
5727776;-0.28000
5730554;-0.28000
5733332;-0.30000
5736110;-0.30500
5738887;-0.29500
5741665;-0.27500
5744443;-0.28000
5747221;-0.29000
5749998;-0.29500
5752776;-0.29500
5755554;-0.30500
5758332;-0.28500
5761109;-0.26500
5763887;-0.27000
5766665;-0.27500
5769443;-0.27500
5772221;-0.25500
5774998;-0.23500
5777776;-0.23500
5780554;-0.22500
5783332;-0.22500
5786109;-0.23500
5788887;-0.21500
5791665;-0.21000
5794443;-0.22000
5797221;-0.20000
5799998;-0.21000
5802776;-0.20000
5805554;-0.19500
5808332;-0.18500
5811109;-0.17500
5813887;-0.19500
5816665;-0.18500
5819443;-0.17000
5822221;-0.16500
5824998;-0.16500
5827776;-0.16500
5830554;-0.17500
5833332;-0.17500
5836109;-0.19000
5838887;-0.17000
5841665;-0.17000
5844443;-0.17000
5847221;-0.17000
5849998;-0.16500
5852776;-0.16500
5855554;-0.14500
5858332;-0.16000
5861109;-0.18000
5863887;-0.22000
5866665;-0.23500
5869443;-0.26000
5872221;-0.27000
5874998;-0.27500
5877776;-0.28500
5880554;-0.30500
5883332;-0.31500
5886109;-0.32000
5888887;-0.31000
5891665;-0.29500
5894443;-0.29000
5897221;-0.29500
5899998;-0.29500
5902776;-0.31500
5905554;-0.31000
5908332;-0.31000
5911109;-0.31500
5913887;-0.31500
5916665;-0.32500
5919443;-0.34000
5922221;-0.33000
5924998;-0.32500
5927776;-0.32000
5930554;-0.32000
5933332;-0.33000
5936109;-0.34000
5938887;-0.34500
5941665;-0.32000
5944443;-0.33500
5947221;-0.35500
5949998;-0.40500
5952776;-0.45500
5955554;-0.46500
5958332;-0.49000
5961109;-0.52000
5963887;-0.53500
5966665;-0.49500
5969443;-0.43500
5972221;-0.31000
5974998;-0.22000
5977776;-0.13500
5980554;-0.04500
5983332;0.08500
5986109;0.28500
5988887;0.53000
5991665;0.77500
5994443;0.93500
5997221;1.02500
5999998;0.98500
6002776;0.74500
6005554;0.34500
6008332;-0.03500
6011109;-0.32000
6013887;-0.45000
6016665;-0.48500
6019443;-0.46000
6022221;-0.40500
6024998;-0.38000
6027776;-0.37000
6030554;-0.37000
6033332;-0.38000
6036109;-0.37500
6038887;-0.36000
6041665;-0.36000
6044443;-0.36000
6047221;-0.36500
6049998;-0.38000
6052776;-0.38000
6055554;-0.35000
6058332;-0.35500
6061109;-0.37000
6063887;-0.36500
6066665;-0.38500
6069443;-0.38000
6072221;-0.37500
6074998;-0.36500
6077776;-0.37000
6080554;-0.36000
6083332;-0.39000
6086109;-0.40000
6088887;-0.38000
6091665;-0.37500
6094443;-0.37500
6097221;-0.37500
6099998;-0.39500
6102776;-0.39500
6105554;-0.40000
6108332;-0.38500
6111109;-0.37500
6113887;-0.37500
6116665;-0.37500
6119443;-0.38500
6122221;-0.36500
6124998;-0.37000
6127776;-0.37000
6130554;-0.36500
6133332;-0.37000
6136109;-0.37000
6138887;-0.37000
6141665;-0.37000
6144443;-0.37000
6147221;-0.37000
6149998;-0.38500
6152776;-0.37500
6155554;-0.39000
6158332;-0.37500
6161109;-0.36500
6163887;-0.37500
6166665;-0.38000
6169443;-0.37500
6172220;-0.37000
6174998;-0.37500
6177776;-0.37000
6180554;-0.36500
6183332;-0.37500
6186109;-0.37500
6188887;-0.37000
6191665;-0.35500
6194443;-0.35000
6197220;-0.36500
6199998;-0.37500
6202776;-0.38000
6205554;-0.36500
6208332;-0.37000
6211109;-0.36000
6213887;-0.38500
6216665;-0.38500
6219443;-0.39500
6222220;-0.39500
6224998;-0.38000
6227776;-0.38500
6230554;-0.39000
6233332;-0.40000
6236109;-0.41000
6238887;-0.40500
6241665;-0.41000
6244443;-0.41000
6247220;-0.41000
6249998;-0.42500
6252776;-0.42500
6255554;-0.42000
6258332;-0.42000
6261109;-0.41500
6263887;-0.41000
6266665;-0.41500
6269443;-0.41000
6272220;-0.38500
6274998;-0.38000
6277776;-0.36500
6280554;-0.35500
6283332;-0.36000
6286109;-0.35000
6288887;-0.33500
6291665;-0.32500
6294443;-0.31500
6297220;-0.30500
6299998;-0.31500
6302776;-0.31500
6305554;-0.28500
6308332;-0.27500
6311109;-0.26000
6313887;-0.27500
6316665;-0.27500
6319443;-0.26500
6322220;-0.25000
6324998;-0.24000
6327776;-0.23000
6330554;-0.22500
6333332;-0.23500
6336109;-0.24000
6338887;-0.23500
6341665;-0.22500
6344443;-0.21500
6347220;-0.20500
6349998;-0.20500
6352776;-0.22500
6355554;-0.22000
6358332;-0.20000
6361109;-0.19000
6363887;-0.20500
6366665;-0.20500
6369443;-0.22000
6372220;-0.20500
6374998;-0.21000
6377776;-0.21000
6380554;-0.21000
6383332;-0.22500
6386109;-0.24500
6388887;-0.21500
6391665;-0.21500
6394443;-0.20500
6397220;-0.21000
6399998;-0.21500
6402776;-0.21500
6405554;-0.21000
6408332;-0.21000
6411109;-0.21000
6413887;-0.20500
6416665;-0.21500
6419443;-0.22500
6422220;-0.21500
6424998;-0.22000
6427776;-0.22500
6430554;-0.21500
6433332;-0.23500
6436109;-0.25500
6438887;-0.24500
6441665;-0.23500
6444443;-0.23000
6447220;-0.23000
6449998;-0.24500
6452776;-0.25000
6455554;-0.25000
6458332;-0.24500
6461109;-0.24500
6463887;-0.24000
6466665;-0.24500
6469443;-0.25500
6472220;-0.25000
6474998;-0.24500
6477776;-0.23000
6480554;-0.24000
6483332;-0.24000
6486109;-0.25500
6488887;-0.23500
6491665;-0.24000
6494443;-0.23000
6497220;-0.24000
6499998;-0.24500
6502776;-0.25000
6505554;-0.24500
6508332;-0.23500
6511109;-0.22500
6513887;-0.23500
6516665;-0.25500
6519443;-0.25500
6522220;-0.26000
6524998;-0.24500
6527776;-0.24000
6530554;-0.25500
6533332;-0.26000
6536109;-0.26000
6538887;-0.24000
6541665;-0.24000
6544443;-0.23000
6547220;-0.23000
6549998;-0.23500
6552776;-0.24000
6555554;-0.24500
6558331;-0.24000
6561109;-0.23500
6563887;-0.23000
6566665;-0.24000
6569443;-0.24500
6572220;-0.25500
6574998;-0.22500
6577776;-0.21500
6580554;-0.22000
6583331;-0.20500
6586109;-0.20000
6588887;-0.19000
6591665;-0.17000
6594443;-0.16000
6597220;-0.14500
6599998;-0.15500
6602776;-0.15000
6605554;-0.15000
6608331;-0.14000
6611109;-0.12500
6613887;-0.12000
6616665;-0.13000
6619443;-0.13000
6622220;-0.10500
6624998;-0.09500
6627776;-0.10000
6630554;-0.09500
6633331;-0.10500
6636109;-0.12500
6638887;-0.12000
6641665;-0.12500
6644443;-0.11000
6647220;-0.10500
6649998;-0.11500
6652776;-0.11500
6655554;-0.10500
6658331;-0.09500
6661109;-0.06500
6663887;-0.06500
6666665;-0.09000
6669443;-0.12500
6672220;-0.16000
6674998;-0.15500
6677776;-0.16500
6680554;-0.19000
6683331;-0.20500
6686109;-0.22000
6688887;-0.23500
6691665;-0.24500
6694443;-0.23500
6697220;-0.23500
6699998;-0.24000
6702776;-0.25500
6705554;-0.25000
6708331;-0.24500
6711109;-0.24500
6713887;-0.25000
6716665;-0.26000
6719443;-0.27000
6722220;-0.26500
6724998;-0.27000
6727776;-0.25500
6730554;-0.25500
6733331;-0.28500
6736109;-0.27000
6738887;-0.27000
6741665;-0.25500
6744443;-0.24500
6747220;-0.25500
6749998;-0.26000
6752776;-0.27000
6755554;-0.28000
6758331;-0.29500
6761109;-0.33000
6763887;-0.37000
6766665;-0.40000
6769443;-0.42500
6772220;-0.45500
6774998;-0.48000
6777776;-0.46000
6780554;-0.39000
6783331;-0.31000
6786109;-0.20500
6788887;-0.10500
6791665;-0.01500
6794443;0.12000
6797220;0.30000
6799998;0.51000
6802776;0.74000
6805554;0.93000
6808331;1.05000
6811109;1.12500
6813887;1.12000
6816665;1.01500
6819443;0.71000
6822220;0.27000
6824998;-0.12000
6827776;-0.34500
6830554;-0.41000
6833331;-0.39000
6836109;-0.33500
6838887;-0.31000
6841665;-0.29500
6844443;-0.31500
6847220;-0.30500
6849998;-0.31000
6852776;-0.31000
6855554;-0.30500
6858331;-0.31500
6861109;-0.31500
6863887;-0.32000
6866665;-0.32500
6869443;-0.32500
6872220;-0.31500
6874998;-0.32500
6877776;-0.31000
6880554;-0.32000
6883331;-0.32000
6886109;-0.33000
6888887;-0.32500
6891665;-0.30500
6894443;-0.30500
6897220;-0.30000
6899998;-0.30500
6902776;-0.32000
6905554;-0.32000
6908331;-0.30500
6911109;-0.30500
6913887;-0.31500
6916665;-0.31500
6919443;-0.32000
6922220;-0.32500
6924998;-0.31500
6927776;-0.31500
6930554;-0.32500
6933331;-0.32000
6936109;-0.33000
6938887;-0.32500
6941665;-0.32000
6944442;-0.32000
6947220;-0.32000
6949998;-0.32500
6952776;-0.32500
6955554;-0.32500
6958331;-0.31500
6961109;-0.31000
6963887;-0.31500
6966665;-0.31500
6969442;-0.33500
6972220;-0.31500
6974998;-0.31000
6977776;-0.30000
6980554;-0.30500
6983331;-0.31000
6986109;-0.32500
6988887;-0.29500
6991665;-0.29500
6994442;-0.29000
6997220;-0.29500
6999998;-0.31000
7002776;-0.32000
7005554;-0.31500
7008331;-0.31000
7011109;-0.30500
7013887;-0.32000
7016665;-0.31000
7019442;-0.31500
7022220;-0.31000
7024998;-0.31000
7027776;-0.30500
7030554;-0.30500
7033331;-0.32000
7036109;-0.32500
7038887;-0.33000
7041665;-0.32500
7044442;-0.31500
7047220;-0.31000
7049998;-0.31500
7052776;-0.33000
7055554;-0.32000
7058331;-0.32500
7061109;-0.30500
7063887;-0.30000
7066665;-0.31000
7069442;-0.32000
7072220;-0.30500
7074998;-0.30000
7077776;-0.29500
7080554;-0.30500
7083331;-0.30500
7086109;-0.31000
7088887;-0.31000
7091665;-0.30500
7094442;-0.29000
7097220;-0.28500
7099998;-0.27000
7102776;-0.26500
7105554;-0.26000
7108331;-0.24000
7111109;-0.23500
7113887;-0.22500
7116665;-0.22000
7119442;-0.22000
7122220;-0.21000
7124998;-0.20000
7127776;-0.19500
7130554;-0.19500
7133331;-0.20000
7136109;-0.20500
7138887;-0.19000
7141665;-0.18000
7144442;-0.18000
7147220;-0.17500
7149998;-0.18500
7152776;-0.20500
7155554;-0.18500
7158331;-0.18000
7161109;-0.18500
7163887;-0.19000
7166665;-0.19500
7169442;-0.21500
7172220;-0.19500
7174998;-0.18000
7177776;-0.17500
7180554;-0.17500
7183331;-0.19000
7186109;-0.19500
7188887;-0.19000
7191665;-0.19500
7194442;-0.19500
7197220;-0.20000
7199998;-0.20500
7202776;-0.20000
7205554;-0.21000
7208331;-0.20500
7211109;-0.20000
7213887;-0.19500
7216665;-0.20500
7219442;-0.21500
7222220;-0.20500
7224998;-0.20000
7227776;-0.19500
7230554;-0.20500
7233331;-0.21500
7236109;-0.22000
7238887;-0.21000
7241665;-0.21000
7244442;-0.21000
7247220;-0.21500
7249998;-0.21000
7252776;-0.22000
7255554;-0.22500
7258331;-0.21500
7261109;-0.22000
7263887;-0.21500
7266665;-0.22500
7269442;-0.23500
7272220;-0.23000
7274998;-0.24000
7277776;-0.22000
7280554;-0.24000
7283331;-0.24500
7286109;-0.25000
7288887;-0.24500
7291665;-0.23500
7294442;-0.23500
7297220;-0.24000
7299998;-0.25500
7302776;-0.26500
7305554;-0.25500
7308331;-0.24500
7311109;-0.24000
7313887;-0.24500
7316665;-0.25000
7319442;-0.25000
7322220;-0.24500
7324998;-0.23000
7327776;-0.22500
7330554;-0.25000
7333331;-0.23000
7336109;-0.24500
7338887;-0.23000
7341665;-0.23000
7344442;-0.22500
7347220;-0.23500
7349998;-0.23500
7352776;-0.25000
7355553;-0.24500
7358331;-0.24000
7361109;-0.23000
7363887;-0.24500
7366665;-0.24000
7369442;-0.24000
7372220;-0.24500
7374998;-0.23500
7377776;-0.22000
7380553;-0.23500
7383331;-0.22500
7386109;-0.24500
7388887;-0.22500
7391665;-0.21500
7394442;-0.20500
7397220;-0.19500
7399998;-0.18500
7402776;-0.19000
7405553;-0.18000
7408331;-0.17000
7411109;-0.16000
7413887;-0.16000
7416665;-0.17000
7419442;-0.16000
7422220;-0.16000
7424998;-0.15500
7427776;-0.13000
7430553;-0.12000
7433331;-0.11000
7436109;-0.11500
7438887;-0.10500
7441665;-0.09000
7444442;-0.09000
7447220;-0.10500
7449998;-0.11000
7452776;-0.13000
7455553;-0.12500
7458331;-0.10500
7461109;-0.11000
7463887;-0.10500
7466665;-0.12000
7469442;-0.13000
7472220;-0.11500
7474998;-0.09000
7477776;-0.06500
7480553;-0.07000
7483331;-0.10000
7486109;-0.15000
7488887;-0.17000
7491665;-0.17000
7494442;-0.18500
7497220;-0.19500
7499998;-0.21500
7502776;-0.24000
7505553;-0.24500
7508331;-0.25000
7511109;-0.25000
7513887;-0.25000
7516665;-0.25500
7519442;-0.26500
7522220;-0.25000
7524998;-0.24500
7527776;-0.25500
7530553;-0.25000
7533331;-0.27000
7536109;-0.27000
7538887;-0.27000
7541665;-0.26000
7544442;-0.26500
7547220;-0.26500
7549998;-0.27000
7552776;-0.28500
7555553;-0.28000
7558331;-0.27500
7561109;-0.26000
7563887;-0.27000
7566665;-0.28500
7569442;-0.30000
7572220;-0.31500
7574998;-0.35000
7577776;-0.38500
7580553;-0.38500
7583331;-0.43000
7586109;-0.47000
7588887;-0.49000
7591665;-0.43500
7594442;-0.32500
7597220;-0.17500
7599998;-0.05000
7602776;0.15000
7605553;0.42500
7608331;0.71500
7611109;0.93500
7613887;1.04000
7616665;1.03000
7619442;0.88000
7622220;0.57500
7624998;0.22000
7627776;-0.10500
7630553;-0.32000
7633331;-0.44500
7636109;-0.51000
7638887;-0.47500
7641665;-0.41000
7644442;-0.35500
7647220;-0.33500
7649998;-0.34000
7652776;-0.34500
7655553;-0.33500
7658331;-0.32000
7661109;-0.30500
7663887;-0.32000
7666665;-0.33500
7669442;-0.35000
7672220;-0.32500
7674998;-0.32500
7677776;-0.32000
7680553;-0.33000
7683331;-0.32500
7686109;-0.34000
7688887;-0.34000
7691665;-0.33500
7694442;-0.32000
7697220;-0.33000
7699998;-0.33000
7702776;-0.34000
7705553;-0.33000
7708331;-0.32500
7711109;-0.32500
7713887;-0.33000
7716665;-0.34000
7719442;-0.35000
7722220;-0.34000
7724998;-0.32000
7727776;-0.32500
7730553;-0.32000
7733331;-0.33000
7736109;-0.34000
7738887;-0.32500
7741664;-0.30500
7744442;-0.30500
7747220;-0.31000
7749998;-0.31500
7752776;-0.33000
7755553;-0.32500
7758331;-0.32000
7761109;-0.32500
7763887;-0.32000
7766664;-0.33500
7769442;-0.34000
7772220;-0.33500
7774998;-0.32500
7777776;-0.32000
7780553;-0.32500
7783331;-0.33500
7786109;-0.33000
7788887;-0.33000
7791664;-0.32000
7794442;-0.32500
7797220;-0.32000
7799998;-0.33500
7802776;-0.33000
7805553;-0.32500
7808331;-0.31500
7811109;-0.32000
7813887;-0.31000
7816664;-0.31500
7819442;-0.33000
7822220;-0.31000
7824998;-0.32000
7827776;-0.31500
7830553;-0.31500
7833331;-0.32000
7836109;-0.34500
7838887;-0.33500
7841664;-0.34000
7844442;-0.32500
7847220;-0.34000
7849998;-0.34500
7852776;-0.35000
7855553;-0.34500
7858331;-0.34000
7861109;-0.33500
7863887;-0.34000
7866664;-0.34500
7869442;-0.34000
7872220;-0.34000
7874998;-0.32500
7877776;-0.31000
7880553;-0.32000
7883331;-0.31500
7886109;-0.32500
7888887;-0.30500
7891664;-0.29500
7894442;-0.27000
7897220;-0.27500
7899998;-0.27500
7902776;-0.27000
7905553;-0.27000
7908331;-0.25500
7911109;-0.23000
7913887;-0.23500
7916664;-0.24000
7919442;-0.24000
7922220;-0.23500
7924998;-0.21500
7927776;-0.21500
7930553;-0.21000
7933331;-0.22500
7936109;-0.22000
7938887;-0.23000
7941664;-0.20500
7944442;-0.20000
7947220;-0.20500
7949998;-0.20000
7952776;-0.21500
7955553;-0.21000
7958331;-0.19000
7961109;-0.20500
7963887;-0.19500
7966664;-0.20500
7969442;-0.21500
7972220;-0.21500
7974998;-0.20000
7977776;-0.20000
7980553;-0.21500
7983331;-0.21000
7986109;-0.22500
7988887;-0.22500
7991664;-0.21500
7994442;-0.21000
7997220;-0.21500
7999998;-0.23000
8002776;-0.24000
8005553;-0.24000
8008331;-0.24500
8011109;-0.23500
8013887;-0.23000
8016664;-0.23500
8019442;-0.24500
8022220;-0.24000
8024998;-0.23000
8027776;-0.22500
8030553;-0.22000
8033331;-0.22000
8036109;-0.23500
8038887;-0.23000
8041664;-0.23000
8044442;-0.23000
8047220;-0.23000
8049998;-0.23500
8052776;-0.26500
8055553;-0.25000
8058331;-0.24500
8061109;-0.24500
8063887;-0.24500
8066664;-0.25000
8069442;-0.26500
8072220;-0.25500
8074998;-0.26000
8077776;-0.25500
8080553;-0.24500
8083331;-0.25500
8086109;-0.27000
8088887;-0.27000
8091664;-0.26000
8094442;-0.25500
8097220;-0.24000
8099998;-0.25500
8102776;-0.26500
8105553;-0.26500
8108331;-0.25500
8111109;-0.25500
8113887;-0.25500
8116664;-0.26000
8119442;-0.25500
8122220;-0.26000
8124998;-0.26000
8127776;-0.26500
8130553;-0.27000
8133331;-0.26500
8136109;-0.28500
8138887;-0.27500
8141664;-0.27000
8144442;-0.26000
8147220;-0.25500
8149998;-0.27000
8152775;-0.28000
8155553;-0.26500
8158331;-0.27500
8161109;-0.27000
8163887;-0.26500
8166664;-0.26500
8169442;-0.27500
8172220;-0.26000
8174998;-0.25500
8177775;-0.25000
8180553;-0.24500
8183331;-0.25000
8186109;-0.26000
8188887;-0.25000
8191664;-0.24000
8194442;-0.22500
8197220;-0.20500
8199998;-0.20000
8202775;-0.22500
8205553;-0.20500
8208331;-0.19500
8211109;-0.17500
8213887;-0.17500
8216664;-0.17500
8219442;-0.19500
8222220;-0.18000
8224998;-0.16500
8227775;-0.15000
8230553;-0.16500
8233331;-0.17000
8236109;-0.15500
8238887;-0.13500
8241664;-0.12000
8244442;-0.11500
8247220;-0.12000
8249998;-0.13000
8252775;-0.15500
8255553;-0.15500
8258331;-0.15000
8261109;-0.13000
8263887;-0.14500
8266664;-0.13500
8269442;-0.14500
8272220;-0.13000
8274998;-0.12000
8277775;-0.09500
8280553;-0.09500
8283331;-0.14500
8286109;-0.18000
8288887;-0.21000
8291664;-0.20000
8294442;-0.21000
8297220;-0.23000
8299998;-0.24500
8302775;-0.25500
8305553;-0.29000
8308331;-0.28000
8311109;-0.27000
8313887;-0.26500
8316664;-0.27500
8319442;-0.28000
8322220;-0.29000
8324998;-0.27500
8327775;-0.27500
8330553;-0.28500
8333331;-0.28500
8336109;-0.30000
8338887;-0.29500
8341664;-0.29500
8344442;-0.28000
8347220;-0.29000
8349998;-0.29000
8352775;-0.30500
8355553;-0.30000
8358331;-0.30000
8361109;-0.29000
8363887;-0.29000
8366664;-0.29000
8369442;-0.32000
8372220;-0.32500
8374998;-0.35500
8377775;-0.37000
8380553;-0.41000
8383331;-0.43000
8386109;-0.45500
8388887;-0.48500
8391664;-0.50500
8394442;-0.46500
8397220;-0.34000
8399998;-0.20500
8402775;-0.05000
8405553;0.19000
8408331;0.48500
8411109;0.75500
8413887;0.92500
8416664;0.96500
8419442;0.79500
8422220;0.44500
8424998;0.04500
8427775;-0.27000
8430553;-0.43000
8433331;-0.47000
8436109;-0.43000
8438887;-0.38000
8441664;-0.35500
8444442;-0.35000
8447220;-0.36000
8449998;-0.36500
8452775;-0.35000
8455553;-0.34000
8458331;-0.34000
8461109;-0.34000
8463887;-0.34000
8466664;-0.34000
8469442;-0.36500
8472220;-0.36500
8474998;-0.33500
8477775;-0.33500
8480553;-0.34000
8483331;-0.35000
8486109;-0.35500
8488887;-0.36500
8491664;-0.34500
8494442;-0.35500
8497220;-0.34500
8499998;-0.36500
8502775;-0.38000
8505553;-0.35000
8508331;-0.33500
8511109;-0.32000
8513887;-0.32000
8516664;-0.34500
8519442;-0.35000
8522220;-0.36000
8524998;-0.35000
8527775;-0.33500
8530553;-0.33500
8533331;-0.34500
8536109;-0.35500
8538886;-0.35000
8541664;-0.34500
8544442;-0.35000
8547220;-0.34500
8549998;-0.35500
8552775;-0.36500
8555553;-0.36500
8558331;-0.35500
8561109;-0.35500
8563886;-0.35000
8566664;-0.36000
8569442;-0.35500
8572220;-0.36500
8574998;-0.35000
8577775;-0.34000
8580553;-0.34000
8583331;-0.34000
8586109;-0.35500
8588886;-0.34500
8591664;-0.34500
8594442;-0.34500
8597220;-0.35500
8599998;-0.36500
8602775;-0.36000
8605553;-0.35500
8608331;-0.35000
8611109;-0.34500
8613886;-0.35000
8616664;-0.36000
8619442;-0.36000
8622220;-0.36000
8624998;-0.36500
8627775;-0.35000
8630553;-0.35500
8633331;-0.36500
8636109;-0.38000
8638886;-0.38500
8641664;-0.38000
8644442;-0.37500
8647220;-0.38000
8649998;-0.37500
8652775;-0.39000
8655553;-0.39500
8658331;-0.38000
8661109;-0.38500
8663886;-0.38500
8666664;-0.40000
8669442;-0.40500
8672220;-0.37500
8674998;-0.35500
8677775;-0.35500
8680553;-0.35000
8683331;-0.34000
8686109;-0.35000
8688886;-0.34500
8691664;-0.30500
8694442;-0.29500
8697220;-0.28500
8699998;-0.28000
8702775;-0.27000
8705553;-0.23500
8708331;-0.22500
8711109;-0.22500
8713886;-0.21500
8716664;-0.23000
8719442;-0.24500
8722220;-0.22500
8724998;-0.22000
8727775;-0.21500
8730553;-0.22000
8733331;-0.22000
8736109;-0.22000
8738886;-0.21500
8741664;-0.21500
8744442;-0.20500
8747220;-0.21000
8749998;-0.22000
8752775;-0.23000
8755553;-0.23000
8758331;-0.22500
8761109;-0.21500
8763886;-0.22500
8766664;-0.23000
8769442;-0.25000
8772220;-0.23500
8774998;-0.22000
8777775;-0.21000
8780553;-0.21000
8783331;-0.23500
8786109;-0.24000
8788886;-0.23500
8791664;-0.22500
8794442;-0.22500
8797220;-0.22000
8799998;-0.23500
8802775;-0.25000
8805553;-0.25000
8808331;-0.24500
8811109;-0.22500
8813886;-0.23000
8816664;-0.24500
8819442;-0.24500
8822220;-0.24500
8824998;-0.23000
8827775;-0.23000
8830553;-0.22500
8833331;-0.26000
8836109;-0.28000
8838886;-0.26000
8841664;-0.25500
8844442;-0.26000
8847220;-0.26000
8849998;-0.26500
8852775;-0.27500
8855553;-0.27000
8858331;-0.26500
8861109;-0.25000
8863886;-0.25500
8866664;-0.27000
8869442;-0.28500
8872220;-0.28000
8874998;-0.28500
8877775;-0.26500
8880553;-0.27500
8883331;-0.28000
8886109;-0.30500
8888886;-0.29000
8891664;-0.28000
8894442;-0.28000
8897220;-0.26500
8899998;-0.28500
8902775;-0.28500
8905553;-0.26500
8908331;-0.26000
8911109;-0.27000
8913886;-0.28000
8916664;-0.28500
8919442;-0.28000
8922220;-0.27500
8924998;-0.27500
8927775;-0.27000
8930553;-0.26000
8933331;-0.28000
8936109;-0.28500
8938886;-0.28500
8941664;-0.27000
8944442;-0.27000
8947220;-0.28000
8949997;-0.29500
8952775;-0.29500
8955553;-0.29500
8958331;-0.28000
8961109;-0.27000
8963886;-0.26500
8966664;-0.26000
8969442;-0.29000
8972220;-0.27000
8974997;-0.27500
8977775;-0.26500
8980553;-0.25500
8983331;-0.26500
8986109;-0.25500
8988886;-0.23000
8991664;-0.23000
8994442;-0.22000
8997220;-0.21500
8999997;-0.20500
9002775;-0.21500
9005553;-0.20000
9008331;-0.19500
9011109;-0.18500
9013886;-0.18500
9016664;-0.19000
9019442;-0.19000
9022220;-0.19000
9024997;-0.18000
9027775;-0.17500
9030553;-0.17000
9033331;-0.17000
9036109;-0.17500
9038886;-0.17000
9041664;-0.15500
9044442;-0.15500
9047220;-0.16000
9049997;-0.17000
9052775;-0.18000
9055553;-0.17500
9058331;-0.15000
9061109;-0.15000
9063886;-0.14500
9066664;-0.15500
9069442;-0.16500
9072220;-0.14000
9074997;-0.13000
9077775;-0.15500
9080553;-0.20000
9083331;-0.21500
9086109;-0.24000
9088886;-0.24500
9091664;-0.24500
9094442;-0.27500
9097220;-0.29000
9099997;-0.29500
9102775;-0.29500
9105553;-0.30000
9108331;-0.27500
9111109;-0.28000
9113886;-0.28000
9116664;-0.28500
9119442;-0.30000
9122220;-0.30000
9124997;-0.28500
9127775;-0.28500
9130553;-0.29000
9133331;-0.30000
9136109;-0.32000
9138886;-0.31500
9141664;-0.29500
9144442;-0.29500
9147220;-0.29000
9149997;-0.30000
9152775;-0.32000
9155553;-0.29500
9158331;-0.29500
9161109;-0.29000
9163886;-0.31000
9166664;-0.36000
9169442;-0.40500
9172220;-0.43500
9174997;-0.44000
9177775;-0.46500
9180553;-0.49000
9183331;-0.46000
9186109;-0.35500
9188886;-0.20000
9191664;-0.02500
9194442;0.20500
9197220;0.49000
9199997;0.77500
9202775;0.97000
9205553;1.04000
9208331;0.91500
9211109;0.53000
9213886;0.05500
9216664;-0.31000
9219442;-0.46000
9222220;-0.46000
9224997;-0.40500
9227775;-0.35500
9230553;-0.34500
9233331;-0.35500
9236109;-0.36000
9238886;-0.35000
9241664;-0.34000
9244442;-0.33500
9247220;-0.33500
9249997;-0.34500
9252775;-0.35500
9255553;-0.34500
9258331;-0.33000
9261109;-0.33000
9263886;-0.33000
9266664;-0.33500
9269442;-0.35000
9272220;-0.34500
9274997;-0.34000
9277775;-0.34000
9280553;-0.34000
9283331;-0.33500
9286109;-0.36000
9288886;-0.35000
9291664;-0.35000
9294442;-0.35500
9297220;-0.34500
9299997;-0.36500
9302775;-0.37000
9305553;-0.34500
9308331;-0.35500
9311109;-0.34000
9313886;-0.34500
9316664;-0.34000
9319442;-0.36000
9322220;-0.35000
9324997;-0.33500
9327775;-0.33500
9330553;-0.33500
9333331;-0.34500
9336108;-0.34500
9338886;-0.35000
9341664;-0.35000
9344442;-0.34000
9347220;-0.34500
9349997;-0.35500
9352775;-0.36000
9355553;-0.36000
9358331;-0.34500
9361108;-0.34500
9363886;-0.35000
9366664;-0.36000
9369442;-0.36000
9372220;-0.35000
9374997;-0.34500
9377775;-0.34500
9380553;-0.35000
9383331;-0.34000
9386108;-0.35500
9388886;-0.35000
9391664;-0.33500
9394442;-0.32500
9397220;-0.34000
9399997;-0.33500
9402775;-0.36000
9405553;-0.35000
9408331;-0.35000
9411108;-0.35500
9413886;-0.36000
9416664;-0.37000
9419442;-0.39000
9422220;-0.39000
9424997;-0.38000
9427775;-0.38000
9430553;-0.38000
9433331;-0.38500
9436108;-0.39000
9438886;-0.39000
9441664;-0.37500
9444442;-0.37500
9447220;-0.37500
9449997;-0.39000
9452775;-0.39500
9455553;-0.39500
9458331;-0.37500
9461108;-0.36500
9463886;-0.36500
9466664;-0.36500
9469442;-0.36000
9472220;-0.34500
9474997;-0.33500
9477775;-0.31000
9480553;-0.31000
9483331;-0.29000
9486108;-0.29000
9488886;-0.27500
9491664;-0.25000
9494442;-0.25000
9497220;-0.23000
9499997;-0.22000
9502775;-0.24000
9505553;-0.23000
9508331;-0.21000
9511108;-0.20500
9513886;-0.19500
9516664;-0.21000
9519442;-0.20500
9522220;-0.19000
9524997;-0.18000
9527775;-0.17500
9530553;-0.17000
9533331;-0.18000
9536108;-0.18000
9538886;-0.17500
9541664;-0.17500
9544442;-0.17500
9547220;-0.17500
9549997;-0.18500
9552775;-0.20000
9555553;-0.19000
9558331;-0.19500
9561108;-0.19000
9563886;-0.19000
9566664;-0.20000
9569442;-0.21500
9572220;-0.20000
9574997;-0.20500
9577775;-0.19000
9580553;-0.18500
9583331;-0.21500
9586108;-0.21500
9588886;-0.19000
9591664;-0.19500
9594442;-0.18000
9597220;-0.20500
9599997;-0.20500
9602775;-0.21500
9605553;-0.19500
9608331;-0.20000
9611108;-0.21000
9613886;-0.21000
9616664;-0.23000
9619442;-0.23500
9622220;-0.23000
9624997;-0.22000
9627775;-0.21500
9630553;-0.20500
9633331;-0.22000
9636108;-0.22500
9638886;-0.22500
9641664;-0.22500
9644442;-0.21500
9647220;-0.22500
9649997;-0.22500
9652775;-0.23500
9655553;-0.24000
9658331;-0.23000
9661108;-0.22500
9663886;-0.23500
9666664;-0.23500
9669442;-0.24000
9672220;-0.23500
9674997;-0.22500
9677775;-0.21000
9680553;-0.22500
9683331;-0.22500
9686108;-0.23000
9688886;-0.23000
9691664;-0.21000
9694442;-0.22000
9697220;-0.21000
9699997;-0.23000
9702775;-0.24000
9705553;-0.22500
9708331;-0.22500
9711108;-0.21500
9713886;-0.21500
9716664;-0.23000
9719442;-0.25000
9722220;-0.22500
9724997;-0.22000
9727775;-0.22500
9730553;-0.22500
9733331;-0.22500
9736108;-0.23000
9738886;-0.23000
9741664;-0.22000
9744442;-0.21500
9747219;-0.20500
9749997;-0.21000
9752775;-0.21000
9755553;-0.19000
9758331;-0.17500
9761108;-0.17000
9763886;-0.15500
9766664;-0.17000
9769442;-0.16000
9772219;-0.15500
9774997;-0.14000
9777775;-0.12500
9780553;-0.13500
9783331;-0.13000
9786108;-0.13500
9788886;-0.12500
9791664;-0.11000
9794442;-0.09000
9797219;-0.09000
9799997;-0.07500
9802775;-0.10000
9805553;-0.10000
9808331;-0.11000
9811108;-0.11000
9813886;-0.12000
9816664;-0.12000
9819442;-0.14000
9822219;-0.11500
9824997;-0.10000
9827775;-0.10000
9830553;-0.09000
9833331;-0.08500
9836108;-0.07500
9838886;-0.06500
9841664;-0.08500
9844442;-0.11500
9847219;-0.15000
9849997;-0.15500
9852775;-0.19000
9855553;-0.19000
9858331;-0.20500
9861108;-0.21500
9863886;-0.21500
9866664;-0.24000
9869442;-0.24500
9872219;-0.23500
9874997;-0.23500
9877775;-0.22500
9880553;-0.22500
9883331;-0.24500
9886108;-0.24500
9888886;-0.26000
9891664;-0.25000
9894442;-0.24500
9897219;-0.24000
9899997;-0.25500
9902775;-0.26500
9905553;-0.26000
9908331;-0.24000
9911108;-0.24500
9913886;-0.24000
9916664;-0.24500
9919442;-0.26000
9922219;-0.25000
9924997;-0.24500
9927775;-0.23500
9930553;-0.25000
9933331;-0.23500
9936108;-0.26000
9938886;-0.26500
9941664;-0.28000
9944442;-0.32000
9947219;-0.35000
9949997;-0.38000
9952775;-0.42000
9955553;-0.45500
9958331;-0.45000
9961108;-0.37500
9963886;-0.23500
9966664;-0.09000
9969442;0.09000
9972219;0.35500
9974997;0.66000
9977775;0.91000
9980553;1.04000
9983331;1.02500
9986108;0.81500
9988886;0.42000
9991664;0.00000
9994442;-0.28000
9997219;-0.40000
9999997;-0.41500
10002775;-0.37000
10005553;-0.31000
10008331;-0.28500
10011108;-0.28500
10013886;-0.29000
10016664;-0.30500
10019442;-0.30000
10022219;-0.31000
10024997;-0.29500
10027775;-0.28500
10030553;-0.29000
10033331;-0.30500
10036108;-0.30500
10038886;-0.31000
10041664;-0.29000
10044442;-0.28000
10047219;-0.29000
10049997;-0.29500
10052775;-0.29500
10055553;-0.30000
10058331;-0.28000
10061108;-0.28000
10063886;-0.29000
10066664;-0.30500
10069442;-0.29500
10072219;-0.30000
10074997;-0.30500
10077775;-0.29000
10080553;-0.30000
10083331;-0.30000
10086108;-0.30000
10088886;-0.30000
10091664;-0.28500
10094442;-0.29000
10097219;-0.28500
10099997;-0.29500
10102775;-0.30500
10105553;-0.29500
10108331;-0.29500
10111108;-0.28500
10113886;-0.30000
10116664;-0.29500
10119442;-0.30000
10122219;-0.29500
10124997;-0.29000
10127775;-0.29000
10130553;-0.29000
10133330;-0.30000
10136108;-0.30000
10138886;-0.31000
10141664;-0.29000
10144442;-0.29000
10147219;-0.30000
10149997;-0.30500
10152775;-0.29500
10155553;-0.30000
10158330;-0.28000
10161108;-0.27000
10163886;-0.27000
10166664;-0.28000
10169442;-0.29000
10172219;-0.28500
10174997;-0.27000
10177775;-0.26500
10180553;-0.27500
10183330;-0.28500
10186108;-0.28500
10188886;-0.28500
10191664;-0.28000
10194442;-0.27000
10197219;-0.27000
10199997;-0.28500
10202775;-0.29000
10205553;-0.28500
10208330;-0.28500
10211108;-0.28500
10213886;-0.28500
10216664;-0.29000
10219442;-0.30000
10222219;-0.30000
10224997;-0.29000
10227775;-0.28000
10230553;-0.27500
10233330;-0.28500
10236108;-0.30500
10238886;-0.29000
10241664;-0.28000
10244442;-0.27000
10247219;-0.26500
10249997;-0.28000
10252775;-0.28500
10255553;-0.27500
10258330;-0.25000
10261108;-0.24500
10263886;-0.22500
10266664;-0.23000
10269442;-0.23500
10272219;-0.22000
10274997;-0.21000
10277775;-0.20000
10280553;-0.19500
10283330;-0.18500
10286108;-0.19000
10288886;-0.17500
10291664;-0.15500
10294442;-0.16500
10297219;-0.15500
10299997;-0.17000
10302775;-0.18000
10305553;-0.18000
10308330;-0.17500
10311108;-0.17000
10313886;-0.16500
10316664;-0.17500
10319442;-0.18500
10322219;-0.18000
10324997;-0.18500
10327775;-0.17000
10330553;-0.17000
10333330;-0.18500
10336108;-0.19000
10338886;-0.19500
10341664;-0.18000
10344442;-0.17500
10347219;-0.18000
10349997;-0.18500
10352775;-0.20500
10355553;-0.20500
10358330;-0.17500
10361108;-0.17500
10363886;-0.19000
10366664;-0.17500
10369442;-0.20500
10372219;-0.20000
10374997;-0.19500
10377775;-0.19500
10380553;-0.19000
10383330;-0.19000
10386108;-0.20500
10388886;-0.20500
10391664;-0.18500
10394442;-0.19000
10397219;-0.19500
10399997;-0.20500
10402775;-0.21500
10405553;-0.21000
10408330;-0.20500
10411108;-0.20000
10413886;-0.20500
10416664;-0.21500
10419442;-0.22500
10422219;-0.22500
10424997;-0.22000
10427775;-0.21000
10430553;-0.21000
10433330;-0.21000
10436108;-0.23000
10438886;-0.23000
10441664;-0.23000
10444442;-0.22000
10447219;-0.22500
10449997;-0.21500
10452775;-0.22500
10455553;-0.23000
10458330;-0.22500
10461108;-0.22000
10463886;-0.22500
10466664;-0.23000
10469442;-0.24000
10472219;-0.23000
10474997;-0.23500
10477775;-0.21500
10480553;-0.23000
10483330;-0.24500
10486108;-0.25000
10488886;-0.24500
10491664;-0.24500
10494442;-0.23000
10497219;-0.21500
10499997;-0.23500
10502775;-0.23500
10505553;-0.24000
10508330;-0.23500
10511108;-0.23000
10513886;-0.23000
10516664;-0.24000
10519441;-0.24500
10522219;-0.23500
10524997;-0.23500
10527775;-0.23000
10530553;-0.22500
10533330;-0.24000
10536108;-0.24500
10538886;-0.24500
10541664;-0.23500
10544441;-0.22000
10547219;-0.22500
10549997;-0.23500
10552775;-0.25000
10555553;-0.24000
10558330;-0.23000
10561108;-0.22000
10563886;-0.21500
10566664;-0.22000
10569441;-0.22000
10572219;-0.20000
10574997;-0.18500
10577775;-0.17000
10580553;-0.17000
10583330;-0.17000
10586108;-0.17000
10588886;-0.14500
10591664;-0.14000
10594441;-0.14000
10597219;-0.14000
10599997;-0.14500
10602775;-0.15500
10605553;-0.14000
10608330;-0.12500
10611108;-0.13000
10613886;-0.12000
10616664;-0.11500
10619441;-0.14000
10622219;-0.14000
10624997;-0.11500
10627775;-0.11500
10630553;-0.12000
10633330;-0.12000
10636108;-0.13500
10638886;-0.13500
10641664;-0.13500
10644441;-0.12000
10647219;-0.12500
10649997;-0.11000
10652775;-0.13500
10655553;-0.12500
10658330;-0.10500
10661108;-0.08000
10663886;-0.06500
10666664;-0.10000
10669441;-0.14000
10672219;-0.15500
10674997;-0.16500
10677775;-0.18000
10680553;-0.19000
10683330;-0.22000
10686108;-0.23500
10688886;-0.24500
10691664;-0.26000
10694441;-0.25000
10697219;-0.25000
10699997;-0.25500
10702775;-0.26500
10705553;-0.26500
10708330;-0.26000
10711108;-0.25500
10713886;-0.26000
10716664;-0.27000
10719441;-0.28000
10722219;-0.28500
10724997;-0.26500
10727775;-0.26000
10730553;-0.26500
10733330;-0.27500
10736108;-0.28000
10738886;-0.28500
10741664;-0.26500
10744441;-0.26000
10747219;-0.26500
10749997;-0.27500
10752775;-0.29500
10755553;-0.29500
10758330;-0.29500
10761108;-0.31500
10763886;-0.35500
10766664;-0.39000
10769441;-0.42500
10772219;-0.43500
10774997;-0.46500
10777775;-0.49500
10780553;-0.48500
10783330;-0.42000
10786108;-0.33000
10788886;-0.20000
10791664;-0.04500
10794441;0.15000
10797219;0.41000
10799997;0.64500
10802775;0.83000
10805553;0.94500
10808330;0.94000
10811108;0.78000
10813886;0.45500
10816664;0.07000
10819441;-0.26000
10822219;-0.44500
10824997;-0.49500
10827775;-0.45000
10830553;-0.39000
10833330;-0.36500
10836108;-0.36000
10838886;-0.36500
10841664;-0.35000
10844441;-0.34500
10847219;-0.35000
10849997;-0.35500
10852775;-0.36000
10855553;-0.35000
10858330;-0.36500
10861108;-0.35500
10863886;-0.35000
10866664;-0.35000
10869441;-0.37000
10872219;-0.36000
10874997;-0.35500
10877775;-0.34500
10880553;-0.34000
10883330;-0.35000
10886108;-0.35500
10888886;-0.35000
10891664;-0.34500
10894441;-0.34000
10897219;-0.34000
10899997;-0.34500
10902775;-0.35500
10905553;-0.35000
10908330;-0.35000
10911108;-0.34500
10913886;-0.36000
10916664;-0.35500
10919441;-0.37000
10922219;-0.38000
10924997;-0.37000
10927775;-0.36000
10930552;-0.35000
10933330;-0.36500
10936108;-0.37000
10938886;-0.36500
10941664;-0.36000
10944441;-0.34500
10947219;-0.36000
10949997;-0.38000
10952775;-0.37000
10955552;-0.37000
10958330;-0.36000
10961108;-0.34500
10963886;-0.35000
10966664;-0.35000
10969441;-0.37000
10972219;-0.36000
10974997;-0.34000
10977775;-0.34000
10980552;-0.35000
10983330;-0.36000
10986108;-0.37000
10988886;-0.37500
10991664;-0.36500
10994441;-0.34500
10997219;-0.36000
10999997;-0.35500
11002775;-0.36000
11005552;-0.36000
11008330;-0.36000
11011108;-0.35000
11013886;-0.35000
11016664;-0.35500
11019441;-0.35500
11022219;-0.36000
11024997;-0.35000
11027775;-0.34500
11030552;-0.34500
11033330;-0.36000
11036108;-0.37500
11038886;-0.37000
11041664;-0.36500
11044441;-0.36000
11047219;-0.35500
11049997;-0.36500
11052775;-0.36500
11055552;-0.36000
11058330;-0.34500
11061108;-0.35500
11063886;-0.35000
11066664;-0.36500
11069441;-0.37500
11072219;-0.38000
11074997;-0.37500
11077775;-0.38000
11080552;-0.36500
11083330;-0.37000
11086108;-0.37500
11088886;-0.38000
11091664;-0.36500
11094441;-0.35500
11097219;-0.36000
11099997;-0.36000
11102775;-0.37000
11105552;-0.37000
11108330;-0.34500
11111108;-0.32500
11113886;-0.31500
11116664;-0.31000
11119441;-0.30000
11122219;-0.30500
11124997;-0.28000
11127775;-0.27500
11130552;-0.26500
11133330;-0.25500
11136108;-0.26500
11138886;-0.25000
11141664;-0.24500
11144441;-0.23500
11147219;-0.23500
11149997;-0.24500
11152775;-0.25000
11155552;-0.25500
11158330;-0.24500
11161108;-0.23500
11163886;-0.23500
11166664;-0.24000
11169441;-0.24500
11172219;-0.24500
11174997;-0.24000
11177775;-0.23000
11180552;-0.24500
11183330;-0.25500
11186108;-0.26000
11188886;-0.25500
11191664;-0.23500
11194441;-0.22500
11197219;-0.23000
11199997;-0.24500
11202775;-0.26500
11205552;-0.25000
11208330;-0.26000
11211108;-0.25500
11213886;-0.25000
11216664;-0.26000
11219441;-0.26000
11222219;-0.27000
11224997;-0.26000
11227775;-0.25500
11230552;-0.24500
11233330;-0.26500
11236108;-0.28000
11238886;-0.27000
11241664;-0.27500
11244441;-0.26500
11247219;-0.25500
11249997;-0.29000
11252775;-0.29000
11255552;-0.29000
11258330;-0.28000
11261108;-0.28000
11263886;-0.28500
11266664;-0.28000
11269441;-0.29500
11272219;-0.29500
11274997;-0.28500
11277775;-0.28000
11280552;-0.27500
11283330;-0.28000
11286108;-0.28500
11288886;-0.28500
11291664;-0.31000
11294441;-0.28500
11297219;-0.29500
11299997;-0.31000
11302775;-0.31500
11305552;-0.29500
11308330;-0.29500
11311108;-0.29500
11313886;-0.29000
11316663;-0.30000
11319441;-0.31500
11322219;-0.31500
11324997;-0.30500
11327775;-0.31000
11330552;-0.31500
11333330;-0.32000
11336108;-0.32500
11338886;-0.32000
11341663;-0.31500
11344441;-0.31000
11347219;-0.30500
11349997;-0.32000
11352775;-0.33000
11355552;-0.33000
11358330;-0.32000
11361108;-0.31000
11363886;-0.30500
11366663;-0.31000
11369441;-0.31500
11372219;-0.32000
11374997;-0.31000
11377775;-0.30500
11380552;-0.30500
11383330;-0.31000
11386108;-0.32500
11388886;-0.31500
11391663;-0.31000
11394441;-0.30500
11397219;-0.31500
11399997;-0.31000
11402775;-0.33000
11405552;-0.32000
11408330;-0.31500
11411108;-0.31500
11413886;-0.32000
11416663;-0.34000
11419441;-0.33000
11422219;-0.32000
11424997;-0.32000
11427775;-0.30000
11430552;-0.32000
11433330;-0.33000
11436108;-0.33000
11438886;-0.32000
11441663;-0.31000
11444441;-0.29500
11447219;-0.30500
11449997;-0.30000
11452775;-0.29500
11455552;-0.28000
11458330;-0.27000
11461108;-0.26000
11463886;-0.26000
11466663;-0.25500
11469441;-0.25500
11472219;-0.26000
11474997;-0.24000
11477775;-0.23500
11480552;-0.23500
11483330;-0.23500
11486108;-0.24000
11488886;-0.22500
11491663;-0.20500
11494441;-0.18500
11497219;-0.18000
11499997;-0.19000
11502775;-0.19000
11505552;-0.20500
11508330;-0.21500
11511108;-0.20000
11513886;-0.21000
11516663;-0.21500
11519441;-0.21000
11522219;-0.21000
11524997;-0.20000
11527775;-0.20000
11530552;-0.20000
11533330;-0.20500
11536108;-0.19500
11538886;-0.20000
11541663;-0.21000
11544441;-0.23000
11547219;-0.25000
11549997;-0.27500
11552775;-0.31000
11555552;-0.31500
11558330;-0.32000
11561108;-0.31000
11563886;-0.31500
11566663;-0.32500
11569441;-0.34000
11572219;-0.34500
11574997;-0.33500
11577775;-0.33500
11580552;-0.35500
11583330;-0.36500
11586108;-0.36500
11588886;-0.37500
11591663;-0.38000
11594441;-0.36500
11597219;-0.36000
11599997;-0.37000
11602775;-0.38000
11605552;-0.37500
11608330;-0.36500
11611108;-0.36500
11613886;-0.38000
11616663;-0.38000
11619441;-0.39500
11622219;-0.37500
11624997;-0.36500
11627775;-0.35500
11630552;-0.35000
11633330;-0.36500
11636108;-0.38000
11638886;-0.38000
11641663;-0.38500
11644441;-0.41500
11647219;-0.46000
11649997;-0.49500
11652775;-0.51000
11655552;-0.51000
11658330;-0.54000
11661108;-0.57000
11663886;-0.59500
11666663;-0.57500
11669441;-0.49000
11672219;-0.36000
11674997;-0.21500
11677775;-0.06500
11680552;0.17000
11683330;0.42000
11686108;0.65000
11688886;0.82000
11691663;0.88000
11694441;0.77500
11697219;0.47000
11699997;0.09000
11702775;-0.24000
11705552;-0.45500
11708330;-0.54000
11711108;-0.54000
11713886;-0.50500
11716663;-0.47000
11719441;-0.46500
11722219;-0.46000
11724997;-0.45500
11727774;-0.44500
11730552;-0.44000
11733330;-0.44500
11736108;-0.46000
11738886;-0.44500
11741663;-0.43000
11744441;-0.43000
11747219;-0.41500
11749997;-0.41500
11752774;-0.42000
11755552;-0.43000
11758330;-0.42000
11761108;-0.40500
11763886;-0.42000
11766663;-0.42500
11769441;-0.44500
11772219;-0.45500
11774997;-0.45000
11777774;-0.44000
11780552;-0.44500
11783330;-0.45500
11786108;-0.47000
11788886;-0.45500
11791663;-0.45000
11794441;-0.44000
11797219;-0.44500
11799997;-0.45000
11802774;-0.46500
11805552;-0.45500
11808330;-0.44000
11811108;-0.43000
11813886;-0.43000
11816663;-0.44500
11819441;-0.45500
11822219;-0.45000
11824997;-0.43000
11827774;-0.42500
11830552;-0.43000
11833330;-0.44000
11836108;-0.45500
11838886;-0.45500
11841663;-0.44500
11844441;-0.44000
11847219;-0.43000
11849997;-0.44500
11852774;-0.45000
11855552;-0.45000
11858330;-0.44500
11861108;-0.44000
11863886;-0.45500
11866663;-0.47500
11869441;-0.47000
11872219;-0.46500
11874997;-0.44500
11877774;-0.43500
11880552;-0.43500
11883330;-0.43500
11886108;-0.44500
11888886;-0.45500
11891663;-0.44000
11894441;-0.44000
11897219;-0.44000
11899997;-0.45000
11902774;-0.47000
11905552;-0.45500
11908330;-0.47000
11911108;-0.44000
11913886;-0.45000
11916663;-0.45000
11919441;-0.45500
11922219;-0.45000
11924997;-0.46000
11927774;-0.45000
11930552;-0.45500
11933330;-0.47500
11936108;-0.48000
11938886;-0.48500
11941663;-0.48500
11944441;-0.48000
11947219;-0.48500
11949997;-0.49500
11952774;-0.50000
11955552;-0.50500
11958330;-0.50000
11961108;-0.47500
11963886;-0.49500
11966663;-0.49500
11969441;-0.50500
11972219;-0.49500
11974997;-0.47500
11977774;-0.46500
11980552;-0.45500
11983330;-0.44500
11986108;-0.45000
11988886;-0.43500
11991663;-0.43000
11994441;-0.40000
11997219;-0.39500
11999997;-0.39500
12002774;-0.39500
12005552;-0.40000
12008330;-0.38000
12011108;-0.37500
12013886;-0.36500
12016663;-0.37000
12019441;-0.37000
12022219;-0.33500
12024997;-0.34000
12027774;-0.32500
12030552;-0.33500
12033330;-0.34000
12036108;-0.34500
12038886;-0.34000
12041663;-0.32000
12044441;-0.31000
12047219;-0.31500
12049997;-0.33000
12052774;-0.34000
12055552;-0.33500
12058330;-0.31000
12061108;-0.31000
12063886;-0.31000
12066663;-0.32500
12069441;-0.33000
12072219;-0.33000
12074997;-0.32500
12077774;-0.33000
12080552;-0.32500
12083330;-0.32500
12086108;-0.34000
12088886;-0.34500
12091663;-0.34000
12094441;-0.33000
12097219;-0.33500
12099997;-0.34000
12102774;-0.34500
12105552;-0.35000
12108330;-0.34000
12111108;-0.32500
12113885;-0.33000
12116663;-0.34000
12119441;-0.35000
12122219;-0.35000
12124997;-0.34000
12127774;-0.34000
12130552;-0.33500
12133330;-0.34500
12136108;-0.34500
12138885;-0.34500
12141663;-0.34000
12144441;-0.33500
12147219;-0.33000
12149997;-0.35000
12152774;-0.36000
12155552;-0.35500
12158330;-0.34500
12161108;-0.34500
12163885;-0.35000
12166663;-0.36500
12169441;-0.37000
12172219;-0.36500
12174997;-0.37000
12177774;-0.36000
12180552;-0.35500
12183330;-0.36500
12186108;-0.38000
12188885;-0.38000
12191663;-0.37000
12194441;-0.37000
12197219;-0.37000
12199997;-0.37500
12202774;-0.37500
12205552;-0.37000
12208330;-0.37000
12211108;-0.35500
12213885;-0.34500
12216663;-0.35500
12219441;-0.36500
12222219;-0.36500
12224997;-0.36000
12227774;-0.34500
12230552;-0.36000
12233330;-0.36000
12236108;-0.36000
12238885;-0.36500
12241663;-0.35500
12244441;-0.34000
12247219;-0.35500
12249997;-0.37000
12252774;-0.38500
12255552;-0.38000
12258330;-0.36500
12261108;-0.35500
12263885;-0.35500
12266663;-0.35500
12269441;-0.36500
12272219;-0.37000
12274997;-0.36000
12277774;-0.35000
12280552;-0.35500
12283330;-0.36000
12286108;-0.37500
12288885;-0.36000
12291663;-0.35500
12294441;-0.35500
12297219;-0.35500
12299997;-0.35000
12302774;-0.35500
12305552;-0.34500
12308330;-0.34000
12311108;-0.33500
12313885;-0.33000
12316663;-0.34000
12319441;-0.34500
12322219;-0.33000
12324997;-0.32000
12327774;-0.30500
12330552;-0.29500
12333330;-0.30000
12336108;-0.29500
12338885;-0.29000
12341663;-0.27500
12344441;-0.26000
12347219;-0.26000
12349997;-0.26000
12352774;-0.25500
12355552;-0.25000
12358330;-0.23000
12361108;-0.22000
12363885;-0.23000
12366663;-0.22500
12369441;-0.23500
12372219;-0.23500
12374997;-0.23000
12377774;-0.23000
12380552;-0.23000
12383330;-0.23000
12386108;-0.24000
12388885;-0.24000
12391663;-0.23000
12394441;-0.20000
12397219;-0.19500
12399997;-0.21000
12402774;-0.22500
12405552;-0.25000
12408330;-0.28000
12411108;-0.28000
12413885;-0.28500
12416663;-0.29500
12419441;-0.30000
12422219;-0.31000
12424997;-0.30000
12427774;-0.30500
12430552;-0.32000
12433330;-0.33500
12436108;-0.36500
12438885;-0.36000
12441663;-0.37500
12444441;-0.36500
12447219;-0.35500
12449997;-0.37500
12452774;-0.37500
12455552;-0.37500
12458330;-0.37500
12461108;-0.36500
12463885;-0.38000
12466663;-0.37500
12469441;-0.38000
12472219;-0.38000
12474997;-0.36500
12477774;-0.36500
12480552;-0.36000
12483330;-0.37000
12486108;-0.39000
12488885;-0.39000
12491663;-0.39000
12494441;-0.37500
12497219;-0.38000
12499996;-0.39000
12502774;-0.40000
12505552;-0.42500
12508330;-0.46000
12511108;-0.48000
12513885;-0.50000
12516663;-0.52000
12519441;-0.56500
12522219;-0.60000
12524996;-0.58000
12527774;-0.49000
12530552;-0.36000
12533330;-0.22500
12536108;-0.08500
12538885;0.14500
12541663;0.44500
12544441;0.70500
12547219;0.88000
12549996;0.92500
12552774;0.81500
12555552;0.53000
12558330;0.16500
12561108;-0.18000
12563885;-0.44000
12566663;-0.56500
12569441;-0.60000
12572219;-0.58000
12574996;-0.52000
12577774;-0.46500
12580552;-0.43500
12583330;-0.43500
12586108;-0.45500
12588885;-0.45000
12591663;-0.42500
12594441;-0.43000
12597219;-0.42500
12599996;-0.42000
12602774;-0.43000
12605552;-0.43500
12608330;-0.43000
12611108;-0.41500
12613885;-0.42000
12616663;-0.42500
12619441;-0.44000
12622219;-0.43500
12624996;-0.43000
12627774;-0.43000
12630552;-0.42000
12633330;-0.42500
12636108;-0.43500
12638885;-0.43000
12641663;-0.42000
12644441;-0.41000
12647219;-0.41000
12649996;-0.42500
12652774;-0.43500
12655552;-0.43500
12658330;-0.41500
12661108;-0.40500
12663885;-0.40500
12666663;-0.41000
12669441;-0.42500
12672219;-0.43000
12674996;-0.42000
12677774;-0.40500
12680552;-0.41000
12683330;-0.42500
12686108;-0.43000
12688885;-0.43000
12691663;-0.42000
12694441;-0.41000
12697219;-0.41500
12699996;-0.41500
12702774;-0.43000
12705552;-0.42500
12708330;-0.42000
12711108;-0.41000
12713885;-0.41500
12716663;-0.42000
12719441;-0.42500
12722219;-0.42500
12724996;-0.41500
12727774;-0.41000
12730552;-0.41000
12733330;-0.41500
12736108;-0.42500
12738885;-0.43000
12741663;-0.41500
12744441;-0.40500
12747219;-0.40500
12749996;-0.41000
12752774;-0.42500
12755552;-0.40000
12758330;-0.40500
12761108;-0.39000
12763885;-0.39500
12766663;-0.40500
12769441;-0.41500
12772219;-0.41500
12774996;-0.41500
12777774;-0.40500
12780552;-0.40500
12783330;-0.43000
12786108;-0.43000
12788885;-0.42500
12791663;-0.43000
12794441;-0.41500
12797219;-0.42500
12799996;-0.42000
12802774;-0.43000
12805552;-0.44000
12808330;-0.43500
12811108;-0.42500
12813885;-0.43000
12816663;-0.43500
12819441;-0.44500
12822219;-0.43500
12824996;-0.42500
12827774;-0.41000
12830552;-0.40500
12833330;-0.40500
12836108;-0.40500
12838885;-0.40000
12841663;-0.38500
12844441;-0.37500
12847219;-0.36000
12849996;-0.35500
12852774;-0.36000
12855552;-0.34500
12858330;-0.33000
12861108;-0.32000
12863885;-0.31500
12866663;-0.31500
12869441;-0.32000
12872219;-0.31000
12874996;-0.30000
12877774;-0.29000
12880552;-0.30500
12883330;-0.30000
12886108;-0.30500
12888885;-0.28500
12891663;-0.28500
12894441;-0.28000
12897219;-0.28500
12899996;-0.27500
12902774;-0.30500
12905552;-0.30000
12908330;-0.29000
12911107;-0.27000
12913885;-0.27000
12916663;-0.28500
12919441;-0.29000
12922219;-0.29000
12924996;-0.29000
12927774;-0.28500
12930552;-0.29500
12933330;-0.29000
12936107;-0.30000
12938885;-0.30000
12941663;-0.29500
12944441;-0.28500
12947219;-0.29000
12949996;-0.30000
12952774;-0.31000
12955552;-0.31000
12958330;-0.30000
12961107;-0.29500
12963885;-0.30500
12966663;-0.31000
12969441;-0.31500
12972219;-0.31500
12974996;-0.30500
12977774;-0.29500
12980552;-0.30500
12983330;-0.30500
12986107;-0.30500
12988885;-0.31500
12991663;-0.30500
12994441;-0.30500
12997219;-0.30000
12999996;-0.31000
13002774;-0.31500
13005552;-0.31500
13008330;-0.31000
13011107;-0.31500
13013885;-0.31500
13016663;-0.33000
13019441;-0.33000
13022219;-0.34500
13024996;-0.32500
13027774;-0.31500
13030552;-0.31500
13033330;-0.33000
13036107;-0.34000
13038885;-0.34000
13041663;-0.33500
13044441;-0.34000
13047219;-0.32000
13049996;-0.34500
13052774;-0.34000
13055552;-0.35000
13058330;-0.34000
13061107;-0.32000
13063885;-0.33000
13066663;-0.33500
13069441;-0.35000
13072219;-0.34000
13074996;-0.33500
13077774;-0.32500
13080552;-0.32500
13083330;-0.34000
13086107;-0.33500
13088885;-0.34000
13091663;-0.33500
13094441;-0.33000
13097219;-0.33000
13099996;-0.33500
13102774;-0.34000
13105552;-0.34500
13108330;-0.33500
13111107;-0.32500
13113885;-0.32000
13116663;-0.31500
13119441;-0.33000
13122219;-0.33000
13124996;-0.32500
13127774;-0.31500
13130552;-0.32000
13133330;-0.31500
13136107;-0.32000
13138885;-0.31500
13141663;-0.30000
13144441;-0.28500
13147219;-0.27500
13149996;-0.27500
13152774;-0.26500
13155552;-0.26500
13158330;-0.25000
13161107;-0.24000
13163885;-0.24500
13166663;-0.24500
13169441;-0.24500
13172219;-0.23000
13174996;-0.21000
13177774;-0.20000
13180552;-0.19500
13183330;-0.20000
13186107;-0.21000
13188885;-0.22000
13191663;-0.21000
13194441;-0.21500
13197219;-0.21000
13199996;-0.21500
13202774;-0.23000
13205552;-0.22500
13208330;-0.21500
13211107;-0.19000
13213885;-0.18000
13216663;-0.16500
13219441;-0.19000
13222219;-0.21000
13224996;-0.25000
13227774;-0.25500
13230552;-0.26500
13233330;-0.28500
13236107;-0.31500
13238885;-0.32500
13241663;-0.33000
13244441;-0.32000
13247219;-0.33500
13249996;-0.34500
13252774;-0.36000
13255552;-0.36000
13258330;-0.37500
13261107;-0.36500
13263885;-0.37000
13266663;-0.37500
13269441;-0.38000
13272219;-0.38000
13274996;-0.38000
13277774;-0.36500
13280552;-0.36500
13283330;-0.37500
13286107;-0.39000
13288885;-0.39000
13291663;-0.38500
13294441;-0.36500
13297218;-0.38500
13299996;-0.40000
13302774;-0.41000
13305552;-0.42000
13308330;-0.44000
13311107;-0.46000
13313885;-0.48500
13316663;-0.48500
13319441;-0.49500
13322218;-0.53500
13324996;-0.56500
