time_ms;ecg_value
0;0.78500
2778;0.84500
5556;0.73000
8333;0.41500
11111;-0.01500
13889;-0.37500
16667;-0.55000
19444;-0.56500
22222;-0.50000
25000;-0.44000
27778;-0.42000
30556;-0.41500
33333;-0.42500
36111;-0.41500
38889;-0.40500
41667;-0.39500
44444;-0.40000
47222;-0.40000
50000;-0.42500
52778;-0.41500
55556;-0.41000
58333;-0.40500
61111;-0.40500
63889;-0.41500
66667;-0.42500
69444;-0.41000
72222;-0.40500
75000;-0.40500
77778;-0.41000
80556;-0.42500
83333;-0.42500
86111;-0.42500
88889;-0.41000
91667;-0.41000
94444;-0.40500
97222;-0.42000
100000;-0.43000
102778;-0.43500
105556;-0.41500
108333;-0.40000
111111;-0.40500
113889;-0.41500
116667;-0.42000
119444;-0.41000
122222;-0.40000
125000;-0.39500
127778;-0.40000
130556;-0.42000
133333;-0.43500
136111;-0.42500
138889;-0.42500
141667;-0.41000
144444;-0.41000
147222;-0.41500
150000;-0.42000
152778;-0.42000
155556;-0.41000
158333;-0.41000
161111;-0.41500
163889;-0.42000
166667;-0.43000
169444;-0.43000
172222;-0.41000
175000;-0.41000
177778;-0.40000
180556;-0.42000
183333;-0.42000
186111;-0.40500
188889;-0.40500
191667;-0.39500
194444;-0.38500
197222;-0.39500
200000;-0.40500
202778;-0.40000
205555;-0.40500
208333;-0.39500
211111;-0.40000
213889;-0.42000
216667;-0.43000
219444;-0.42000
222222;-0.42000
225000;-0.39500
227778;-0.40000
230555;-0.41000
233333;-0.42000
236111;-0.42500
238889;-0.42500
241667;-0.41500
244444;-0.42000
247222;-0.42000
250000;-0.44000
252778;-0.44000
255555;-0.41000
258333;-0.40500
261111;-0.40500
263889;-0.41000
266667;-0.42000
269444;-0.41500
272222;-0.40000
275000;-0.38500
277778;-0.38000
280555;-0.38000
283333;-0.37500
286111;-0.37000
288889;-0.36000
291667;-0.33000
294444;-0.33000
297222;-0.32500
300000;-0.33000
302778;-0.33000
305555;-0.32000
308333;-0.30000
311111;-0.31000
313889;-0.31000
316667;-0.31000
319444;-0.30500
322222;-0.29000
325000;-0.28000
327778;-0.28500
330555;-0.28500
333333;-0.28500
336111;-0.28000
338889;-0.27000
341667;-0.26500
344444;-0.27000
347222;-0.27500
350000;-0.29500
352778;-0.30500
355555;-0.28500
358333;-0.28000
361111;-0.30500
363889;-0.30000
366667;-0.31500
369444;-0.30000
372222;-0.30500
375000;-0.29500
377778;-0.31000
380555;-0.31500
383333;-0.31500
386111;-0.32000
388889;-0.32000
391667;-0.32000
394444;-0.31000
397222;-0.31500
400000;-0.32500
402778;-0.32000
405555;-0.31000
408333;-0.30000
411111;-0.30500
413889;-0.31000
416667;-0.32000
419444;-0.32000
422222;-0.31000
425000;-0.30500
427778;-0.31000
430555;-0.32000
433333;-0.33000
436111;-0.32500
438889;-0.32000
441667;-0.32000
444444;-0.31500
447222;-0.32500
450000;-0.33500
452778;-0.33500
455555;-0.32500
458333;-0.32000
461111;-0.32000
463889;-0.33000
466667;-0.34000
469444;-0.34000
472222;-0.33000
475000;-0.31500
477778;-0.33500
480555;-0.33500
483333;-0.34000
486111;-0.34000
488889;-0.32500
491667;-0.33000
494444;-0.32500
497222;-0.32500
500000;-0.33500
502778;-0.34500
505555;-0.33500
508333;-0.32000
511111;-0.33000
513889;-0.33000
516667;-0.35000
519444;-0.35000
522222;-0.34000
525000;-0.33500
527778;-0.33500
530555;-0.34000
533333;-0.34500
536111;-0.34500
538889;-0.34000
541667;-0.32500
544444;-0.32500
547222;-0.32500
550000;-0.34500
552778;-0.33000
555555;-0.33000
558333;-0.31000
561111;-0.31500
563889;-0.33000
566667;-0.33500
569444;-0.34500
572222;-0.32500
575000;-0.31000
577778;-0.31000
580555;-0.31000
583333;-0.34000
586111;-0.33500
588889;-0.32500
591667;-0.30000
594444;-0.29500
597222;-0.29000
600000;-0.28000
602778;-0.27000
605555;-0.25000
608333;-0.23000
611111;-0.24000
613889;-0.24000
616666;-0.24500
619444;-0.24000
622222;-0.22000
625000;-0.19500
627778;-0.20000
630555;-0.21500
633333;-0.22000
636111;-0.22500
638889;-0.21500
641666;-0.23000
644444;-0.22500
647222;-0.23000
650000;-0.23500
652778;-0.24000
655555;-0.22000
658333;-0.22000
661111;-0.20500
663889;-0.20000
666666;-0.22500
669444;-0.23500
672222;-0.25500
675000;-0.27000
677778;-0.28500
680555;-0.30500
683333;-0.32000
686111;-0.33000
688889;-0.34500
691666;-0.33000
694444;-0.34000
697222;-0.36000
700000;-0.36500
702778;-0.37500
705555;-0.36000
708333;-0.34500
711111;-0.35500
713889;-0.36000
716666;-0.37500
719444;-0.37000
722222;-0.38500
725000;-0.37000
727778;-0.38000
730555;-0.39500
733333;-0.39500
736111;-0.38500
738889;-0.39000
741666;-0.37000
744444;-0.37500
747222;-0.38000
750000;-0.38000
752778;-0.38000
755555;-0.37500
758333;-0.37000
761111;-0.40500
763889;-0.43500
766666;-0.47500
769444;-0.49500
772222;-0.50000
775000;-0.49000
777778;-0.55500
780555;-0.59500
783333;-0.58000
786111;-0.49500
788889;-0.36500
791666;-0.20000
794444;-0.02000
797222;0.24000
800000;0.51500
802778;0.74500
805555;0.85500
808333;0.81000
811111;0.55500
813889;0.14500
816666;-0.24000
819444;-0.48000
822222;-0.57000
825000;-0.55000
827778;-0.49500
830555;-0.45000
833333;-0.43000
836111;-0.44000
838889;-0.43000
841666;-0.42000
844444;-0.41000
847222;-0.44000
850000;-0.43000
852778;-0.44000
855555;-0.45500
858333;-0.45000
861111;-0.44500
863889;-0.42500
866666;-0.44000
869444;-0.44500
872222;-0.44000
875000;-0.45000
877778;-0.44500
880555;-0.45500
883333;-0.45500
886111;-0.46500
888889;-0.44500
891666;-0.43500
894444;-0.45000
897222;-0.45500
900000;-0.45500
902778;-0.44500
905555;-0.42500
908333;-0.42000
911111;-0.42500
913889;-0.43000
916666;-0.43500
919444;-0.45000
922222;-0.44000
925000;-0.43500
927778;-0.44000
930555;-0.45000
933333;-0.47000
936111;-0.45500
938889;-0.44500
941666;-0.43500
944444;-0.44000
947222;-0.45000
950000;-0.45000
952778;-0.45000
955555;-0.44000
958333;-0.43500
961111;-0.43500
963889;-0.44500
966666;-0.46500
969444;-0.46000
972222;-0.45000
975000;-0.43500
977778;-0.44000
980555;-0.44000
983333;-0.44500
986111;-0.45000
988889;-0.43000
991666;-0.42500
994444;-0.43000
997222;-0.42500
1000000;-0.43500
1002777;-0.44500
1005555;-0.43000
1008333;-0.43500
1011111;-0.45000
1013889;-0.45000
1016666;-0.45000
1019444;-0.45500
1022222;-0.44000
1025000;-0.44000
1027777;-0.45000
1030555;-0.46000
1033333;-0.46000
1036111;-0.46500
1038889;-0.46500
1041666;-0.45000
1044444;-0.46000
1047222;-0.46500
1050000;-0.48500
1052777;-0.48000
1055555;-0.46500
1058333;-0.46500
1061111;-0.46500
1063889;-0.48000
1066666;-0.48500
1069444;-0.49000
1072222;-0.48000
1075000;-0.46000
1077777;-0.44500
1080555;-0.45000
1083333;-0.46000
1086111;-0.46000
1088889;-0.43500
1091666;-0.42500
1094444;-0.42500
1097222;-0.41500
1100000;-0.40500
1102777;-0.39000
1105555;-0.36500
1108333;-0.35500
1111111;-0.35500
1113889;-0.34500
1116666;-0.33500
1119444;-0.33500
1122222;-0.33000
1125000;-0.31500
1127777;-0.30500
1130555;-0.29500
1133333;-0.31500
1136111;-0.32000
1138889;-0.32000
1141666;-0.30500
1144444;-0.31000
1147222;-0.31500
1150000;-0.31500
1152777;-0.32500
1155555;-0.30500
1158333;-0.30500
1161111;-0.30500
1163889;-0.30500
1166666;-0.31500
1169444;-0.32000
1172222;-0.32000
1175000;-0.29500
1177777;-0.30000
1180555;-0.31000
1183333;-0.32000
1186111;-0.31500
1188889;-0.32500
1191666;-0.30000
1194444;-0.30500
1197222;-0.31500
1200000;-0.32000
1202777;-0.33000
1205555;-0.33500
1208333;-0.31000
1211111;-0.32000
1213889;-0.32500
1216666;-0.32500
1219444;-0.34000
1222222;-0.33000
1225000;-0.32000
1227777;-0.33500
1230555;-0.34000
1233333;-0.34000
1236111;-0.35000
1238889;-0.34000
1241666;-0.32000
1244444;-0.32500
1247222;-0.34000
1250000;-0.35000
1252777;-0.34500
1255555;-0.35000
1258333;-0.33500
1261111;-0.34500
1263889;-0.34500
1266666;-0.37000
1269444;-0.37000
1272222;-0.36500
1275000;-0.34000
1277777;-0.35500
1280555;-0.34500
1283333;-0.35000
1286111;-0.35000
1288889;-0.34500
1291666;-0.33500
1294444;-0.35000
1297222;-0.35500
1300000;-0.36500
1302777;-0.36500
1305555;-0.36000
1308333;-0.34500
1311111;-0.35500
1313889;-0.35500
1316666;-0.35500
1319444;-0.36000
1322222;-0.35500
1325000;-0.34000
1327777;-0.35000
1330555;-0.35500
1333333;-0.36500
1336111;-0.36000
1338889;-0.34500
1341666;-0.34500
1344444;-0.34500
1347222;-0.35000
1350000;-0.36000
1352777;-0.36000
1355555;-0.35000
1358333;-0.34000
1361111;-0.34000
1363889;-0.35500
1366666;-0.37000
1369444;-0.37500
1372222;-0.35500
1375000;-0.35000
1377777;-0.34500
1380555;-0.36000
1383333;-0.35500
1386111;-0.36000
1388888;-0.35000
1391666;-0.32000
1394444;-0.31000
1397222;-0.31000
1400000;-0.31500
1402777;-0.31500
1405555;-0.29500
1408333;-0.27500
1411111;-0.29500
1413888;-0.29500
1416666;-0.29000
1419444;-0.30000
1422222;-0.27500
1425000;-0.25500
1427777;-0.24000
1430555;-0.24000
1433333;-0.24000
1436111;-0.24500
1438888;-0.23000
1441666;-0.23000
1444444;-0.23500
1447222;-0.25000
1450000;-0.26000
1452777;-0.26500
1455555;-0.25500
1458333;-0.26000
1461111;-0.28000
1463888;-0.28500
1466666;-0.26000
1469444;-0.25000
1472222;-0.25500
1475000;-0.27000
1477777;-0.30500
1480555;-0.33000
1483333;-0.34500
1486111;-0.36000
1488888;-0.36500
1491666;-0.35000
1494444;-0.35500
1497222;-0.35500
1500000;-0.36500
1502777;-0.38000
1505555;-0.36500
1508333;-0.37000
1511111;-0.38000
1513888;-0.38000
1516666;-0.39500
1519444;-0.39500
1522222;-0.38000
1525000;-0.37000
1527777;-0.38500
1530555;-0.37500
1533333;-0.38500
1536111;-0.40000
1538888;-0.38500
1541666;-0.36500
1544444;-0.37000
1547222;-0.38500
1550000;-0.38500
1552777;-0.40500
1555555;-0.44000
1558333;-0.46500
1561111;-0.49000
1563888;-0.52000
1566666;-0.56000
1569444;-0.62000
1572222;-0.63500
1575000;-0.59500
1577777;-0.54000
1580555;-0.45500
1583333;-0.38000
1586111;-0.32000
1588888;-0.25000
1591666;-0.13500
1594444;0.01500
1597222;0.24500
1600000;0.51000
1602777;0.74500
1605555;0.89000
1608333;0.90000
1611111;0.67000
1613888;0.26500
1616666;-0.16500
1619444;-0.45000
1622222;-0.55000
1625000;-0.53500
1627777;-0.47000
1630555;-0.43500
1633333;-0.41500
1636111;-0.43500
1638888;-0.43000
1641666;-0.41000
1644444;-0.41500
1647222;-0.41000
1650000;-0.42000
1652777;-0.43000
1655555;-0.41500
1658333;-0.40500
1661111;-0.41000
1663888;-0.41500
1666666;-0.42500
1669444;-0.41000
1672222;-0.40000
1675000;-0.40000
1677777;-0.40000
1680555;-0.41500
1683333;-0.42000
1686111;-0.42500
1688888;-0.42000
1691666;-0.41000
1694444;-0.41500
1697222;-0.42500
1700000;-0.42500
1702777;-0.43500
1705555;-0.42000
1708333;-0.42000
1711111;-0.42000
1713888;-0.42500
1716666;-0.43500
1719444;-0.43500
1722222;-0.43000
1725000;-0.41000
1727777;-0.41500
1730555;-0.42000
1733333;-0.43000
1736111;-0.43500
1738888;-0.41500
1741666;-0.41000
1744444;-0.41500
1747222;-0.42000
1750000;-0.42500
1752777;-0.43500
1755555;-0.42000
1758333;-0.42500
1761111;-0.43500
1763888;-0.43000
1766666;-0.43000
1769444;-0.44000
1772222;-0.42000
1775000;-0.41000
1777777;-0.42500
1780555;-0.42500
1783333;-0.43500
1786111;-0.43000
1788888;-0.42500
1791666;-0.41500
1794444;-0.41000
1797222;-0.42500
1799999;-0.42000
1802777;-0.42500
1805555;-0.41500
1808333;-0.39500
1811111;-0.40500
1813888;-0.41500
1816666;-0.43000
1819444;-0.42500
1822222;-0.42000
1824999;-0.41000
1827777;-0.42000
1830555;-0.43000
1833333;-0.44500
1836111;-0.45500
1838888;-0.44500
1841666;-0.44000
1844444;-0.45000
1847222;-0.45500
1849999;-0.45000
1852777;-0.45000
1855555;-0.43000
1858333;-0.43000
1861111;-0.44000
1863888;-0.45000
1866666;-0.45500
1869444;-0.45000
1872222;-0.42500
1874999;-0.40500
1877777;-0.40000
1880555;-0.39500
1883333;-0.38000
1886111;-0.37500
1888888;-0.35000
1891666;-0.33000
1894444;-0.33000
1897222;-0.33000
1899999;-0.34000
1902777;-0.32500
1905555;-0.32000
1908333;-0.31500
1911111;-0.29500
1913888;-0.30000
1916666;-0.30500
1919444;-0.30500
1922222;-0.29000
1924999;-0.28500
1927777;-0.29000
1930555;-0.29500
1933333;-0.31000
1936111;-0.30000
1938888;-0.29000
1941666;-0.29000
1944444;-0.29000
1947222;-0.31000
1949999;-0.30000
1952777;-0.29500
1955555;-0.28000
1958333;-0.28000
1961111;-0.28500
1963888;-0.27500
1966666;-0.29500
1969444;-0.30000
1972222;-0.28500
1974999;-0.29000
1977777;-0.29500
1980555;-0.29500
1983333;-0.31000
1986111;-0.31000
1988888;-0.30000
1991666;-0.29000
1994444;-0.29500
1997222;-0.30000
1999999;-0.30500
2002777;-0.31000
2005555;-0.30500
2008333;-0.29000
2011111;-0.30000
2013888;-0.31000
2016666;-0.31500
2019444;-0.32500
2022222;-0.32500
2024999;-0.30000
2027777;-0.29500
2030555;-0.30500
2033333;-0.30500
2036111;-0.31000
2038888;-0.30000
2041666;-0.29500
2044444;-0.30000
2047222;-0.31000
2049999;-0.32000
2052777;-0.32000
2055555;-0.31000
2058333;-0.30000
2061111;-0.31000
2063888;-0.32000
2066666;-0.32000
2069444;-0.32000
2072222;-0.31500
2074999;-0.31500
2077777;-0.32000
2080555;-0.32500
2083333;-0.33500
2086111;-0.34000
2088888;-0.32500
2091666;-0.33000
2094444;-0.32500
2097222;-0.32000
2099999;-0.33500
2102777;-0.32500
2105555;-0.32000
2108333;-0.30500
2111111;-0.32000
2113888;-0.32500
2116666;-0.32500
2119444;-0.33000
2122222;-0.31500
2124999;-0.31000
2127777;-0.30500
2130555;-0.32000
2133333;-0.33000
2136111;-0.32000
2138888;-0.32500
2141666;-0.31000
2144444;-0.32000
2147222;-0.33000
2149999;-0.34000
2152777;-0.34000
2155555;-0.33500
2158333;-0.31500
2161111;-0.32500
2163888;-0.33000
2166666;-0.33000
2169444;-0.34000
2172222;-0.32500
2174999;-0.30500
2177777;-0.31000
2180555;-0.31000
2183333;-0.30500
2186110;-0.30000
2188888;-0.27000
2191666;-0.25000
2194444;-0.24000
2197222;-0.23500
2199999;-0.24500
2202777;-0.25000
2205555;-0.25000
2208333;-0.23500
2211110;-0.23500
2213888;-0.22500
2216666;-0.22000
2219444;-0.21500
2222222;-0.20000
2224999;-0.19500
2227777;-0.20000
2230555;-0.22000
2233333;-0.22500
2236110;-0.24000
2238888;-0.23000
2241666;-0.22500
2244444;-0.22000
2247222;-0.24500
2249999;-0.26000
2252777;-0.25500
2255555;-0.25500
2258333;-0.23500
2261110;-0.23000
2263888;-0.21000
2266666;-0.20000
2269444;-0.18000
2272222;-0.17500
2274999;-0.20500
2277777;-0.22500
2280555;-0.24500
2283333;-0.27500
2286110;-0.28500
2288888;-0.28500
2291666;-0.30500
2294444;-0.31000
2297222;-0.32500
2299999;-0.36000
2302777;-0.36500
2305555;-0.35000
2308333;-0.33000
2311110;-0.34500
2313888;-0.35500
2316666;-0.36000
2319444;-0.36500
2322222;-0.35500
2324999;-0.34500
2327777;-0.36000
2330555;-0.36000
2333333;-0.37500
2336110;-0.36500
2338888;-0.35000
2341666;-0.35000
2344444;-0.35500
2347222;-0.36000
2349999;-0.36500
2352777;-0.37000
2355555;-0.36500
2358333;-0.36500
2361110;-0.41000
2363888;-0.46000
2366666;-0.48000
2369444;-0.51000
2372222;-0.53500
2374999;-0.55500
2377777;-0.54000
2380555;-0.46000
2383333;-0.33500
2386110;-0.18500
2388888;0.02000
2391666;0.30000
2394444;0.57500
2397222;0.79000
2399999;0.89000
2402777;0.81000
2405555;0.53500
2408333;0.13000
2411110;-0.27000
2413888;-0.50000
2416666;-0.56500
2419444;-0.50000
2422222;-0.43000
2424999;-0.39500
2427777;-0.40500
2430555;-0.41500
2433333;-0.42000
2436110;-0.41500
2438888;-0.42000
2441666;-0.40000
2444444;-0.40000
2447222;-0.41500
2449999;-0.41000
2452777;-0.43500
2455555;-0.42000
2458333;-0.40000
2461110;-0.38500
2463888;-0.40500
2466666;-0.41000
2469444;-0.42000
2472222;-0.40000
2474999;-0.39000
2477777;-0.39500
2480555;-0.40500
2483333;-0.41500
2486110;-0.41000
2488888;-0.40500
2491666;-0.38500
2494444;-0.39500
2497222;-0.40000
2499999;-0.41000
2502777;-0.40000
2505555;-0.39500
2508333;-0.38500
2511110;-0.38500
2513888;-0.39000
2516666;-0.39500
2519444;-0.40000
2522222;-0.40000
2524999;-0.38500
2527777;-0.39000
2530555;-0.40000
2533333;-0.40500
2536110;-0.41000
2538888;-0.40500
2541666;-0.39500
2544444;-0.39000
2547222;-0.40000
2549999;-0.41500
2552777;-0.42500
2555555;-0.40000
2558333;-0.40000
2561110;-0.39500
2563888;-0.40500
2566666;-0.42500
2569444;-0.42500
2572222;-0.41500
2574999;-0.41000
2577777;-0.39500
2580555;-0.39500
2583333;-0.40500
2586110;-0.40000
2588888;-0.39000
2591666;-0.39500
2594444;-0.38000
2597221;-0.38500
2599999;-0.39000
2602777;-0.41500
2605555;-0.39000
2608333;-0.39000
2611110;-0.39500
2613888;-0.40500
2616666;-0.41000
2619444;-0.42000
2622221;-0.41500
2624999;-0.41000
2627777;-0.39500
2630555;-0.41000
2633333;-0.41500
2636110;-0.40500
2638888;-0.40000
2641666;-0.39500
2644444;-0.39500
2647221;-0.41500
2649999;-0.41000
2652777;-0.40500
2655555;-0.40500
2658333;-0.40000
2661110;-0.40000
2663888;-0.40500
2666666;-0.40000
2669444;-0.41000
2672221;-0.38500
2674999;-0.38500
2677777;-0.38000
2680555;-0.37000
2683333;-0.37000
2686110;-0.38000
2688888;-0.34000
2691666;-0.32500
2694444;-0.32500
2697221;-0.33000
2699999;-0.33500
2702777;-0.33000
2705555;-0.32000
2708333;-0.30500
2711110;-0.30000
2713888;-0.29000
2716666;-0.29500
2719444;-0.30000
2722221;-0.30000
2724999;-0.29000
2727777;-0.28500
2730555;-0.29500
2733333;-0.30500
2736110;-0.31500
2738888;-0.31000
2741666;-0.29500
2744444;-0.30500
2747221;-0.30000
2749999;-0.32000
2752777;-0.31000
2755555;-0.29500
2758333;-0.29500
2761110;-0.29500
2763888;-0.30500
2766666;-0.32000
2769444;-0.32000
2772221;-0.32000
2774999;-0.30500
2777777;-0.31000
2780555;-0.32500
2783333;-0.32000
2786110;-0.31500
2788888;-0.31000
2791666;-0.30000
2794444;-0.30000
2797221;-0.31500
2799999;-0.32500
2802777;-0.32000
2805555;-0.32000
2808333;-0.32000
2811110;-0.31500
2813888;-0.33500
2816666;-0.33500
2819444;-0.32500
2822221;-0.32500
2824999;-0.31500
2827777;-0.33000
2830555;-0.33000
2833333;-0.34500
2836110;-0.36000
2838888;-0.35000
2841666;-0.34000
2844444;-0.35000
2847221;-0.35000
2849999;-0.35500
2852777;-0.36000
2855555;-0.34500
2858333;-0.33000
2861110;-0.33000
2863888;-0.34500
2866666;-0.34500
2869444;-0.35000
2872221;-0.33500
2874999;-0.32500
2877777;-0.33000
2880555;-0.33500
2883333;-0.33000
2886110;-0.34000
2888888;-0.33000
2891666;-0.32500
2894444;-0.33000
2897221;-0.33500
2899999;-0.35000
2902777;-0.35000
2905555;-0.34500
2908333;-0.34000
2911110;-0.34500
2913888;-0.35000
2916666;-0.35000
2919444;-0.36000
2922221;-0.35500
2924999;-0.34000
2927777;-0.35000
2930555;-0.35000
2933333;-0.35000
2936110;-0.36000
2938888;-0.35000
2941666;-0.34500
2944444;-0.34500
2947221;-0.34500
2949999;-0.34000
2952777;-0.34500
2955555;-0.33000
2958333;-0.32000
2961110;-0.31500
2963888;-0.32500
2966666;-0.33500
2969444;-0.35000
2972221;-0.33500
2974999;-0.32000
2977777;-0.31000
2980555;-0.30500
2983332;-0.29500
2986110;-0.30000
2988888;-0.27500
2991666;-0.27000
2994444;-0.27000
2997221;-0.27500
2999999;-0.26500
3002777;-0.27000
3005555;-0.24000
3008332;-0.22500
3011110;-0.22000
3013888;-0.22000
3016666;-0.22500
3019444;-0.24500
3022221;-0.24000
3024999;-0.24000
3027777;-0.23500
3030555;-0.25500
3033332;-0.25000
3036110;-0.26000
3038888;-0.25500
3041666;-0.27000
3044444;-0.26000
3047221;-0.27000
3049999;-0.23500
3052777;-0.23500
3055555;-0.24500
3058332;-0.27500
3061110;-0.29000
3063888;-0.30500
3066666;-0.32000
3069444;-0.35000
3072221;-0.35000
3074999;-0.34500
3077777;-0.36000
3080555;-0.35000
3083332;-0.36500
3086110;-0.37000
3088888;-0.35000
3091666;-0.35500
3094444;-0.35000
3097221;-0.36500
3099999;-0.37500
3102777;-0.38000
3105555;-0.37500
3108332;-0.37000
3111110;-0.37500
3113888;-0.37500
3116666;-0.38500
3119444;-0.39000
3122221;-0.38000
3124999;-0.38000
3127777;-0.39000
3130555;-0.39500
3133332;-0.39000
3136110;-0.40000
3138888;-0.40000
3141666;-0.39000
3144444;-0.41000
3147221;-0.44500
3149999;-0.48000
3152777;-0.50500
3155555;-0.50500
3158332;-0.54000
3161110;-0.58500
3163888;-0.56500
3166666;-0.48500
3169444;-0.37500
3172221;-0.24000
3174999;-0.09000
3177777;0.10000
3180555;0.34500
3183332;0.54500
3186110;0.67000
3188888;0.77500
3191666;0.85500
3194444;0.93500
3197221;0.98500
3199999;0.96500
3202777;0.83000
3205555;0.55000
3208332;0.17000
3211110;-0.19500
3213888;-0.44000
3216666;-0.55500
3219444;-0.55500
3222221;-0.48000
3224999;-0.44000
3227777;-0.42500
3230555;-0.44500
3233332;-0.45500
3236110;-0.44500
3238888;-0.43000
3241666;-0.43500
3244444;-0.42500
3247221;-0.44000
3249999;-0.45000
3252777;-0.45000
3255555;-0.44500
3258332;-0.44500
3261110;-0.44000
3263888;-0.45000
3266666;-0.45500
3269444;-0.46000
3272221;-0.45000
3274999;-0.44000
3277777;-0.44500
3280555;-0.45500
3283332;-0.45000
3286110;-0.45500
3288888;-0.44500
3291666;-0.44000
3294444;-0.44000
3297221;-0.44500
3299999;-0.45500
3302777;-0.45500
3305555;-0.45500
3308332;-0.44000
3311110;-0.44500
3313888;-0.45500
3316666;-0.46500
3319444;-0.47000
3322221;-0.46500
3324999;-0.46000
3327777;-0.46500
3330555;-0.47000
3333332;-0.47000
3336110;-0.47000
3338888;-0.47000
3341666;-0.46000
3344444;-0.45000
3347221;-0.46000
3349999;-0.46500
3352777;-0.47000
3355555;-0.46000
3358332;-0.46000
3361110;-0.46000
3363888;-0.47000
3366666;-0.48000
3369444;-0.47500
3372221;-0.45000
3374999;-0.45000
3377777;-0.45000
3380555;-0.45500
3383332;-0.46500
3386110;-0.46500
3388888;-0.46500
3391666;-0.46000
3394443;-0.47000
3397221;-0.47500
3399999;-0.48500
3402777;-0.48500
3405555;-0.47500
3408332;-0.45000
3411110;-0.47000
3413888;-0.47500
3416666;-0.49000
3419443;-0.49000
3422221;-0.48000
3424999;-0.47500
3427777;-0.48000
3430555;-0.48000
3433332;-0.48500
3436110;-0.49000
3438888;-0.48000
3441666;-0.47500
3444443;-0.47000
3447221;-0.48000
3449999;-0.49000
3452777;-0.49500
3455555;-0.49500
3458332;-0.50000
3461110;-0.49500
3463888;-0.52000
3466666;-0.51500
3469443;-0.52000
3472221;-0.50000
3474999;-0.48000
3477777;-0.48000
3480555;-0.48500
3483332;-0.47000
3486110;-0.46000
3488888;-0.44500
3491666;-0.43500
3494443;-0.43500
3497221;-0.43500
3499999;-0.43500
3502777;-0.43000
3505555;-0.40500
3508332;-0.38500
3511110;-0.38000
3513888;-0.37500
3516666;-0.37500
3519443;-0.37500
3522221;-0.36500
3524999;-0.36000
3527777;-0.36000
3530555;-0.38000
3533332;-0.37000
3536110;-0.37500
3538888;-0.38000
3541666;-0.36500
3544443;-0.36000
3547221;-0.36000
3549999;-0.36000
3552777;-0.38000
3555555;-0.38000
3558332;-0.38000
3561110;-0.36500
3563888;-0.37500
3566666;-0.37500
3569443;-0.37000
3572221;-0.35500
3574999;-0.35500
3577777;-0.36000
3580555;-0.36000
3583332;-0.38000
3586110;-0.38500
3588888;-0.37000
3591666;-0.36000
3594443;-0.36500
3597221;-0.37500
3599999;-0.38500
3602777;-0.38500
3605555;-0.38000
3608332;-0.38000
3611110;-0.37500
3613888;-0.38000
3616666;-0.38500
3619443;-0.40000
3622221;-0.38000
3624999;-0.38500
3627777;-0.39000
3630555;-0.39500
3633332;-0.40500
3636110;-0.41500
3638888;-0.41000
3641666;-0.39000
3644443;-0.40000
3647221;-0.40000
3649999;-0.40000
3652777;-0.40000
3655555;-0.39000
3658332;-0.39000
3661110;-0.38500
3663888;-0.39500
3666666;-0.39500
3669443;-0.40000
3672221;-0.39500
3674999;-0.39000
3677777;-0.40000
3680555;-0.40000
3683332;-0.41000
3686110;-0.42000
3688888;-0.41000
3691666;-0.39500
3694443;-0.40500
3697221;-0.40500
3699999;-0.42500
3702777;-0.42500
3705555;-0.40500
3708332;-0.39500
3711110;-0.39500
3713888;-0.39000
3716666;-0.42000
3719443;-0.42000
3722221;-0.42000
3724999;-0.40500
3727777;-0.40500
3730555;-0.40500
3733332;-0.42000
3736110;-0.41000
3738888;-0.40500
3741666;-0.39500
3744443;-0.38500
3747221;-0.39500
3749999;-0.41000
3752777;-0.41000
3755555;-0.40500
3758332;-0.38000
3761110;-0.38000
3763888;-0.39000
3766666;-0.39500
3769443;-0.40500
3772221;-0.39500
3774999;-0.39500
3777777;-0.39500
3780554;-0.41000
3783332;-0.40000
3786110;-0.40000
3788888;-0.39000
3791666;-0.37000
3794443;-0.35500
3797221;-0.33500
3799999;-0.33500
3802777;-0.33500
3805554;-0.32000
3808332;-0.31000
3811110;-0.31000
3813888;-0.31000
3816666;-0.31500
3819443;-0.30500
3822221;-0.30000
3824999;-0.27500
3827777;-0.27000
3830554;-0.27500
3833332;-0.29000
3836110;-0.29000
3838888;-0.27500
3841666;-0.28000
3844443;-0.28000
3847221;-0.28500
3849999;-0.30500
3852777;-0.31500
3855554;-0.30000
3858332;-0.30000
3861110;-0.29500
3863888;-0.30000
3866666;-0.32000
3869443;-0.33000
3872221;-0.33000
3874999;-0.32000
3877777;-0.29500
3880554;-0.29000
3883332;-0.29000
3886110;-0.32000
3888888;-0.32500
3891666;-0.33500
3894443;-0.35000
3897221;-0.38000
3899999;-0.40500
3902777;-0.40500
3905554;-0.40500
3908332;-0.40500
3911110;-0.40500
3913888;-0.41000
3916666;-0.42500
3919443;-0.42000
3922221;-0.41500
3924999;-0.41500
3927777;-0.41000
3930554;-0.42500
3933332;-0.43000
3936110;-0.42500
3938888;-0.42500
3941666;-0.41000
3944443;-0.41000
3947221;-0.43000
3949999;-0.44000
3952777;-0.43500
3955554;-0.43500
3958332;-0.41000
3961110;-0.41500
3963888;-0.42500
3966666;-0.43500
3969443;-0.45500
3972221;-0.47000
3974999;-0.49000
3977777;-0.51500
3980554;-0.54000
3983332;-0.58000
3986110;-0.62500
3988888;-0.62500
3991666;-0.55500
3994443;-0.44500
3997221;-0.31500
3999999;-0.17000
4002777;0.04000
4005554;0.32000
4008332;0.57500
4011110;0.76000
4013888;0.83000
4016666;0.76500
4019443;0.50500
4022221;0.10500
4024999;-0.23500
4027777;-0.47000
4030554;-0.57500
4033332;-0.60000
4036110;-0.56000
4038888;-0.50000
4041666;-0.47000
4044443;-0.47000
4047221;-0.47000
4049999;-0.47500
4052777;-0.47000
4055554;-0.46500
4058332;-0.45000
4061110;-0.45000
4063888;-0.45000
4066666;-0.46500
4069443;-0.46500
4072221;-0.45500
4074999;-0.44500
4077777;-0.45000
4080554;-0.46500
4083332;-0.48000
4086110;-0.47500
4088888;-0.46000
4091666;-0.44500
4094443;-0.45500
4097221;-0.45500
4099999;-0.46500
4102777;-0.45500
4105554;-0.45000
4108332;-0.45500
4111110;-0.45000
4113888;-0.45000
4116666;-0.46000
4119443;-0.46500
4122221;-0.45500
4124999;-0.45500
4127777;-0.43500
4130554;-0.45000
4133332;-0.44500
4136110;-0.44000
4138888;-0.44500
4141666;-0.44000
4144443;-0.43000
4147221;-0.44000
4149999;-0.45500
4152777;-0.45500
4155554;-0.44500
4158332;-0.45000
4161110;-0.45000
4163888;-0.45500
4166666;-0.45500
4169443;-0.45500
4172221;-0.45000
4174999;-0.44000
4177777;-0.44000
4180554;-0.44500
4183332;-0.45500
4186110;-0.46500
4188888;-0.44500
4191665;-0.43500
4194443;-0.44000
4197221;-0.44500
4199999;-0.45000
4202777;-0.44500
4205554;-0.43500
4208332;-0.42000
4211110;-0.42500
4213888;-0.42500
4216665;-0.43500
4219443;-0.44500
4222221;-0.43000
4224999;-0.42500
4227777;-0.42000
4230554;-0.42500
4233332;-0.42500
4236110;-0.43000
4238888;-0.42500
4241665;-0.41500
4244443;-0.42500
4247221;-0.44500
4249999;-0.44500
4252777;-0.45500
4255554;-0.44000
4258332;-0.43500
4261110;-0.44500
4263888;-0.47000
4266665;-0.47000
4269443;-0.48000
4272221;-0.48000
4274999;-0.47000
4277777;-0.47500
4280554;-0.47500
4283332;-0.49000
4286110;-0.48000
4288888;-0.48500
4291665;-0.47000
4294443;-0.47500
4297221;-0.47000
4299999;-0.46500
4302777;-0.47000
4305554;-0.45000
4308332;-0.43000
4311110;-0.42000
4313888;-0.41500
4316665;-0.42000
4319443;-0.39500
4322221;-0.38000
4324999;-0.37000
4327777;-0.35500
4330554;-0.34500
4333332;-0.36500
4336110;-0.34500
4338888;-0.33000
4341665;-0.31500
4344443;-0.32500
4347221;-0.32500
4349999;-0.32000
4352777;-0.33500
4355554;-0.31000
4358332;-0.30000
4361110;-0.30500
4363888;-0.31500
4366665;-0.31500
4369443;-0.31000
4372221;-0.30000
4374999;-0.29000
4377777;-0.29000
4380554;-0.30000
4383332;-0.29500
4386110;-0.31500
4388888;-0.29000
4391665;-0.28500
4394443;-0.28000
4397221;-0.29000
4399999;-0.30500
4402777;-0.30500
4405554;-0.30000
4408332;-0.30000
4411110;-0.29500
4413888;-0.30000
4416665;-0.30500
4419443;-0.31000
4422221;-0.31000
4424999;-0.29500
4427777;-0.30000
4430554;-0.30500
4433332;-0.32000
4436110;-0.31500
4438888;-0.30500
4441665;-0.30000
4444443;-0.31000
4447221;-0.31000
4449999;-0.31000
4452777;-0.32000
4455554;-0.31500
4458332;-0.30500
4461110;-0.31000
4463888;-0.30500
4466665;-0.30500
4469443;-0.31500
4472221;-0.31000
4474999;-0.29500
4477777;-0.29500
4480554;-0.29500
4483332;-0.32000
4486110;-0.32000
4488888;-0.30500
4491665;-0.30000
4494443;-0.30500
4497221;-0.31500
4499999;-0.32000
4502777;-0.32500
4505554;-0.31500
4508332;-0.31500
4511110;-0.30500
4513888;-0.31500
4516665;-0.33000
4519443;-0.33000
4522221;-0.32000
4524999;-0.31500
4527777;-0.31500
4530554;-0.32000
4533332;-0.32500
4536110;-0.32500
4538888;-0.32000
4541665;-0.29500
4544443;-0.31500
4547221;-0.31000
4549999;-0.32000
4552777;-0.32000
4555554;-0.31500
4558332;-0.29500
4561110;-0.28500
4563888;-0.31000
4566665;-0.31500
4569443;-0.32000
4572221;-0.32000
4574999;-0.30000
4577776;-0.31500
4580554;-0.31500
4583332;-0.32500
4586110;-0.32500
4588888;-0.31500
4591665;-0.31000
4594443;-0.31000
4597221;-0.30500
4599999;-0.31500
4602776;-0.31000
4605554;-0.30000
4608332;-0.29500
4611110;-0.29000
4613888;-0.30000
4616665;-0.30500
4619443;-0.30500
4622221;-0.29500
4624999;-0.28000
4627776;-0.28000
4630554;-0.27000
4633332;-0.28000
4636110;-0.27000
4638888;-0.25500
4641665;-0.23500
4644443;-0.24500
4647221;-0.24500
4649999;-0.24000
4652776;-0.24000
4655554;-0.23500
4658332;-0.21000
4661110;-0.20500
4663888;-0.20500
4666665;-0.21000
4669443;-0.21500
4672221;-0.20000
4674999;-0.18500
4677776;-0.18000
4680554;-0.19500
4683332;-0.19500
4686110;-0.20000
4688888;-0.20000
4691665;-0.19500
4694443;-0.20500
4697221;-0.21500
4699999;-0.20000
4702776;-0.21000
4705554;-0.19500
4708332;-0.20500
4711110;-0.20500
4713888;-0.21000
4716665;-0.20500
4719443;-0.18500
4722221;-0.15500
4724999;-0.17000
4727776;-0.19500
4730554;-0.23000
4733332;-0.26000
4736110;-0.26500
4738888;-0.28000
4741665;-0.28000
4744443;-0.29500
4747221;-0.30000
4749999;-0.31500
4752776;-0.31500
4755554;-0.32500
4758332;-0.32000
4761110;-0.31500
4763888;-0.31500
4766665;-0.33000
4769443;-0.33500
4772221;-0.33500
4774999;-0.32000
4777776;-0.31000
4780554;-0.32500
4783332;-0.33500
4786110;-0.32500
4788888;-0.32500
4791665;-0.31000
4794443;-0.32500
4797221;-0.33000
4799999;-0.34500
4802776;-0.34500
4805554;-0.33000
4808332;-0.32000
4811110;-0.32000
4813888;-0.33000
4816665;-0.33500
4819443;-0.36500
4822221;-0.39500
4824999;-0.41000
4827776;-0.43500
4830554;-0.46000
4833332;-0.49000
4836110;-0.54500
4838888;-0.54500
4841665;-0.47000
4844443;-0.36500
4847221;-0.24000
4849999;-0.12000
4852776;0.07000
4855554;0.33000
4858332;0.60500
4861110;0.82000
4863888;0.95000
4866665;0.98500
4869443;0.94000
4872221;0.74500
4874999;0.45500
4877776;0.13000
4880554;-0.14500
4883332;-0.35000
4886110;-0.48500
4888888;-0.54000
4891665;-0.54500
4894443;-0.51000
4897221;-0.47000
4899999;-0.41500
4902776;-0.39500
4905554;-0.37500
4908332;-0.38000
4911110;-0.37000
4913888;-0.37000
4916665;-0.36500
4919443;-0.37500
4922221;-0.36500
4924999;-0.36500
4927776;-0.37500
4930554;-0.36000
4933332;-0.37000
4936110;-0.37500
4938888;-0.36000
4941665;-0.35000
4944443;-0.36000
4947221;-0.35500
4949999;-0.37500
4952776;-0.37500
4955554;-0.37000
4958332;-0.37000
4961110;-0.36500
4963887;-0.37000
4966665;-0.37500
4969443;-0.38000
4972221;-0.37000
4974999;-0.36000
4977776;-0.35000
4980554;-0.35500
4983332;-0.36500
4986110;-0.35500
4988887;-0.35500
4991665;-0.35000
4994443;-0.36500
4997221;-0.36500
4999999;-0.37500
5002776;-0.38500
5005554;-0.37500
5008332;-0.36500
5011110;-0.36500
5013887;-0.38500
5016665;-0.38000
5019443;-0.37500
5022221;-0.36000
5024999;-0.37000
5027776;-0.36000
5030554;-0.36500
5033332;-0.37000
5036110;-0.38000
5038887;-0.36500
5041665;-0.35000
5044443;-0.35000
5047221;-0.35500
5049999;-0.36500
5052776;-0.36500
5055554;-0.36000
5058332;-0.36500
5061110;-0.36000
5063887;-0.36500
5066665;-0.37000
5069443;-0.37500
5072221;-0.36500
5074999;-0.35500
5077776;-0.35500
5080554;-0.34500
5083332;-0.36000
5086110;-0.36500
5088887;-0.37000
5091665;-0.35000
5094443;-0.35000
5097221;-0.37000
5099999;-0.36500
5102776;-0.36000
5105554;-0.35500
5108332;-0.35500
5111110;-0.36000
5113887;-0.34500
5116665;-0.36000
5119443;-0.36500
5122221;-0.36000
5124999;-0.34500
5127776;-0.35500
5130554;-0.37000
5133332;-0.37500
5136110;-0.39000
5138887;-0.37500
5141665;-0.36000
5144443;-0.36500
5147221;-0.37000
5149999;-0.38000
5152776;-0.38000
5155554;-0.36500
5158332;-0.34500
5161110;-0.33000
5163887;-0.33500
5166665;-0.34000
5169443;-0.32000
5172221;-0.30000
5174999;-0.29000
5177776;-0.29000
5180554;-0.27000
5183332;-0.28000
5186110;-0.26500
5188887;-0.26000
5191665;-0.26000
5194443;-0.26000
5197221;-0.25500
5199999;-0.27000
5202776;-0.26500
5205554;-0.26500
5208332;-0.25000
5211110;-0.25000
5213887;-0.25000
5216665;-0.25500
5219443;-0.27000
5222221;-0.27500
5224999;-0.26000
5227776;-0.26500
5230554;-0.25000
5233332;-0.26000
5236110;-0.27000
5238887;-0.25000
5241665;-0.24500
5244443;-0.23500
5247221;-0.26000
5249999;-0.25000
5252776;-0.26000
5255554;-0.25000
5258332;-0.24500
5261110;-0.24500
5263887;-0.27000
5266665;-0.27000
5269443;-0.26500
5272221;-0.27000
5274999;-0.25000
5277776;-0.25500
5280554;-0.26000
5283332;-0.26500
5286110;-0.28000
5288887;-0.27500
5291665;-0.27000
5294443;-0.27000
5297221;-0.28500
5299999;-0.28500
5302776;-0.29000
5305554;-0.28000
5308332;-0.26500
5311110;-0.27000
5313887;-0.27500
5316665;-0.28000
5319443;-0.28000
5322221;-0.27000
5324999;-0.26500
5327776;-0.27000
5330554;-0.28500
5333332;-0.29000
5336110;-0.29500
5338887;-0.28500
5341665;-0.27500
5344443;-0.26500
5347221;-0.28000
5349999;-0.30000
5352776;-0.30000
5355554;-0.29000
5358332;-0.29500
5361110;-0.30000
5363887;-0.30500
5366665;-0.30500
5369443;-0.30500
5372221;-0.30500
5374998;-0.30500
5377776;-0.30500
5380554;-0.31500
5383332;-0.32500
5386110;-0.33000
5388887;-0.30500
5391665;-0.29500
5394443;-0.29000
5397221;-0.29000
5399998;-0.31000
5402776;-0.31000
5405554;-0.31000
5408332;-0.30500
5411110;-0.30500
5413887;-0.31000
5416665;-0.30500
5419443;-0.32000
5422221;-0.30500
5424998;-0.29500
5427776;-0.30000
5430554;-0.31000
5433332;-0.31000
5436110;-0.31000
5438887;-0.30000
5441665;-0.29000
5444443;-0.30000
5447221;-0.31000
5449998;-0.31500
5452776;-0.33500
5455554;-0.31000
5458332;-0.30000
5461110;-0.30500
5463887;-0.30000
5466665;-0.30000
5469443;-0.30500
5472221;-0.28000
5474998;-0.24500
5477776;-0.24500
5480554;-0.24500
5483332;-0.24000
5486110;-0.24500
5488887;-0.24500
5491665;-0.23000
5494443;-0.23000
5497221;-0.22500
5499998;-0.23000
5502776;-0.22000
5505554;-0.20500
5508332;-0.20500
5511110;-0.21000
5513887;-0.20000
5516665;-0.20000
5519443;-0.20000
5522221;-0.21000
5524998;-0.19500
5527776;-0.20500
5530554;-0.21500
5533332;-0.23500
5536110;-0.23000
5538887;-0.21500
5541665;-0.21500
5544443;-0.21500
5547221;-0.22500
5549998;-0.22500
5552776;-0.21000
5555554;-0.18000
5558332;-0.17000
5561110;-0.20500
5563887;-0.24500
5566665;-0.27000
5569443;-0.28000
5572221;-0.28500
5574998;-0.29000
5577776;-0.30500
5580554;-0.31000
5583332;-0.34000
5586110;-0.36000
5588887;-0.34500
5591665;-0.34500
5594443;-0.34500
5597221;-0.35000
5599998;-0.34000
5602776;-0.34000
5605554;-0.34000
5608332;-0.33500
5611110;-0.35500
5613887;-0.33500
5616665;-0.34500
5619443;-0.33500
5622221;-0.33500
5624998;-0.33500
5627776;-0.31500
5630554;-0.33000
5633332;-0.34000
5636110;-0.33500
5638887;-0.32500
5641665;-0.31500
5644443;-0.32000
5647221;-0.32500
5649998;-0.34000
5652776;-0.34500
5655554;-0.33500
5658332;-0.34500
5661110;-0.36000
5663887;-0.40500
5666665;-0.44500
5669443;-0.46500
5672221;-0.48000
5674998;-0.52000
5677776;-0.54500
5680554;-0.55000
5683332;-0.49000
5686110;-0.37000
5688887;-0.24000
5691665;-0.08000
5694443;0.17500
5697221;0.46000
5699998;0.67500
5702776;0.81500
5705554;0.87500
5708332;0.79500
5711110;0.55000
5713887;0.20500
5716665;-0.13500
5719443;-0.38500
5722221;-0.50000
5724998;-0.51500
5727776;-0.46000
5730554;-0.41500
5733332;-0.41500
5736110;-0.42000
5738887;-0.42000
5741665;-0.40000
5744443;-0.39500
5747221;-0.40000
5749998;-0.40000
5752776;-0.41500
5755554;-0.40500
5758332;-0.39000
5761109;-0.39500
5763887;-0.41000
5766665;-0.39500
5769443;-0.40500
5772221;-0.40000
5774998;-0.39000
5777776;-0.40500
5780554;-0.39000
5783332;-0.40000
5786109;-0.40000
5788887;-0.40000
5791665;-0.39500
5794443;-0.39500
5797221;-0.39000
5799998;-0.40000
5802776;-0.41000
5805554;-0.41000
5808332;-0.40500
5811109;-0.41500
5813887;-0.41000
5816665;-0.42000
5819443;-0.42000
5822221;-0.42000
5824998;-0.41000
5827776;-0.41500
5830554;-0.40000
5833332;-0.42500
5836109;-0.41000
5838887;-0.40500
5841665;-0.41000
5844443;-0.40500
5847221;-0.39500
5849998;-0.40000
5852776;-0.39500
5855554;-0.41000
5858332;-0.38500
5861109;-0.38000
5863887;-0.40500
5866665;-0.41000
5869443;-0.41500
5872221;-0.41000
5874998;-0.38500
5877776;-0.39500
5880554;-0.40500
5883332;-0.41000
5886109;-0.41000
5888887;-0.39500
5891665;-0.38000
5894443;-0.38500
5897221;-0.39500
5899998;-0.41000
5902776;-0.41500
5905554;-0.40500
5908332;-0.40000
5911109;-0.39500
5913887;-0.40000
5916665;-0.39500
5919443;-0.41000
5922221;-0.41000
5924998;-0.39000
5927776;-0.40000
5930554;-0.41000
5933332;-0.42500
5936109;-0.42500
5938887;-0.43000
5941665;-0.42000
5944443;-0.43000
5947221;-0.44000
5949998;-0.44500
5952776;-0.44500
5955554;-0.44000
5958332;-0.43000
5961109;-0.43000
5963887;-0.45000
5966665;-0.45000
5969443;-0.46000
5972221;-0.45000
5974998;-0.45000
5977776;-0.44000
5980554;-0.44000
5983332;-0.44500
5986109;-0.44500
5988887;-0.42500
5991665;-0.39500
5994443;-0.38000
5997221;-0.37500
5999998;-0.36000
6002776;-0.36000
6005554;-0.35000
6008332;-0.33500
6011109;-0.32500
6013887;-0.31500
6016665;-0.32500
6019443;-0.33000
6022221;-0.31500
6024998;-0.31500
6027776;-0.31000
6030554;-0.32000
6033332;-0.32000
6036109;-0.32500
6038887;-0.32500
6041665;-0.30000
6044443;-0.29500
6047221;-0.30000
6049998;-0.31000
6052776;-0.31500
6055554;-0.31000
6058332;-0.31500
6061109;-0.31500
6063887;-0.32000
6066665;-0.33500
6069443;-0.33500
6072221;-0.31500
6074998;-0.30500
6077776;-0.28500
6080554;-0.29000
6083332;-0.32000
6086109;-0.32000
6088887;-0.31000
6091665;-0.31500
6094443;-0.32000
6097221;-0.32000
6099998;-0.33000
6102776;-0.32500
6105554;-0.32000
6108332;-0.31000
6111109;-0.31000
6113887;-0.33000
6116665;-0.34000
6119443;-0.34500
6122221;-0.34000
6124998;-0.33000
6127776;-0.33500
6130554;-0.35000
6133332;-0.35000
6136109;-0.34500
6138887;-0.33000
6141665;-0.32500
6144443;-0.32000
6147221;-0.32500
6149998;-0.33500
6152776;-0.35000
6155554;-0.34000
6158332;-0.35000
6161109;-0.34500
6163887;-0.34000
6166665;-0.35000
6169443;-0.35500
6172220;-0.34500
6174998;-0.34500
6177776;-0.34500
6180554;-0.35500
6183332;-0.35500
6186109;-0.35000
6188887;-0.34000
6191665;-0.33000
6194443;-0.32500
6197220;-0.34000
6199998;-0.34500
6202776;-0.35000
6205554;-0.34000
6208332;-0.34000
6211109;-0.33500
6213887;-0.34000
6216665;-0.33000
6219443;-0.35500
6222220;-0.33500
6224998;-0.33000
6227776;-0.33000
6230554;-0.33000
6233332;-0.34500
6236109;-0.35000
6238887;-0.35000
6241665;-0.33500
6244443;-0.33000
6247220;-0.34000
6249998;-0.35000
6252776;-0.35000
6255554;-0.35500
6258332;-0.34000
6261109;-0.33000
6263887;-0.33000
6266665;-0.34000
6269443;-0.34000
6272220;-0.32000
6274998;-0.29500
6277776;-0.28000
6280554;-0.26500
6283332;-0.28000
6286109;-0.26500
6288887;-0.25500
6291665;-0.24500
6294443;-0.24000
6297220;-0.24500
6299998;-0.24500
6302776;-0.24500
6305554;-0.24000
6308332;-0.23000
6311109;-0.21000
6313887;-0.22000
6316665;-0.23000
6319443;-0.24000
6322220;-0.22500
6324998;-0.24000
6327776;-0.23500
6330554;-0.24500
6333332;-0.24000
6336109;-0.24500
6338887;-0.24500
6341665;-0.25000
6344443;-0.23500
6347220;-0.21000
6349998;-0.20500
6352776;-0.22500
6355554;-0.24500
6358332;-0.26000
6361109;-0.28500
6363887;-0.30500
6366665;-0.32000
6369443;-0.34000
6372220;-0.33500
6374998;-0.34000
6377776;-0.33500
6380554;-0.35000
6383332;-0.35500
6386109;-0.35500
6388887;-0.35000
6391665;-0.34500
6394443;-0.35000
6397220;-0.35000
6399998;-0.36000
6402776;-0.36500
6405554;-0.35500
6408332;-0.35000
6411109;-0.34500
6413887;-0.35000
6416665;-0.35500
6419443;-0.36000
6422220;-0.35000
6424998;-0.33000
6427776;-0.33500
6430554;-0.34000
6433332;-0.36500
6436109;-0.37000
6438887;-0.38500
6441665;-0.41000
6444443;-0.43500
6447220;-0.46000
6449998;-0.46500
6452776;-0.51000
6455554;-0.55500
6458332;-0.58500
6461109;-0.58500
6463887;-0.54500
6466665;-0.48000
6469443;-0.40000
6472220;-0.29500
6474998;-0.20000
6477776;-0.05000
6480554;0.20000
6483332;0.48000
6486109;0.73000
6488887;0.87000
6491665;0.88000
6494443;0.69000
6497220;0.32500
6499998;-0.08500
6502776;-0.38500
6505554;-0.52000
6508332;-0.51500
6511109;-0.46000
6513887;-0.41500
6516665;-0.40500
6519443;-0.40000
6522220;-0.39500
6524998;-0.39000
6527776;-0.38000
6530554;-0.36500
6533332;-0.37500
6536109;-0.38500
6538887;-0.38500
6541665;-0.37500
6544443;-0.37500
6547220;-0.37500
6549998;-0.38500
6552776;-0.38500
6555554;-0.38000
6558331;-0.37500
6561109;-0.37500
6563887;-0.37000
6566665;-0.37500
6569443;-0.38000
6572220;-0.37500
6574998;-0.37500
6577776;-0.35000
6580554;-0.35500
6583331;-0.36500
6586109;-0.37500
6588887;-0.37000
6591665;-0.38000
6594443;-0.36000
6597220;-0.36500
6599998;-0.37000
6602776;-0.38000
6605554;-0.37500
6608331;-0.37000
6611109;-0.36500
6613887;-0.37000
6616665;-0.37000
6619443;-0.38500
6622220;-0.38000
6624998;-0.35500
6627776;-0.35500
6630554;-0.35500
6633331;-0.35500
6636109;-0.36500
6638887;-0.36000
6641665;-0.34500
6644443;-0.34500
6647220;-0.35000
6649998;-0.35500
6652776;-0.36000
6655554;-0.36000
6658331;-0.34500
6661109;-0.35000
6663887;-0.36000
6666665;-0.36000
6669443;-0.37500
6672220;-0.35500
6674998;-0.34500
6677776;-0.34000
6680554;-0.34000
6683331;-0.35000
6686109;-0.35500
6688887;-0.35500
6691665;-0.35000
6694443;-0.36000
6697220;-0.36000
6699998;-0.36500
6702776;-0.37500
6705554;-0.36500
6708331;-0.35000
6711109;-0.35000
6713887;-0.36000
6716665;-0.39000
6719443;-0.38500
6722220;-0.39000
6724998;-0.37000
6727776;-0.37500
6730554;-0.39500
6733331;-0.39500
6736109;-0.41000
6738887;-0.40000
6741665;-0.39000
6744443;-0.39500
6747220;-0.40000
6749998;-0.40500
6752776;-0.41500
6755554;-0.39500
6758331;-0.36500
6761109;-0.35000
6763887;-0.33500
6766665;-0.34000
6769443;-0.34000
6772220;-0.31500
6774998;-0.31000
6777776;-0.29000
6780554;-0.28500
6783331;-0.30500
6786109;-0.28000
6788887;-0.26500
6791665;-0.25500
6794443;-0.24500
6797220;-0.25000
6799998;-0.24500
6802776;-0.24500
6805554;-0.24000
6808331;-0.23000
6811109;-0.22500
6813887;-0.24000
6816665;-0.23500
6819443;-0.24500
6822220;-0.24000
6824998;-0.23000
6827776;-0.22500
6830554;-0.23500
6833331;-0.23500
6836109;-0.24500
6838887;-0.23500
6841665;-0.23000
6844443;-0.22000
6847220;-0.22500
6849998;-0.24000
6852776;-0.23500
6855554;-0.23500
6858331;-0.22500
6861109;-0.21500
6863887;-0.22500
6866665;-0.23500
6869443;-0.24000
6872220;-0.24000
6874998;-0.23500
6877776;-0.23000
6880554;-0.24000
6883331;-0.25000
6886109;-0.26000
6888887;-0.24000
6891665;-0.23500
6894443;-0.23500
6897220;-0.24000
6899998;-0.24000
6902776;-0.25500
6905554;-0.24500
6908331;-0.23500
6911109;-0.24000
6913887;-0.24500
6916665;-0.24500
6919443;-0.26000
6922220;-0.24500
6924998;-0.24000
6927776;-0.24500
6930554;-0.25000
6933331;-0.26000
6936109;-0.26500
6938887;-0.25000
6941665;-0.25000
6944442;-0.25000
6947220;-0.25000
6949998;-0.25500
6952776;-0.27500
6955554;-0.25000
6958331;-0.25000
6961109;-0.26000
6963887;-0.26500
6966665;-0.27500
6969442;-0.27000
6972220;-0.25000
6974998;-0.25000
6977776;-0.25000
6980554;-0.25500
6983331;-0.26000
6986109;-0.27000
6988887;-0.24500
6991665;-0.24000
6994442;-0.24000
6997220;-0.25000
6999998;-0.25000
7002776;-0.26500
7005554;-0.25500
7008331;-0.25000
7011109;-0.24500
7013887;-0.23500
7016665;-0.24500
7019442;-0.27000
7022220;-0.25500
7024998;-0.24500
7027776;-0.25500
7030554;-0.25000
7033331;-0.25500
7036109;-0.26000
7038887;-0.25500
7041665;-0.25000
7044442;-0.24000
7047220;-0.24000
7049998;-0.24000
7052776;-0.24500
7055554;-0.23000
7058331;-0.20000
7061109;-0.18500
7063887;-0.17000
7066665;-0.18000
7069442;-0.17500
7072220;-0.17000
7074998;-0.16000
7077776;-0.14000
7080554;-0.15000
7083331;-0.15500
7086109;-0.14500
7088887;-0.14000
7091665;-0.11500
7094442;-0.11000
7097220;-0.13000
7099998;-0.14500
7102776;-0.15500
7105554;-0.14000
7108331;-0.14000
7111109;-0.15000
7113887;-0.14000
7116665;-0.13500
7119442;-0.14500
7122220;-0.14500
7124998;-0.15000
7127776;-0.16000
7130554;-0.15000
7133331;-0.15500
7136109;-0.13000
7138887;-0.09500
7141665;-0.11000
7144442;-0.13500
7147220;-0.17500
7149998;-0.20000
7152776;-0.21500
7155554;-0.22000
7158331;-0.22500
7161109;-0.23500
7163887;-0.25000
7166665;-0.27000
7169442;-0.27500
7172220;-0.25500
7174998;-0.25000
7177776;-0.25500
7180554;-0.25500
7183331;-0.25500
7186109;-0.27500
7188887;-0.25500
7191665;-0.25500
7194442;-0.25500
7197220;-0.25500
7199998;-0.27000
7202776;-0.26500
7205554;-0.26000
7208331;-0.25500
7211109;-0.26500
7213887;-0.26500
7216665;-0.28000
7219442;-0.28500
7222220;-0.29000
7224998;-0.30000
7227776;-0.33500
7230554;-0.37500
7233331;-0.40000
7236109;-0.43000
7238887;-0.47000
7241665;-0.47500
7244442;-0.43000
7247220;-0.32000
7249998;-0.19000
7252776;-0.03500
7255554;0.18000
7258331;0.46500
7261109;0.74500
7263887;0.94500
7266665;1.01000
7269442;0.94500
7272220;0.74500
7274998;0.39500
7277776;0.00000
7280554;-0.30500
7283331;-0.44500
7286109;-0.45500
7288887;-0.38500
7291665;-0.33000
7294442;-0.31000
7297220;-0.32000
7299998;-0.32500
7302776;-0.33000
7305554;-0.32500
7308331;-0.30500
7311109;-0.30500
7313887;-0.30500
7316665;-0.31500
7319442;-0.32000
7322220;-0.31000
7324998;-0.31000
7327776;-0.30500
7330554;-0.31000
7333331;-0.31500
7336109;-0.31500
7338887;-0.31000
7341665;-0.30500
7344442;-0.29500
7347220;-0.30000
7349998;-0.30000
7352776;-0.30500
7355553;-0.31000
7358331;-0.30000
7361109;-0.28500
7363887;-0.30000
7366665;-0.30500
7369442;-0.32000
7372220;-0.31500
7374998;-0.30000
7377776;-0.30000
7380553;-0.31000
7383331;-0.33000
7386109;-0.33500
7388887;-0.33000
7391665;-0.32000
7394442;-0.32000
7397220;-0.31000
7399998;-0.31500
7402776;-0.31500
7405553;-0.32000
7408331;-0.30000
7411109;-0.31000
7413887;-0.31000
7416665;-0.31500
7419442;-0.32000
7422220;-0.31500
7424998;-0.29500
7427776;-0.29500
7430553;-0.30500
7433331;-0.31500
7436109;-0.30500
7438887;-0.31000
7441665;-0.30000
7444442;-0.29500
7447220;-0.31000
7449998;-0.31500
7452776;-0.31500
7455553;-0.30500
7458331;-0.30000
7461109;-0.30000
7463887;-0.30500
7466665;-0.30000
7469442;-0.31000
7472220;-0.30500
7474998;-0.29500
7477776;-0.28500
7480553;-0.29500
7483331;-0.30000
7486109;-0.31000
7488887;-0.30000
7491665;-0.29000
7494442;-0.29500
7497220;-0.30000
7499998;-0.31000
7502776;-0.32500
7505553;-0.32500
7508331;-0.31500
7511109;-0.30500
7513887;-0.31000
7516665;-0.31500
7519442;-0.31500
7522220;-0.32000
7524998;-0.31000
7527776;-0.30000
7530553;-0.32000
7533331;-0.33500
7536109;-0.33500
7538887;-0.32000
7541665;-0.31000
7544442;-0.29500
7547220;-0.30000
7549998;-0.29500
7552776;-0.30000
7555553;-0.28000
7558331;-0.27000
7561109;-0.25000
7563887;-0.25500
7566665;-0.25500
7569442;-0.25000
7572220;-0.24500
7574998;-0.22000
7577776;-0.20000
7580553;-0.20500
7583331;-0.20000
7586109;-0.20500
7588887;-0.21500
7591665;-0.20500
7594442;-0.20500
7597220;-0.21000
7599998;-0.22500
7602776;-0.20500
7605553;-0.21000
7608331;-0.20500
7611109;-0.21500
7613887;-0.22000
7616665;-0.22000
7619442;-0.21500
7622220;-0.20500
7624998;-0.21500
7627776;-0.21500
7630553;-0.21500
7633331;-0.22500
7636109;-0.22500
7638887;-0.22500
7641665;-0.21000
7644442;-0.21000
7647220;-0.21500
7649998;-0.22000
7652776;-0.23000
7655553;-0.22000
7658331;-0.21000
7661109;-0.20500
7663887;-0.22500
7666665;-0.22000
7669442;-0.22000
7672220;-0.23500
7674998;-0.22500
7677776;-0.22000
7680553;-0.23000
7683331;-0.23000
7686109;-0.24000
7688887;-0.23000
7691665;-0.22500
7694442;-0.22000
7697220;-0.22500
7699998;-0.23000
7702776;-0.24500
7705553;-0.23000
7708331;-0.23500
7711109;-0.23500
7713887;-0.24000
7716665;-0.25500
7719442;-0.27000
7722220;-0.26000
7724998;-0.23500
7727776;-0.24500
7730553;-0.24500
7733331;-0.24500
7736109;-0.25000
7738887;-0.24000
7741664;-0.24000
7744442;-0.24000
7747220;-0.24000
7749998;-0.24000
7752776;-0.26500
7755553;-0.25500
7758331;-0.25000
7761109;-0.25000
7763887;-0.25000
7766664;-0.26000
7769442;-0.27000
7772220;-0.25000
7774998;-0.25000
7777776;-0.23500
7780553;-0.24500
7783331;-0.26000
7786109;-0.26500
7788887;-0.25500
7791664;-0.25000
7794442;-0.24000
7797220;-0.26000
7799998;-0.26500
7802776;-0.27000
7805553;-0.26500
7808331;-0.24000
7811109;-0.22000
7813887;-0.22500
7816664;-0.23500
7819442;-0.25500
7822220;-0.24500
7824998;-0.23500
7827776;-0.23000
7830553;-0.22500
7833331;-0.25000
7836109;-0.25000
7838887;-0.25000
7841664;-0.26000
7844442;-0.25000
7847220;-0.25500
7849998;-0.24500
7852776;-0.24000
7855553;-0.22000
7858331;-0.20500
7861109;-0.19000
7863887;-0.19000
7866664;-0.19500
7869442;-0.19500
7872220;-0.18500
7874998;-0.16500
7877776;-0.15500
7880553;-0.14500
7883331;-0.14000
7886109;-0.15000
7888887;-0.13500
7891664;-0.13500
7894442;-0.12500
7897220;-0.13000
7899998;-0.14000
7902776;-0.16000
7905553;-0.17000
7908331;-0.16000
7911109;-0.15000
7913887;-0.16500
7916664;-0.19000
7919442;-0.19000
7922220;-0.17000
7924998;-0.13500
7927776;-0.12500
7930553;-0.15000
7933331;-0.19000
7936109;-0.23500
7938887;-0.23500
7941664;-0.23500
7944442;-0.24000
7947220;-0.26000
7949998;-0.27000
7952776;-0.29500
7955553;-0.28500
7958331;-0.28500
7961109;-0.27500
7963887;-0.28000
7966664;-0.27500
7969442;-0.29000
7972220;-0.29000
7974998;-0.29000
7977776;-0.28500
7980553;-0.28000
7983331;-0.28500
7986109;-0.30500
7988887;-0.29000
7991664;-0.29500
7994442;-0.29000
7997220;-0.30500
7999998;-0.30000
8002776;-0.30500
8005553;-0.30000
8008331;-0.30000
8011109;-0.29500
8013887;-0.29500
8016664;-0.32000
8019442;-0.33000
8022220;-0.33500
8024998;-0.36000
8027776;-0.38500
8030553;-0.41000
8033331;-0.43500
8036109;-0.48500
8038887;-0.50500
8041664;-0.47000
8044442;-0.38000
8047220;-0.25500
8049998;-0.11500
8052776;0.07000
8055553;0.35500
8058331;0.62500
8061109;0.79500
8063887;0.87500
8066664;0.81500
8069442;0.58000
8072220;0.23500
8074998;-0.11500
8077776;-0.36000
8080553;-0.47500
8083331;-0.47500
8086109;-0.42500
8088887;-0.37500
8091664;-0.35000
8094442;-0.36500
8097220;-0.35500
8099998;-0.35000
8102776;-0.36000
8105553;-0.35500
8108331;-0.34500
8111109;-0.33500
8113887;-0.34000
8116664;-0.35000
8119442;-0.36000
8122220;-0.35500
8124998;-0.34000
8127776;-0.33500
8130553;-0.34000
8133331;-0.34500
8136109;-0.36000
8138887;-0.35000
8141664;-0.34500
8144442;-0.36000
8147220;-0.36000
8149998;-0.34500
8152775;-0.35500
8155553;-0.35500
8158331;-0.35500
8161109;-0.34500
8163887;-0.36000
8166664;-0.35500
8169442;-0.36500
8172220;-0.35500
8174998;-0.35500
8177775;-0.35500
8180553;-0.36000
8183331;-0.37000
8186109;-0.37000
8188887;-0.36500
8191664;-0.36000
8194442;-0.34000
8197220;-0.35000
8199998;-0.36500
8202775;-0.38000
8205553;-0.37000
8208331;-0.37000
8211109;-0.34500
8213887;-0.35000
8216664;-0.36000
8219442;-0.36500
8222220;-0.36500
8224998;-0.35000
8227775;-0.35500
8230553;-0.36500
8233331;-0.37000
8236109;-0.38000
8238887;-0.36500
8241664;-0.35000
8244442;-0.35500
8247220;-0.36500
8249998;-0.37000
8252775;-0.37500
8255553;-0.36000
8258331;-0.37000
8261109;-0.36500
8263887;-0.36000
8266664;-0.37000
8269442;-0.36500
8272220;-0.35000
8274998;-0.33500
8277775;-0.33500
8280553;-0.33500
8283331;-0.35000
8286109;-0.37000
8288887;-0.35000
8291664;-0.35000
8294442;-0.37000
8297220;-0.37000
8299998;-0.37500
8302775;-0.38500
8305553;-0.38500
8308331;-0.39000
8311109;-0.39500
8313887;-0.39500
8316664;-0.40500
8319442;-0.41000
8322220;-0.39500
8324998;-0.38500
8327775;-0.37500
8330553;-0.38000
8333331;-0.39000
8336109;-0.41000
8338887;-0.40000
8341664;-0.39000
8344442;-0.36500
8347220;-0.36500
8349998;-0.37500
8352775;-0.38500
8355553;-0.36500
8358331;-0.35500
8361109;-0.34500
8363887;-0.35500
8366664;-0.35000
8369442;-0.34000
8372220;-0.32000
8374998;-0.30000
8377775;-0.29000
8380553;-0.29000
8383331;-0.30000
8386109;-0.30000
8388887;-0.29500
8391664;-0.27500
8394442;-0.26500
8397220;-0.26000
8399998;-0.26500
8402775;-0.28000
8405553;-0.28000
8408331;-0.27000
8411109;-0.26000
8413887;-0.26500
8416664;-0.27000
8419442;-0.28000
8422220;-0.25500
8424998;-0.25000
8427775;-0.25000
8430553;-0.26500
8433331;-0.27500
8436109;-0.28000
8438887;-0.27000
8441664;-0.26000
8444442;-0.25000
8447220;-0.25500
8449998;-0.27000
8452775;-0.28000
8455553;-0.27000
8458331;-0.26500
8461109;-0.27000
8463887;-0.27000
8466664;-0.29000
8469442;-0.28500
8472220;-0.28000
8474998;-0.27000
8477775;-0.27000
8480553;-0.27000
8483331;-0.28500
8486109;-0.30500
8488887;-0.30500
8491664;-0.30000
8494442;-0.29000
8497220;-0.29000
8499998;-0.30500
8502775;-0.31000
8505553;-0.30000
8508331;-0.29000
8511109;-0.29000
8513887;-0.29000
8516664;-0.30000
8519442;-0.31000
8522220;-0.30000
8524998;-0.30000
8527775;-0.29000
8530553;-0.29000
8533331;-0.30000
8536109;-0.32000
8538886;-0.32500
8541664;-0.31000
8544442;-0.31000
8547220;-0.31500
8549998;-0.33500
8552775;-0.33500
8555553;-0.33000
8558331;-0.31500
8561109;-0.31500
8563886;-0.32000
8566664;-0.32500
8569442;-0.33500
8572220;-0.33000
8574998;-0.32500
8577775;-0.30500
8580553;-0.31000
8583331;-0.31000
8586109;-0.32500
8588886;-0.32000
8591664;-0.31000
8594442;-0.30000
8597220;-0.30500
8599998;-0.31000
8602775;-0.32500
8605553;-0.32500
8608331;-0.31500
8611109;-0.32500
8613886;-0.32000
8616664;-0.32000
8619442;-0.33500
8622220;-0.33000
8624998;-0.33000
8627775;-0.30500
8630553;-0.31500
8633331;-0.31500
8636109;-0.32500
8638886;-0.32000
8641664;-0.31500
8644442;-0.31000
8647220;-0.30000
8649998;-0.29000
8652775;-0.30000
8655553;-0.31000
8658331;-0.29500
8661109;-0.28000
8663886;-0.28000
8666664;-0.28000
8669442;-0.29000
8672220;-0.26500
8674998;-0.25500
8677775;-0.24500
8680553;-0.25000
8683331;-0.25000
8686109;-0.25000
8688886;-0.23000
8691664;-0.21500
8694442;-0.21000
8697220;-0.21500
8699998;-0.21500
8702775;-0.23500
8705553;-0.23000
8708331;-0.22000
8711109;-0.21000
8713886;-0.20500
8716664;-0.21000
8719442;-0.22500
8722220;-0.22500
8724998;-0.23000
8727775;-0.22500
8730553;-0.24500
8733331;-0.26000
8736109;-0.27000
8738886;-0.24500
8741664;-0.22000
8744442;-0.23000
8747220;-0.25000
8749998;-0.27500
8752775;-0.30000
8755553;-0.31500
8758331;-0.32000
8761109;-0.32500
8763886;-0.34500
8766664;-0.35500
8769442;-0.37000
8772220;-0.36000
8774998;-0.35000
8777775;-0.35000
8780553;-0.34000
8783331;-0.34500
8786109;-0.35500
8788886;-0.34500
8791664;-0.33500
8794442;-0.34000
8797220;-0.35000
8799998;-0.36000
8802775;-0.36500
8805553;-0.36000
8808331;-0.35000
8811109;-0.34000
8813886;-0.35000
8816664;-0.36500
8819442;-0.38000
8822220;-0.36500
8824998;-0.35000
8827775;-0.34000
8830553;-0.34000
8833331;-0.35000
8836109;-0.37500
8838886;-0.39000
8841664;-0.40500
8844442;-0.43500
8847220;-0.46500
8849998;-0.48500
8852775;-0.53000
8855553;-0.55500
8858331;-0.56000
8861109;-0.49500
8863886;-0.38000
8866664;-0.25000
8869442;-0.09500
8872220;0.15500
8874998;0.43500
8877775;0.68000
8880553;0.83500
8883331;0.87000
8886109;0.73500
8888886;0.43500
8891664;0.06000
8894442;-0.25500
8897220;-0.45000
8899998;-0.55000
8902775;-0.53000
8905553;-0.47000
8908331;-0.42500
8911109;-0.40000
8913886;-0.42000
8916664;-0.41500
8919442;-0.41500
8922220;-0.41000
8924998;-0.38500
8927775;-0.38500
8930553;-0.38500
8933331;-0.40000
8936109;-0.41500
8938886;-0.41000
8941664;-0.39000
8944442;-0.39500
8947220;-0.39500
8949997;-0.41000
8952775;-0.41500
8955553;-0.42000
8958331;-0.40500
8961109;-0.40500
8963886;-0.40500
8966664;-0.40500
8969442;-0.41000
8972220;-0.41500
8974997;-0.41500
8977775;-0.40000
8980553;-0.40000
8983331;-0.40500
8986109;-0.42500
8988886;-0.42500
8991664;-0.41000
8994442;-0.40500
8997220;-0.39500
8999997;-0.40500
9002775;-0.40500
9005553;-0.41500
9008331;-0.39500
9011109;-0.39000
9013886;-0.39500
9016664;-0.40000
9019442;-0.41000
9022220;-0.41000
9024997;-0.41000
9027775;-0.40000
9030553;-0.40500
9033331;-0.41500
9036109;-0.41000
9038886;-0.41000
9041664;-0.39500
9044442;-0.39500
9047220;-0.39000
9049997;-0.40000
9052775;-0.42500
9055553;-0.41000
9058331;-0.39500
9061109;-0.40500
9063886;-0.40500
9066664;-0.40500
9069442;-0.42000
9072220;-0.40500
9074997;-0.39500
9077775;-0.39000
9080553;-0.38000
9083331;-0.39500
9086109;-0.39500
9088886;-0.40000
9091664;-0.39500
9094442;-0.39500
9097220;-0.41000
9099997;-0.40500
9102775;-0.41000
9105553;-0.41000
9108331;-0.41500
9111109;-0.40500
9113886;-0.41500
9116664;-0.42000
9119442;-0.44000
9122220;-0.43000
9124997;-0.43500
9127775;-0.43500
9130553;-0.44000
9133331;-0.45500
9136109;-0.45500
9138886;-0.45500
9141664;-0.45500
9144442;-0.44000
9147220;-0.43500
9149997;-0.45500
9152775;-0.46500
9155553;-0.44000
9158331;-0.42000
9161109;-0.41500
9163886;-0.40500
9166664;-0.40500
9169442;-0.40500
9172220;-0.39000
9174997;-0.37500
9177775;-0.36500
9180553;-0.35500
9183331;-0.36500
9186109;-0.35500
9188886;-0.34500
9191664;-0.33000
9194442;-0.32500
9197220;-0.32000
9199997;-0.31500
9202775;-0.31000
9205553;-0.31000
9208331;-0.30500
9211109;-0.28500
9213886;-0.28500
9216664;-0.29500
9219442;-0.31500
9222220;-0.30000
9224997;-0.28500
9227775;-0.27000
9230553;-0.27500
9233331;-0.27000
9236109;-0.27500
9238886;-0.28000
9241664;-0.27000
9244442;-0.26500
9247220;-0.26500
9249997;-0.28500
9252775;-0.30500
9255553;-0.29500
9258331;-0.28000
9261109;-0.27000
9263886;-0.28000
9266664;-0.28000
9269442;-0.29500
9272220;-0.28500
9274997;-0.28000
9277775;-0.27500
9280553;-0.28500
9283331;-0.29000
9286109;-0.30500
9288886;-0.30000
9291664;-0.28000
9294442;-0.28500
9297220;-0.29000
9299997;-0.29000
9302775;-0.30000
9305553;-0.30000
9308331;-0.28500
9311109;-0.27500
9313886;-0.27500
9316664;-0.28000
9319442;-0.30000
9322220;-0.28000
9324997;-0.27000
9327775;-0.27500
9330553;-0.29000
9333331;-0.29500
9336108;-0.30500
9338886;-0.30500
9341664;-0.29000
9344442;-0.28500
9347220;-0.29500
9349997;-0.31000
9352775;-0.31500
9355553;-0.30500
9358331;-0.30000
9361108;-0.28500
9363886;-0.28000
9366664;-0.29500
9369442;-0.29000
9372220;-0.30000
9374997;-0.29000
9377775;-0.27000
9380553;-0.28500
9383331;-0.28500
9386108;-0.29000
9388886;-0.30000
9391664;-0.28500
9394442;-0.29500
9397220;-0.29500
9399997;-0.30500
9402775;-0.31000
9405553;-0.31000
9408331;-0.30000
9411108;-0.29500
9413886;-0.29500
9416664;-0.30500
9419442;-0.32000
9422220;-0.31000
9424997;-0.30000
9427775;-0.29500
9430553;-0.30500
9433331;-0.30500
9436108;-0.31500
9438886;-0.30500
9441664;-0.29500
9444442;-0.28500
9447220;-0.29000
9449997;-0.29000
9452775;-0.30000
9455553;-0.28500
9458331;-0.28500
9461108;-0.28000
9463886;-0.27500
9466664;-0.29500
9469442;-0.30000
9472220;-0.30000
9474997;-0.29500
9477775;-0.28500
9480553;-0.29000
9483331;-0.29500
9486108;-0.30500
9488886;-0.30500
9491664;-0.29500
9494442;-0.29500
9497220;-0.30000
9499997;-0.29000
9502775;-0.30000
9505553;-0.28500
9508331;-0.25000
9511108;-0.24000
9513886;-0.22000
9516664;-0.22000
9519442;-0.22000
9522220;-0.21500
9524997;-0.20000
9527775;-0.18500
9530553;-0.18000
9533331;-0.18000
9536108;-0.17000
9538886;-0.17000
9541664;-0.16500
9544442;-0.16000
9547220;-0.17000
9549997;-0.18000
9552775;-0.20000
9555553;-0.20000
9558331;-0.19500
9561108;-0.19000
9563886;-0.18500
9566664;-0.18000
9569442;-0.20500
9572220;-0.21000
9574997;-0.19500
9577775;-0.18000
9580553;-0.16000
9583331;-0.16000
9586108;-0.13500
9588886;-0.15500
9591664;-0.18000
9594442;-0.21000
9597220;-0.23500
9599997;-0.23500
9602775;-0.27000
9605553;-0.28500
9608331;-0.29000
9611108;-0.28500
9613886;-0.29500
9616664;-0.31500
9619442;-0.32500
9622220;-0.31000
9624997;-0.31000
9627775;-0.29500
9630553;-0.31000
9633331;-0.32500
9636108;-0.32000
9638886;-0.32500
9641664;-0.32500
9644442;-0.31000
9647220;-0.30500
9649997;-0.32000
9652775;-0.32000
9655553;-0.32000
9658331;-0.31000
9661108;-0.30000
9663886;-0.31500
9666664;-0.31500
9669442;-0.32500
9672220;-0.32500
9674997;-0.33000
9677775;-0.34000
9680553;-0.38500
9683331;-0.42500
9686108;-0.45000
9688886;-0.44000
9691664;-0.43500
9694442;-0.46500
9697220;-0.51500
9699997;-0.54500
9702775;-0.55000
9705553;-0.50000
9708331;-0.42500
9711108;-0.29500
9713886;-0.17500
9716664;-0.02500
9719442;0.19000
9722220;0.48000
9724997;0.73000
9727775;0.87500
9730553;0.90000
9733331;0.75000
9736108;0.40500
9738886;-0.02500
9741664;-0.34500
9744442;-0.47500
9747219;-0.47000
9749997;-0.42500
9752775;-0.37500
9755553;-0.34500
9758331;-0.35000
9761108;-0.35500
9763886;-0.34000
9766664;-0.36500
9769442;-0.37000
9772219;-0.37000
9774997;-0.37000
9777775;-0.35000
9780553;-0.36000
9783331;-0.36500
9786108;-0.38000
9788886;-0.36500
9791664;-0.35000
9794442;-0.34000
9797219;-0.35000
9799997;-0.34500
9802775;-0.36000
9805553;-0.36000
9808331;-0.34500
9811108;-0.36000
9813886;-0.34000
9816664;-0.35000
9819442;-0.36500
9822219;-0.36000
9824997;-0.34500
9827775;-0.34500
9830553;-0.34500
9833331;-0.35000
9836108;-0.36500
9838886;-0.36000
9841664;-0.34500
9844442;-0.34500
9847219;-0.35000
9849997;-0.35000
9852775;-0.35500
9855553;-0.34500
9858331;-0.34500
9861108;-0.33500
9863886;-0.34500
9866664;-0.35500
9869442;-0.35500
9872219;-0.35500
9874997;-0.35000
9877775;-0.33500
9880553;-0.35000
9883331;-0.34500
9886108;-0.35000
9888886;-0.34500
9891664;-0.34000
9894442;-0.34000
9897219;-0.33500
9899997;-0.35000
9902775;-0.36000
9905553;-0.37000
9908331;-0.34000
9911108;-0.33000
9913886;-0.33000
9916664;-0.33500
9919442;-0.34000
9922219;-0.33500
9924997;-0.32000
9927775;-0.31500
9930553;-0.32000
9933331;-0.32000
9936108;-0.33500
9938886;-0.34000
9941664;-0.33000
9944442;-0.33000
9947219;-0.34000
9949997;-0.35000
9952775;-0.36500
9955553;-0.36000
9958331;-0.35000
9961108;-0.34500
9963886;-0.35000
9966664;-0.36500
9969442;-0.37500
9972219;-0.37500
9974997;-0.35000
9977775;-0.35500
9980553;-0.34500
9983331;-0.34500
9986108;-0.36000
9988886;-0.35500
9991664;-0.34000
9994442;-0.33000
9997219;-0.32500
9999997;-0.34000
10002775;-0.33500
10005553;-0.33500
10008331;-0.31500
10011108;-0.29000
10013886;-0.30000
10016664;-0.29500
10019442;-0.30000
10022219;-0.29500
10024997;-0.28500
10027775;-0.28000
10030553;-0.28000
10033331;-0.27500
10036108;-0.28500
10038886;-0.27500
10041664;-0.26000
10044442;-0.25000
10047219;-0.25500
10049997;-0.24000
10052775;-0.25000
10055553;-0.24500
10058331;-0.23500
10061108;-0.22500
10063886;-0.23500
10066664;-0.22500
10069442;-0.24000
10072219;-0.23500
10074997;-0.22000
10077775;-0.22500
10080553;-0.21500
10083331;-0.22000
10086108;-0.23500
10088886;-0.23000
10091664;-0.22000
10094442;-0.22000
10097219;-0.22000
10099997;-0.23500
10102775;-0.24500
10105553;-0.24500
10108331;-0.23500
10111108;-0.23000
10113886;-0.23500
10116664;-0.24000
10119442;-0.25500
10122219;-0.24500
10124997;-0.24500
10127775;-0.24000
10130553;-0.23000
10133330;-0.24500
10136108;-0.25500
10138886;-0.25000
10141664;-0.25000
10144442;-0.24000
10147219;-0.24000
10149997;-0.23000
10152775;-0.24500
10155553;-0.24000
10158330;-0.23000
10161108;-0.23500
10163886;-0.22500
10166664;-0.24500
10169442;-0.26500
10172219;-0.25000
10174997;-0.24500
10177775;-0.23500
10180553;-0.24000
10183330;-0.25000
10186108;-0.25500
10188886;-0.26000
10191664;-0.25000
10194442;-0.24500
10197219;-0.24500
10199997;-0.26000
10202775;-0.27000
10205553;-0.27000
10208330;-0.25000
10211108;-0.24500
10213886;-0.24500
10216664;-0.26000
10219442;-0.27500
10222219;-0.26000
10224997;-0.26000
10227775;-0.25000
10230553;-0.26000
10233330;-0.26000
10236108;-0.25500
10238886;-0.25500
10241664;-0.25000
10244442;-0.24000
10247219;-0.24500
10249997;-0.26000
10252775;-0.25500
10255553;-0.25500
10258330;-0.25000
10261108;-0.25000
10263886;-0.26000
10266664;-0.26000
10269442;-0.26500
10272219;-0.27000
10274997;-0.26000
10277775;-0.26000
10280553;-0.24500
10283330;-0.25500
10286108;-0.26000
10288886;-0.25500
10291664;-0.25000
10294442;-0.24500
10297219;-0.23500
10299997;-0.23000
10302775;-0.25500
10305553;-0.24500
10308330;-0.24000
10311108;-0.22500
10313886;-0.23000
10316664;-0.24000
10319442;-0.24000
10322219;-0.24000
10324997;-0.23000
10327775;-0.22000
10330553;-0.22000
10333330;-0.22000
10336108;-0.22500
10338886;-0.21500
10341664;-0.18500
10344442;-0.18500
10347219;-0.16000
10349997;-0.16000
10352775;-0.18500
10355553;-0.18500
10358330;-0.17000
10361108;-0.16000
10363886;-0.16000
10366664;-0.18000
10369442;-0.18500
10372219;-0.16500
10374997;-0.15500
10377775;-0.12500
10380553;-0.12000
10383330;-0.12000
10386108;-0.12000
10388886;-0.12000
10391664;-0.11500
10394442;-0.10500
10397219;-0.11500
10399997;-0.13500
10402775;-0.14500
10405553;-0.14000
10408330;-0.13500
10411108;-0.13500
10413886;-0.13500
10416664;-0.15000
10419442;-0.15500
10422219;-0.12000
10424997;-0.11000
10427775;-0.11500
10430553;-0.15500
10433330;-0.18500
10436108;-0.20000
10438886;-0.20500
10441664;-0.21500
10444442;-0.22500
10447219;-0.23000
10449997;-0.24500
10452775;-0.25000
10455553;-0.25000
10458330;-0.24000
10461108;-0.23500
10463886;-0.24000
10466664;-0.25000
10469442;-0.26000
10472219;-0.28000
10474997;-0.26000
10477775;-0.25500
10480553;-0.25500
10483330;-0.25500
10486108;-0.26500
10488886;-0.26500
10491664;-0.26500
10494442;-0.26000
10497219;-0.26000
10499997;-0.27000
10502775;-0.27000
10505553;-0.27500
10508330;-0.28000
10511108;-0.28500
10513886;-0.32500
10516664;-0.37000
10519441;-0.39500
10522219;-0.39000
10524997;-0.39000
10527775;-0.42000
10530553;-0.47500
10533330;-0.50500
10536108;-0.45000
10538886;-0.35500
10541664;-0.23500
10544441;-0.09500
10547219;0.08000
10549997;0.33000
10552775;0.60500
10555553;0.82000
10558330;0.93000
10561108;0.93000
10563886;0.72500
10566664;0.36000
10569441;-0.04000
10572219;-0.34500
10574997;-0.45000
10577775;-0.43500
10580553;-0.38500
10583330;-0.34500
10586108;-0.33500
10588886;-0.34000
10591664;-0.32500
10594441;-0.31000
10597219;-0.31000
10599997;-0.31000
10602775;-0.34000
10605553;-0.32500
10608330;-0.32500
10611108;-0.31000
10613886;-0.31500
10616664;-0.32000
10619441;-0.33500
10622219;-0.32500
10624997;-0.30500
10627775;-0.29500
10630553;-0.30500
10633330;-0.31500
10636108;-0.32500
10638886;-0.31500
10641664;-0.31500
10644441;-0.30500
10647219;-0.31000
10649997;-0.32500
10652775;-0.31500
10655553;-0.32500
10658330;-0.31000
10661108;-0.30000
10663886;-0.30000
10666664;-0.32000
10669441;-0.33500
10672219;-0.32500
10674997;-0.31000
10677775;-0.31000
10680553;-0.30500
10683330;-0.31000
10686108;-0.31000
10688886;-0.31000
10691664;-0.30500
10694441;-0.30000
10697219;-0.30000
10699997;-0.31000
10702775;-0.32500
10705553;-0.32500
10708330;-0.32500
10711108;-0.31000
10713886;-0.30500
10716664;-0.31500
10719441;-0.33000
10722219;-0.33000
10724997;-0.32000
10727775;-0.32500
10730553;-0.32000
10733330;-0.32000
10736108;-0.32500
10738886;-0.32000
10741664;-0.31500
10744441;-0.29500
10747219;-0.29500
10749997;-0.30500
10752775;-0.30500
10755553;-0.31500
10758330;-0.30000
10761108;-0.30000
10763886;-0.29000
10766664;-0.30000
10769441;-0.31000
10772219;-0.29500
10774997;-0.30000
10777775;-0.29000
10780553;-0.30500
10783330;-0.30500
10786108;-0.31500
10788886;-0.32500
10791664;-0.31000
10794441;-0.30500
10797219;-0.32000
10799997;-0.31500
10802775;-0.32500
10805553;-0.32500
10808330;-0.32500
10811108;-0.31500
10813886;-0.32000
10816664;-0.33000
10819441;-0.34500
10822219;-0.35000
10824997;-0.33500
10827775;-0.32500
10830553;-0.31500
10833330;-0.33500
10836108;-0.33000
10838886;-0.32500
10841664;-0.31000
10844441;-0.30000
10847219;-0.30000
10849997;-0.31000
10852775;-0.29500
10855553;-0.30000
10858330;-0.28000
10861108;-0.27000
10863886;-0.27000
10866664;-0.26500
10869441;-0.27500
10872219;-0.26000
10874997;-0.24500
10877775;-0.23500
10880553;-0.23000
10883330;-0.23500
10886108;-0.24000
10888886;-0.24000
10891664;-0.22500
10894441;-0.21500
10897219;-0.22500
10899997;-0.24000
10902775;-0.23500
10905553;-0.22500
10908330;-0.22000
10911108;-0.21500
10913886;-0.22500
10916664;-0.24500
10919441;-0.25000
10922219;-0.24500
10924997;-0.22500
10927775;-0.22500
10930552;-0.22000
10933330;-0.23000
10936108;-0.23500
10938886;-0.22500
10941664;-0.22500
10944441;-0.21500
10947219;-0.21500
10949997;-0.22500
10952775;-0.22000
10955552;-0.22500
10958330;-0.21500
10961108;-0.21000
10963886;-0.22000
10966664;-0.22500
10969441;-0.23500
10972219;-0.23500
10974997;-0.23500
10977775;-0.22500
10980552;-0.24000
10983330;-0.24000
10986108;-0.25500
10988886;-0.25000
10991664;-0.24000
10994441;-0.23500
10997219;-0.23000
10999997;-0.24500
11002775;-0.25000
11005552;-0.26000
11008330;-0.25500
11011108;-0.25000
11013886;-0.25000
11016664;-0.26500
11019441;-0.28500
11022219;-0.27000
11024997;-0.26500
11027775;-0.26000
11030552;-0.26500
11033330;-0.26500
11036108;-0.28000
11038886;-0.27000
11041664;-0.26000
11044441;-0.25000
11047219;-0.25500
11049997;-0.26500
11052775;-0.27500
11055552;-0.28500
11058330;-0.27500
11061108;-0.27500
11063886;-0.28000
11066664;-0.29000
11069441;-0.28500
11072219;-0.30000
11074997;-0.28500
11077775;-0.27500
11080552;-0.27000
11083330;-0.29000
11086108;-0.29500
11088886;-0.30000
11091664;-0.29500
11094441;-0.27500
11097219;-0.28000
11099997;-0.28500
11102775;-0.29500
11105552;-0.28500
11108330;-0.27500
11111108;-0.26000
11113886;-0.27000
11116664;-0.27500
11119441;-0.29500
11122219;-0.29000
11124997;-0.28000
11127775;-0.26500
11130552;-0.27500
11133330;-0.28500
11136108;-0.30000
11138886;-0.28500
11141664;-0.28500
11144441;-0.28500
11147219;-0.29500
11149997;-0.28500
11152775;-0.29500
11155552;-0.29000
11158330;-0.28500
11161108;-0.27500
11163886;-0.27500
11166664;-0.28500
11169441;-0.29500
11172219;-0.28000
11174997;-0.27500
11177775;-0.25500
11180552;-0.23500
11183330;-0.24000
11186108;-0.23000
11188886;-0.22500
11191664;-0.20500
11194441;-0.20000
11197219;-0.19500
11199997;-0.19000
11202775;-0.21500
11205552;-0.20000
11208330;-0.18000
11211108;-0.18500
11213886;-0.17500
11216664;-0.17000
11219441;-0.18000
11222219;-0.18000
11224997;-0.17500
11227775;-0.17000
11230552;-0.21000
11233330;-0.21000
11236108;-0.22500
11238886;-0.22500
11241664;-0.22500
11244441;-0.20500
11247219;-0.19500
11249997;-0.18500
11252775;-0.17500
11255552;-0.19500
11258330;-0.20500
11261108;-0.21500
11263886;-0.23000
11266664;-0.25000
11269441;-0.27000
11272219;-0.29000
11274997;-0.28500
11277775;-0.28000
11280552;-0.28500
11283330;-0.30000
11286108;-0.32000
11288886;-0.33500
11291664;-0.33500
11294441;-0.30500
11297219;-0.31000
11299997;-0.31000
11302775;-0.33000
11305552;-0.32500
11308330;-0.31000
11311108;-0.31500
11313886;-0.31500
11316663;-0.33500
11319441;-0.35000
11322219;-0.35000
11324997;-0.34000
11327775;-0.33000
11330552;-0.33000
11333330;-0.33500
11336108;-0.34500
11338886;-0.34500
11341663;-0.33000
11344441;-0.31000
11347219;-0.33000
11349997;-0.34000
11352775;-0.35000
11355552;-0.39000
11358330;-0.42000
11361108;-0.43500
11363886;-0.47500
11366663;-0.52500
11369441;-0.56000
11372219;-0.52500
11374997;-0.41000
11377775;-0.28000
11380552;-0.12500
11383330;0.07000
11386108;0.33500
11388886;0.62000
11391663;0.80500
11394441;0.87500
11397219;0.79500
11399997;0.51000
11402775;0.10500
11405552;-0.25000
11408330;-0.47000
11411108;-0.50500
11413886;-0.46500
11416663;-0.42000
11419441;-0.38500
11422219;-0.38500
11424997;-0.38000
11427775;-0.36500
11430552;-0.37500
11433330;-0.37500
11436108;-0.39000
11438886;-0.38000
11441663;-0.37500
11444441;-0.37500
11447219;-0.37000
11449997;-0.39500
11452775;-0.39500
11455552;-0.38500
11458330;-0.37500
11461108;-0.36500
11463886;-0.37000
11466663;-0.37500
11469441;-0.38500
11472219;-0.38500
11474997;-0.36000
11477775;-0.36000
11480552;-0.36000
11483330;-0.37500
11486108;-0.38000
11488886;-0.38000
11491663;-0.37500
11494441;-0.36000
11497219;-0.35000
11499997;-0.37000
11502775;-0.38500
11505552;-0.38500
11508330;-0.38000
11511108;-0.38500
11513886;-0.39000
11516663;-0.40000
11519441;-0.40000
11522219;-0.39000
11524997;-0.38000
11527775;-0.36500
11530552;-0.38500
11533330;-0.40000
11536108;-0.41000
11538886;-0.40000
11541663;-0.40000
11544441;-0.39000
11547219;-0.39000
11549997;-0.39500
11552775;-0.40000
11555552;-0.38500
11558330;-0.38000
11561108;-0.36500
11563886;-0.35500
11566663;-0.38000
11569441;-0.39000
11572219;-0.39000
11574997;-0.38500
11577775;-0.37500
11580552;-0.37500
11583330;-0.37000
11586108;-0.38000
11588886;-0.37500
11591663;-0.36000
11594441;-0.36000
11597219;-0.36000
11599997;-0.37000
11602775;-0.38500
11605552;-0.38000
11608330;-0.38500
11611108;-0.38500
11613886;-0.38500
11616663;-0.40000
11619441;-0.41000
11622219;-0.39500
11624997;-0.39000
11627775;-0.38000
11630552;-0.37000
11633330;-0.39000
11636108;-0.40500
11638886;-0.42000
11641663;-0.41000
11644441;-0.41000
11647219;-0.41000
11649997;-0.42000
11652775;-0.43500
11655552;-0.44000
11658330;-0.43000
11661108;-0.42500
11663886;-0.42500
11666663;-0.45000
11669441;-0.45000
11672219;-0.44000
11674997;-0.43000
11677775;-0.42500
11680552;-0.42000
11683330;-0.41500
11686108;-0.42000
11688886;-0.40500
11691663;-0.37500
11694441;-0.35500
11697219;-0.34500
11699997;-0.35000
11702775;-0.34000
11705552;-0.34000
11708330;-0.31000
11711108;-0.29500
11713886;-0.29000
11716663;-0.30000
11719441;-0.31500
11722219;-0.30500
11724997;-0.29500
11727774;-0.27000
11730552;-0.27500
11733330;-0.28000
11736108;-0.28500
11738886;-0.29500
11741663;-0.28500
11744441;-0.27500
11747219;-0.27500
11749997;-0.28000
11752774;-0.29000
11755552;-0.27500
11758330;-0.27000
11761108;-0.26500
11763886;-0.27000
11766663;-0.27000
11769441;-0.28000
11772219;-0.27000
11774997;-0.26500
11777774;-0.27000
11780552;-0.26500
11783330;-0.28000
11786108;-0.28000
11788886;-0.28500
11791663;-0.27000
11794441;-0.27500
11797219;-0.28000
11799997;-0.28500
11802774;-0.29500
11805552;-0.29000
11808330;-0.28000
11811108;-0.27000
11813886;-0.28500
11816663;-0.30500
11819441;-0.31000
11822219;-0.31000
11824997;-0.30000
11827774;-0.28500
11830552;-0.29500
11833330;-0.31500
11836108;-0.31500
11838886;-0.31500
11841663;-0.30000
11844441;-0.29000
11847219;-0.29000
11849997;-0.30000
11852774;-0.31500
11855552;-0.31000
11858330;-0.31500
11861108;-0.30500
11863886;-0.29000
11866663;-0.31500
11869441;-0.32500
11872219;-0.32500
11874997;-0.31500
11877774;-0.30000
11880552;-0.30500
11883330;-0.30500
11886108;-0.32500
11888886;-0.33000
11891663;-0.32000
11894441;-0.31500
11897219;-0.32000
11899997;-0.32000
11902774;-0.33500
11905552;-0.33500
11908330;-0.33000
11911108;-0.32500
11913886;-0.33500
11916663;-0.33500
11919441;-0.32500
11922219;-0.32000
11924997;-0.31500
11927774;-0.30500
11930552;-0.31500
11933330;-0.31000
11936108;-0.31500
11938886;-0.31000
11941663;-0.31500
11944441;-0.31000
11947219;-0.31000
11949997;-0.31500
11952774;-0.32500
11955552;-0.32500
11958330;-0.31000
11961108;-0.32000
11963886;-0.31000
11966663;-0.32500
11969441;-0.33000
11972219;-0.33000
11974997;-0.33000
11977774;-0.31500
11980552;-0.32000
11983330;-0.32000
11986108;-0.33000
11988886;-0.32000
11991663;-0.31000
11994441;-0.28500
11997219;-0.27000
11999997;-0.26000
12002774;-0.27000
12005552;-0.26000
12008330;-0.25500
12011108;-0.25500
12013886;-0.25500
12016663;-0.23500
12019441;-0.23500
12022219;-0.23000
12024997;-0.21000
12027774;-0.20500
12030552;-0.20000
12033330;-0.21500
12036108;-0.23500
12038886;-0.24000
12041663;-0.22500
12044441;-0.22500
12047219;-0.22000
12049997;-0.22500
12052774;-0.23000
12055552;-0.23000
12058330;-0.23500
12061108;-0.23500
12063886;-0.23000
12066663;-0.22000
12069441;-0.21500
12072219;-0.20500
12074997;-0.21000
12077774;-0.23500
12080552;-0.25500
12083330;-0.27000
12086108;-0.30000
12088886;-0.32000
12091663;-0.31500
12094441;-0.31500
12097219;-0.31500
12099997;-0.34000
12102774;-0.35000
12105552;-0.34500
12108330;-0.34000
12111108;-0.32000
12113885;-0.32000
12116663;-0.33000
12119441;-0.34000
12122219;-0.33500
12124997;-0.32500
12127774;-0.32500
12130552;-0.33000
12133330;-0.33500
12136108;-0.34500
12138885;-0.33000
12141663;-0.33500
12144441;-0.33000
12147219;-0.34000
12149997;-0.34500
12152774;-0.35000
12155552;-0.35500
12158330;-0.34500
12161108;-0.36000
12163885;-0.39500
12166663;-0.44000
12169441;-0.46000
12172219;-0.49000
12174997;-0.51000
12177774;-0.52500
12180552;-0.53500
12183330;-0.48000
12186108;-0.38500
12188885;-0.23500
12191663;-0.04500
12194441;0.19000
12197219;0.48000
12199997;0.71500
12202774;0.86500
12205552;0.90500
12208330;0.80000
12211108;0.51500
12213885;0.12000
12216663;-0.23500
12219441;-0.45000
12222219;-0.52000
12224997;-0.49500
12227774;-0.44000
12230552;-0.38500
12233330;-0.38500
12236108;-0.40000
12238885;-0.37000
12241663;-0.36500
12244441;-0.36000
12247219;-0.36500
12249997;-0.37000
12252774;-0.37500
12255552;-0.37500
12258330;-0.36000
12261108;-0.35500
12263885;-0.35000
12266663;-0.36500
12269441;-0.36000
12272219;-0.36500
12274997;-0.35000
12277774;-0.34000
12280552;-0.35500
12283330;-0.35500
12286108;-0.36500
12288885;-0.37000
12291663;-0.35000
12294441;-0.34500
12297219;-0.35500
12299997;-0.36000
12302774;-0.37500
12305552;-0.37000
12308330;-0.36500
12311108;-0.36000
12313885;-0.36000
12316663;-0.36000
12319441;-0.37500
12322219;-0.38000
12324997;-0.35000
12327774;-0.34500
12330552;-0.35500
12333330;-0.36500
12336108;-0.36000
12338885;-0.35500
12341663;-0.35500
12344441;-0.34000
12347219;-0.34000
12349997;-0.34500
12352774;-0.36000
12355552;-0.34500
12358330;-0.34500
12361108;-0.35500
12363885;-0.35500
12366663;-0.35500
12369441;-0.36500
12372219;-0.36500
12374997;-0.36500
12377774;-0.35000
12380552;-0.34000
12383330;-0.35000
12386108;-0.36000
12388885;-0.35500
12391663;-0.34500
12394441;-0.33500
12397219;-0.33000
12399997;-0.34500
12402774;-0.36000
12405552;-0.36000
12408330;-0.35500
12411108;-0.33500
12413885;-0.35500
12416663;-0.35500
12419441;-0.35500
12422219;-0.36500
12424997;-0.35500
12427774;-0.35500
12430552;-0.35500
12433330;-0.36500
12436108;-0.38000
12438885;-0.38000
12441663;-0.38000
12444441;-0.37500
12447219;-0.38000
12449997;-0.39500
12452774;-0.39500
12455552;-0.40500
12458330;-0.40500
12461108;-0.38500
12463885;-0.39000
12466663;-0.39500
12469441;-0.40500
12472219;-0.40500
12474997;-0.39500
12477774;-0.38000
12480552;-0.37500
12483330;-0.36000
12486108;-0.36500
12488885;-0.34000
12491663;-0.33000
12494441;-0.30500
12497219;-0.29500
12499996;-0.29000
12502774;-0.29500
12505552;-0.28000
12508330;-0.27500
12511108;-0.25500
12513885;-0.26000
12516663;-0.25500
12519441;-0.25500
12522219;-0.25500
12524996;-0.23500
12527774;-0.22000
12530552;-0.24500
12533330;-0.25000
12536108;-0.25000
12538885;-0.24500
12541663;-0.25000
12544441;-0.23000
12547219;-0.23000
12549996;-0.24000
12552774;-0.24500
12555552;-0.25000
12558330;-0.23500
12561108;-0.24000
12563885;-0.23000
12566663;-0.23000
12569441;-0.24500
12572219;-0.23500
12574996;-0.22500
12577774;-0.21500
12580552;-0.21000
12583330;-0.22500
12586108;-0.24000
12588885;-0.24000
12591663;-0.23500
12594441;-0.23500
12597219;-0.23500
12599996;-0.25000
12602774;-0.26000
12605552;-0.25500
12608330;-0.24500
12611108;-0.24500
12613885;-0.23500
12616663;-0.24500
12619441;-0.26000
12622219;-0.27000
12624996;-0.25000
12627774;-0.24500
12630552;-0.23500
12633330;-0.25000
12636108;-0.24500
12638885;-0.24500
12641663;-0.24000
12644441;-0.23500
12647219;-0.23500
12649996;-0.24500
12652774;-0.26000
12655552;-0.25500
12658330;-0.25000
12661108;-0.25000
12663885;-0.26000
12666663;-0.27000
12669441;-0.27000
12672219;-0.27000
12674996;-0.26000
12677774;-0.24500
12680552;-0.27000
12683330;-0.29000
12686108;-0.28000
12688885;-0.28500
12691663;-0.26500
12694441;-0.26500
12697219;-0.27000
12699996;-0.27000
12702774;-0.27500
12705552;-0.27500
12708330;-0.26000
12711108;-0.25000
12713885;-0.25500
12716663;-0.25000
12719441;-0.26000
12722219;-0.25500
12724996;-0.25500
12727774;-0.25000
12730552;-0.25500
12733330;-0.25500
12736108;-0.28000
12738885;-0.27000
12741663;-0.26500
12744441;-0.26000
12747219;-0.25500
12749996;-0.26000
12752774;-0.27000
12755552;-0.26500
12758330;-0.27500
12761108;-0.26000
12763885;-0.27000
12766663;-0.26500
12769441;-0.27500
12772219;-0.28000
12774996;-0.27000
12777774;-0.25500
12780552;-0.25500
12783330;-0.26000
12786108;-0.27000
12788885;-0.25500
12791663;-0.24000
12794441;-0.23500
12797219;-0.24000
12799996;-0.25500
12802774;-0.25500
12805552;-0.25000
12808330;-0.22000
12811108;-0.19500
12813885;-0.19000
12816663;-0.18500
12819441;-0.19500
12822219;-0.19000
12824996;-0.19000
12827774;-0.17000
12830552;-0.14500
12833330;-0.15500
12836108;-0.15000
12838885;-0.14000
12841663;-0.14000
12844441;-0.13000
12847219;-0.14000
12849996;-0.14000
12852774;-0.16500
12855552;-0.16000
12858330;-0.16500
12861108;-0.16000
12863885;-0.16500
12866663;-0.16000
12869441;-0.18000
12872219;-0.19000
12874996;-0.18500
12877774;-0.15500
12880552;-0.13500
12883330;-0.14000
12886108;-0.15500
12888885;-0.18000
12891663;-0.19500
12894441;-0.21500
12897219;-0.21500
12899996;-0.25000
12902774;-0.26000
12905552;-0.29000
12908330;-0.27500
12911107;-0.27000
12913885;-0.27500
12916663;-0.28500
12919441;-0.27500
12922219;-0.28500
12924996;-0.27500
12927774;-0.28000
12930552;-0.28000
12933330;-0.28500
12936107;-0.29500
12938885;-0.30000
12941663;-0.30000
12944441;-0.29000
12947219;-0.29500
12949996;-0.30000
12952774;-0.31500
12955552;-0.30500
12958330;-0.31000
12961107;-0.29500
12963885;-0.31500
12966663;-0.30500
12969441;-0.32500
12972219;-0.34500
12974996;-0.36000
12977774;-0.39000
12980552;-0.41000
12983330;-0.43500
12986107;-0.47500
12988885;-0.51500
12991663;-0.51500
12994441;-0.44000
12997219;-0.31500
12999996;-0.19500
13002774;-0.03500
13005552;0.20500
13008330;0.51500
13011107;0.76500
13013885;0.88500
13016663;0.87000
13019441;0.67000
13022219;0.30500
13024996;-0.08000
13027774;-0.35500
13030552;-0.46500
13033330;-0.47000
13036107;-0.41000
13038885;-0.36000
13041663;-0.34500
13044441;-0.33500
13047219;-0.34000
13049996;-0.35000
13052774;-0.35000
13055552;-0.35500
13058330;-0.34000
13061107;-0.33500
13063885;-0.33500
13066663;-0.34500
13069441;-0.35000
13072219;-0.36000
13074996;-0.33500
13077774;-0.33000
13080552;-0.31500
13083330;-0.34500
13086107;-0.34500
13088885;-0.34500
13091663;-0.35000
13094441;-0.33500
13097219;-0.33500
13099996;-0.35500
13102774;-0.35500
13105552;-0.35000
13108330;-0.34500
13111107;-0.33500
13113885;-0.33500
13116663;-0.34000
13119441;-0.34500
13122219;-0.34000
13124996;-0.33000
13127774;-0.32500
13130552;-0.33000
13133330;-0.33500
13136107;-0.35500
13138885;-0.35500
13141663;-0.35000
13144441;-0.34000
13147219;-0.33000
13149996;-0.34000
13152774;-0.35000
13155552;-0.35000
13158330;-0.34500
13161107;-0.33000
13163885;-0.33500
13166663;-0.34000
13169441;-0.34500
13172219;-0.34000
13174996;-0.34000
13177774;-0.33000
13180552;-0.33000
13183330;-0.34000
13186107;-0.33500
13188885;-0.32500
13191663;-0.32500
13194441;-0.31000
13197219;-0.32500
13199996;-0.32000
13202774;-0.33000
13205552;-0.34000
13208330;-0.33000
13211107;-0.30500
13213885;-0.31500
13216663;-0.31500
13219441;-0.33500
13222219;-0.34000
13224996;-0.33000
13227774;-0.32000
13230552;-0.32000
13233330;-0.33000
13236107;-0.34500
13238885;-0.34000
13241663;-0.33000
13244441;-0.32000
13247219;-0.33000
13249996;-0.32500
13252774;-0.34000
13255552;-0.36000
13258330;-0.34000
13261107;-0.32000
13263885;-0.33500
13266663;-0.35500
13269441;-0.35500
13272219;-0.35500
13274996;-0.33500
13277774;-0.33000
13280552;-0.32000
13283330;-0.32000
13286107;-0.32500
13288885;-0.31000
13291663;-0.30500
13294441;-0.28500
13297218;-0.28500
13299996;-0.28000
13302774;-0.28500
13305552;-0.28000
13308330;-0.27000
13311107;-0.25500
13313885;-0.25000
13316663;-0.25000
13319441;-0.25500
13322218;-0.26000
13324996;-0.24000
13327774;-0.23000
13330552;-0.22500
13333330;-0.23500
13336107;-0.24000
13338885;-0.23500
13341663;-0.23500
13344441;-0.22000
13347218;-0.22000
13349996;-0.24000
13352774;-0.25000
13355552;-0.24000
13358330;-0.24500
13361107;-0.23500
13363885;-0.23500
13366663;-0.24000
13369441;-0.25500
13372218;-0.24000
13374996;-0.25000
13377774;-0.23500
13380552;-0.23500
13383330;-0.23500
13386107;-0.24000
13388885;-0.24500
13391663;-0.24500
13394441;-0.22500
13397218;-0.23500
13399996;-0.23500
13402774;-0.25500
13405552;-0.25000
13408330;-0.25000
13411107;-0.24000
13413885;-0.25000
13416663;-0.25000
13419441;-0.26000
13422218;-0.25500
13424996;-0.25000
13427774;-0.24000
13430552;-0.25500
13433330;-0.26500
13436107;-0.27000
13438885;-0.26500
13441663;-0.25500
13444441;-0.24500
13447218;-0.25000
13449996;-0.26000
13452774;-0.28000
13455552;-0.26500
13458330;-0.26000
13461107;-0.25500
13463885;-0.26000
13466663;-0.27500
13469441;-0.27500
13472218;-0.27500
13474996;-0.28500
13477774;-0.27000
13480552;-0.27500
13483330;-0.28000
13486107;-0.29000
13488885;-0.28500
13491663;-0.28000
13494441;-0.28000
13497218;-0.27500
13499996;-0.28500
13502774;-0.29500
13505552;-0.30000
13508330;-0.27000
13511107;-0.27500
13513885;-0.28000
13516663;-0.29000
13519441;-0.28000
13522218;-0.29000
13524996;-0.28000
13527774;-0.27000
13530552;-0.28000
13533330;-0.28500
13536107;-0.30000
13538885;-0.31000
13541663;-0.30000
13544441;-0.28500
13547218;-0.29000
13549996;-0.29000
13552774;-0.30000
13555552;-0.30500
13558330;-0.29000
13561107;-0.29000
13563885;-0.28000
13566663;-0.29000
13569441;-0.29000
13572218;-0.27500
13574996;-0.25500
13577774;-0.24500
13580552;-0.24500
13583330;-0.25000
13586107;-0.24500
13588885;-0.23500
13591663;-0.21500
13594441;-0.20000
13597218;-0.19500
13599996;-0.20000
13602774;-0.21500
13605552;-0.21000
13608330;-0.20500
13611107;-0.19000
13613885;-0.19500
13616663;-0.20000
13619441;-0.19000
13622218;-0.18500
13624996;-0.17500
13627774;-0.16000
13630552;-0.15000
13633330;-0.17000
13636107;-0.17500
13638885;-0.18000
13641663;-0.18000
13644441;-0.16500
13647218;-0.16500
13649996;-0.17000
13652774;-0.19000
13655552;-0.21500
13658330;-0.20000
13661107;-0.18000
13663885;-0.15000
13666663;-0.15500
13669441;-0.19500
13672218;-0.23500
13674996;-0.25000
13677774;-0.25500
13680552;-0.25500
13683330;-0.28500
13686107;-0.28500
13688885;-0.29000
13691663;-0.30500
13694441;-0.28500
13697218;-0.30000
13699996;-0.30500
13702774;-0.31500
13705552;-0.31000
13708329;-0.31000
13711107;-0.30000
13713885;-0.31500
13716663;-0.31000
13719441;-0.32000
13722218;-0.32000
13724996;-0.31000
13727774;-0.31000
13730552;-0.30500
13733329;-0.31500
13736107;-0.32500
13738885;-0.33500
13741663;-0.32500
13744441;-0.31000
13747218;-0.32000
13749996;-0.33500
13752774;-0.35500
13755552;-0.39500
13758329;-0.42500
13761107;-0.44500
13763885;-0.46500
13766663;-0.50500
13769441;-0.56000
13772218;-0.56500
13774996;-0.48000
13777774;-0.36000
13780552;-0.26000
13783329;-0.15000
13786107;0.01500
13788885;0.27000
13791663;0.53500
13794441;0.72000
13797218;0.83000
13799996;0.91000
13802774;0.94000
13805552;0.84500
13808329;0.61500
13811107;0.26500
13813885;-0.09000
13816663;-0.34500
13819441;-0.48000
13822218;-0.52500
13824996;-0.49000
13827774;-0.41000
13830552;-0.38000
13833329;-0.38500
13836107;-0.41500
13838885;-0.42000
13841663;-0.40000
13844441;-0.39000
13847218;-0.38500
13849996;-0.38000
13852774;-0.39000
13855552;-0.39500
13858329;-0.38500
13861107;-0.37000
13863885;-0.38500
13866663;-0.39500
13869441;-0.39500
13872218;-0.38500
13874996;-0.37500
13877774;-0.36500
13880552;-0.37000
13883329;-0.37500
13886107;-0.39500
13888885;-0.38500
13891663;-0.36500
13894441;-0.36000
13897218;-0.37000
13899996;-0.38500
13902774;-0.39000
13905552;-0.40500
13908329;-0.39500
13911107;-0.38000
13913885;-0.38500
13916663;-0.39500
13919441;-0.40500
13922218;-0.41000
13924996;-0.40000
13927774;-0.40500
13930552;-0.40500
13933329;-0.40500
13936107;-0.42000
13938885;-0.41500
13941663;-0.40500
13944441;-0.38000
13947218;-0.38000
13949996;-0.38500
13952774;-0.39000
13955552;-0.39000
13958329;-0.37000
13961107;-0.35500
13963885;-0.36000
13966663;-0.38500
13969441;-0.39000
13972218;-0.39500
13974996;-0.40000
13977774;-0.39000
13980552;-0.37500
13983329;-0.37500
13986107;-0.38500
13988885;-0.39500
13991663;-0.38000
13994441;-0.38500
13997218;-0.39000
13999996;-0.38500
14002774;-0.39500
14005552;-0.39000
14008329;-0.38000
14011107;-0.38000
14013885;-0.37500
14016663;-0.38500
14019441;-0.39000
14022218;-0.40000
14024996;-0.39000
14027774;-0.39000
14030552;-0.39500
14033329;-0.40000
14036107;-0.41000
14038885;-0.41000
14041663;-0.41000
14044441;-0.39000
14047218;-0.41000
14049996;-0.42000
14052774;-0.42500
14055552;-0.41500
14058329;-0.42000
14061107;-0.41500
14063885;-0.42000
14066663;-0.42500
14069441;-0.42500
14072218;-0.41500
14074996;-0.39500
14077774;-0.38000
14080552;-0.37500
14083329;-0.38000
14086107;-0.37500
14088885;-0.37000
14091663;-0.34500
14094440;-0.32000
14097218;-0.32000
14099996;-0.33500
14102774;-0.34500
14105552;-0.33500
14108329;-0.31000
14111107;-0.29500
14113885;-0.30500
14116663;-0.30500
14119440;-0.30500
14122218;-0.30000
14124996;-0.30500
14127774;-0.29000
14130552;-0.31000
14133329;-0.30500
14136107;-0.31500
14138885;-0.32500
14141663;-0.31000
14144440;-0.30000
14147218;-0.30500
14149996;-0.29500
14152774;-0.30500
14155552;-0.30500
14158329;-0.30500
14161107;-0.29000
14163885;-0.29500
14166663;-0.31000
14169440;-0.32000
14172218;-0.31500
14174996;-0.30000
14177774;-0.31000
14180552;-0.32000
14183329;-0.33500
14186107;-0.33500
14188885;-0.34500
14191663;-0.32500
14194440;-0.31000
14197218;-0.32500
14199996;-0.33500
14202774;-0.34500
14205552;-0.36500
14208329;-0.36000
14211107;-0.34000
14213885;-0.34000
14216663;-0.34000
14219440;-0.33500
14222218;-0.34000
14224996;-0.33000
14227774;-0.33500
14230552;-0.33500
14233329;-0.34000
14236107;-0.35000
14238885;-0.37000
14241663;-0.35000
14244440;-0.35000
14247218;-0.35500
14249996;-0.35500
14252774;-0.36500
14255552;-0.36500
14258329;-0.37500
14261107;-0.36000
14263885;-0.36500
14266663;-0.37500
14269440;-0.36000
14272218;-0.36500
14274996;-0.36500
14277774;-0.36000
14280552;-0.37000
14283329;-0.38500
14286107;-0.37000
14288885;-0.36000
14291663;-0.35500
14294440;-0.34000
14297218;-0.34500
14299996;-0.34500
14302774;-0.36000
14305552;-0.36500
14308329;-0.37000
14311107;-0.35500
14313885;-0.36500
14316663;-0.37000
14319440;-0.37500
14322218;-0.38500
14324996;-0.37000
14327774;-0.36000
14330552;-0.36500
14333329;-0.36500
14336107;-0.37000
14338885;-0.37000
14341663;-0.36000
14344440;-0.34500
14347218;-0.35500
14349996;-0.35000
14352774;-0.36500
14355552;-0.35500
14358329;-0.35000
14361107;-0.33500
14363885;-0.34000
14366663;-0.32000
14369440;-0.32500
14372218;-0.32500
14374996;-0.30000
14377774;-0.28500
14380552;-0.30000
14383329;-0.30500
14386107;-0.30500
14388885;-0.29000
14391663;-0.28000
14394440;-0.25500
14397218;-0.25500
14399996;-0.26000
14402774;-0.26500
14405552;-0.26000
14408329;-0.25000
14411107;-0.25000
14413885;-0.26500
14416663;-0.28000
14419440;-0.28500
14422218;-0.29000
14424996;-0.28000
14427774;-0.29000
14430552;-0.29000
14433329;-0.31500
14436107;-0.30500
14438885;-0.28500
14441663;-0.28500
14444440;-0.29500
14447218;-0.32000
14449996;-0.33500
14452774;-0.35500
14455552;-0.39000
14458329;-0.40500
14461107;-0.39000
14463885;-0.39000
14466663;-0.39500
14469440;-0.40500
14472218;-0.40500
14474996;-0.40000
14477774;-0.38500
14480552;-0.40500
14483329;-0.41500
14486107;-0.42000
14488885;-0.41000
14491663;-0.41000
14494440;-0.40000
14497218;-0.40000
14499996;-0.41500
14502774;-0.40500
14505551;-0.41500
14508329;-0.40500
14511107;-0.39500
14513885;-0.41000
14516663;-0.41500
14519440;-0.42500
14522218;-0.44500
14524996;-0.48000
14527774;-0.50000
14530551;-0.55500
14533329;-0.54500
14536107;-0.57500
14538885;-0.63500
14541663;-0.66500
14544440;-0.67000
14547218;-0.64500
14549996;-0.61000
14552774;-0.55500
14555551;-0.45500
14558329;-0.35000
14561107;-0.23000
14563885;-0.03500
14566663;0.22500
14569440;0.49000
14572218;0.70000
14574996;0.81000
14577774;0.76500
14580551;0.49000
14583329;0.09500
14586107;-0.27000
14588885;-0.51500
14591663;-0.59000
14594440;-0.56000
14597218;-0.52000
14599996;-0.48500
14602774;-0.48500
14605551;-0.48500
14608329;-0.47500
14611107;-0.46500
14613885;-0.47000
14616663;-0.46000
14619440;-0.47500
14622218;-0.47500
14624996;-0.47000
14627774;-0.45500
14630551;-0.46500
14633329;-0.47000
14636107;-0.47000
14638885;-0.47000
14641663;-0.45000
14644440;-0.45500
14647218;-0.43500
14649996;-0.44500
14652774;-0.45000
14655551;-0.46500
14658329;-0.45500
14661107;-0.44500
14663885;-0.45000
14666663;-0.46000
14669440;-0.45500
14672218;-0.47000
14674996;-0.46000
14677774;-0.45500
14680551;-0.45500
14683329;-0.46000
14686107;-0.47000
14688885;-0.46500
14691663;-0.47000
14694440;-0.45500
14697218;-0.45500
14699996;-0.46000
14702774;-0.46500
14705551;-0.47000
14708329;-0.46000
14711107;-0.45000
14713885;-0.45000
14716663;-0.45000
14719440;-0.45000
14722218;-0.45000
14724996;-0.43500
14727774;-0.43000
14730551;-0.43500
14733329;-0.43000
14736107;-0.45000
14738885;-0.46000
14741663;-0.44500
14744440;-0.44500
14747218;-0.44500
14749996;-0.44000
14752774;-0.44500
14755551;-0.45500
14758329;-0.45500
14761107;-0.44000
14763885;-0.45000
14766663;-0.45000
14769440;-0.45500
14772218;-0.46000
14774996;-0.44500
14777774;-0.44000
14780551;-0.44000
14783329;-0.44500
14786107;-0.45000
14788885;-0.45000
14791663;-0.44000
14794440;-0.44500
14797218;-0.45000
14799996;-0.46500
14802774;-0.45500
14805551;-0.46500
14808329;-0.46000
14811107;-0.45500
14813885;-0.47000
14816663;-0.47500
14819440;-0.46500
14822218;-0.48500
14824996;-0.47500
14827774;-0.48000
14830551;-0.50000
14833329;-0.49000
14836107;-0.51000
14838885;-0.50500
14841663;-0.49500
14844440;-0.48500
14847218;-0.49500
14849996;-0.50500
14852774;-0.50000
14855551;-0.50000
14858329;-0.47000
14861107;-0.45500
14863885;-0.44000
14866663;-0.43000
14869440;-0.43000
14872218;-0.41500
14874996;-0.39500
14877774;-0.37500
14880551;-0.36000
14883329;-0.36500
14886107;-0.36500
14888885;-0.35000
14891662;-0.34000
14894440;-0.33000
14897218;-0.33000
14899996;-0.32500
14902774;-0.32500
14905551;-0.33000
14908329;-0.32000
14911107;-0.31000
14913885;-0.31500
14916662;-0.32000
14919440;-0.33000
14922218;-0.33000
14924996;-0.32000
14927774;-0.31500
14930551;-0.32000
14933329;-0.32500
14936107;-0.33000
14938885;-0.31500
14941662;-0.30500
14944440;-0.30000
14947218;-0.30000
14949996;-0.30000
14952774;-0.31000
14955551;-0.30500
14958329;-0.30000
14961107;-0.29000
14963885;-0.30000
14966662;-0.30500
14969440;-0.31000
14972218;-0.32000
14974996;-0.31000
14977774;-0.30000
14980551;-0.31000
14983329;-0.31500
14986107;-0.32000
14988885;-0.32000
14991662;-0.31000
14994440;-0.30000
14997218;-0.31000
14999996;-0.31000
15002774;-0.33000
15005551;-0.33000
15008329;-0.31500
15011107;-0.30500
15013885;-0.31500
15016662;-0.32500
15019440;-0.33000
15022218;-0.32500
15024996;-0.32000
15027774;-0.31500
15030551;-0.31000
15033329;-0.31500
15036107;-0.31500
15038885;-0.32500
15041662;-0.32000
15044440;-0.30500
15047218;-0.30500
15049996;-0.32500
15052774;-0.32500
15055551;-0.33000
15058329;-0.31500
15061107;-0.31500
15063885;-0.32000
15066662;-0.32000
15069440;-0.33500
15072218;-0.33500
15074996;-0.32500
15077774;-0.31000
15080551;-0.33000
15083329;-0.33500
15086107;-0.33500
15088885;-0.33500
15091662;-0.32000
15094440;-0.32000
15097218;-0.31500
15099996;-0.33000
15102774;-0.33500
15105551;-0.32000
15108329;-0.32000
15111107;-0.30500
15113885;-0.31000
15116662;-0.31000
15119440;-0.33000
15122218;-0.33000
15124996;-0.32000
15127774;-0.31500
15130551;-0.30500
15133329;-0.32000
15136107;-0.31500
15138885;-0.33500
15141662;-0.31500
15144440;-0.31500
15147218;-0.31000
15149996;-0.31000
15152774;-0.31500
15155551;-0.31500
15158329;-0.30500
15161107;-0.31000
15163885;-0.30000
15166662;-0.31000
15169440;-0.32000
15172218;-0.32000
15174996;-0.30500
15177774;-0.30000
15180551;-0.29000
15183329;-0.31000
15186107;-0.30000
15188885;-0.28500
15191662;-0.26500
15194440;-0.24000
15197218;-0.21500
15199996;-0.22500
15202774;-0.24000
15205551;-0.23000
15208329;-0.22500
15211107;-0.21500
15213885;-0.20500
15216662;-0.20000
15219440;-0.20500
15222218;-0.20000
15224996;-0.18000
15227774;-0.18500
15230551;-0.18000
15233329;-0.19000
15236107;-0.20500
15238885;-0.20500
15241662;-0.21000
15244440;-0.19000
15247218;-0.20000
15249996;-0.20000
15252774;-0.21500
15255551;-0.22500
15258329;-0.21000
15261107;-0.18000
15263885;-0.17000
15266662;-0.16500
15269440;-0.20000
15272218;-0.22500
15274996;-0.23000
15277774;-0.24000
15280551;-0.26000
15283329;-0.28000
15286107;-0.31000
15288885;-0.31000
15291662;-0.31000
15294440;-0.30000
15297218;-0.31500
15299996;-0.31000
15302773;-0.31500
15305551;-0.31500
15308329;-0.32500
15311107;-0.30500
15313885;-0.32000
15316662;-0.34000
15319440;-0.33500
15322218;-0.32500
15324996;-0.31000
15327773;-0.30500
15330551;-0.31000
15333329;-0.32000
15336107;-0.32500
15338885;-0.33000
15341662;-0.32000
15344440;-0.31000
15347218;-0.31000
15349996;-0.32000
15352773;-0.32500
15355551;-0.32500
15358329;-0.31500
15361107;-0.32500
15363885;-0.33000
15366662;-0.32500
15369440;-0.35000
15372218;-0.38000
15374996;-0.41000
15377773;-0.42500
15380551;-0.44500
15383329;-0.47500
15386107;-0.51000
15388885;-0.54500
15391662;-0.52000
15394440;-0.44000
15397218;-0.34500
15399996;-0.21000
15402773;-0.08000
15405551;0.13000
15408329;0.40000
15411107;0.65500
15413885;0.83500
15416662;0.89500
15419440;0.84500
15422218;0.62500
15424996;0.29000
15427773;-0.07500
15430551;-0.37500
15433329;-0.50000
15436107;-0.51500
15438885;-0.47000
15441662;-0.40500
15444440;-0.38000
15447218;-0.37500
15449996;-0.38500
15452773;-0.38000
15455551;-0.39000
15458329;-0.37000
15461107;-0.35500
15463885;-0.35500
15466662;-0.38500
15469440;-0.39000
15472218;-0.38000
15474996;-0.37000
15477773;-0.36000
15480551;-0.36000
15483329;-0.36000
15486107;-0.37000
15488885;-0.36000
15491662;-0.35000
15494440;-0.35000
15497218;-0.34000
15499996;-0.35000
15502773;-0.36000
15505551;-0.37000
15508329;-0.35500
15511107;-0.35000
15513885;-0.35500
15516662;-0.36000
15519440;-0.37500
15522218;-0.38000
15524996;-0.36500
15527773;-0.35500
15530551;-0.36000
15533329;-0.37000
15536107;-0.38000
15538885;-0.37500
15541662;-0.36500
15544440;-0.35500
15547218;-0.35000
15549996;-0.37000
15552773;-0.37000
15555551;-0.38000
15558329;-0.36000
15561107;-0.35500
15563885;-0.34500
15566662;-0.35000
15569440;-0.36000
15572218;-0.36500
15574996;-0.34500
15577773;-0.34500
15580551;-0.34500
15583329;-0.35000
15586107;-0.36000
15588885;-0.36000
15591662;-0.34000
15594440;-0.35000
15597218;-0.35000
15599996;-0.36500
15602773;-0.36500
15605551;-0.37000
15608329;-0.35500
15611107;-0.34500
15613885;-0.35500
15616662;-0.36000
15619440;-0.36500
15622218;-0.37000
15624996;-0.36000
15627773;-0.35000
15630551;-0.35000
15633329;-0.35500
15636107;-0.36500
15638885;-0.36500
15641662;-0.36000
15644440;-0.35000
15647218;-0.34000
15649996;-0.34500
15652773;-0.36500
15655551;-0.36500
15658329;-0.35000
15661107;-0.35000
15663885;-0.34500
15666662;-0.35500
15669440;-0.36500
15672218;-0.36500
15674996;-0.35500
15677773;-0.35000
15680551;-0.35000
15683329;-0.36500
15686107;-0.37500
15688884;-0.38000
15691662;-0.36500
15694440;-0.36500
15697218;-0.37000
15699996;-0.38000
15702773;-0.38500
15705551;-0.38500
15708329;-0.37000
15711107;-0.37000
15713884;-0.36000
15716662;-0.35500
15719440;-0.35500
15722218;-0.36000
15724996;-0.34500
15727773;-0.32500
15730551;-0.32000
15733329;-0.31000
15736107;-0.30500
15738884;-0.29500
15741662;-0.29000
15744440;-0.27000
15747218;-0.26000
15749996;-0.26000
15752773;-0.26500
15755551;-0.26500
15758329;-0.26000
15761107;-0.24500
15763884;-0.25000
15766662;-0.24500
15769440;-0.25500
15772218;-0.26000
15774996;-0.24500
15777773;-0.25000
15780551;-0.24500
15783329;-0.24500
15786107;-0.25500
15788884;-0.26500
15791662;-0.25000
15794440;-0.25000
15797218;-0.24500
15799996;-0.25000
15802773;-0.25000
15805551;-0.25500
15808329;-0.25500
15811107;-0.24000
15813884;-0.24500
15816662;-0.25000
15819440;-0.26000
15822218;-0.26000
15824996;-0.25000
15827773;-0.24000
15830551;-0.24500
15833329;-0.25000
15836107;-0.26000
15838884;-0.25500
15841662;-0.25500
15844440;-0.24500
15847218;-0.25000
15849996;-0.26000
15852773;-0.27000
15855551;-0.27500
15858329;-0.28000
15861107;-0.26000
15863884;-0.27500
15866662;-0.27000
15869440;-0.27000
15872218;-0.27000
15874996;-0.27000
15877773;-0.27000
15880551;-0.27500
15883329;-0.27000
15886107;-0.29000
15888884;-0.29000
15891662;-0.27500
15894440;-0.27000
15897218;-0.28000
15899996;-0.28500
15902773;-0.29500
15905551;-0.28000
15908329;-0.28000
15911107;-0.27500
15913884;-0.27000
15916662;-0.28500
15919440;-0.29500
15922218;-0.29000
15924996;-0.27500
15927773;-0.27500
15930551;-0.28500
15933329;-0.29000
15936107;-0.29500
15938884;-0.29500
15941662;-0.28000
15944440;-0.28500
15947218;-0.28500
15949996;-0.29000
15952773;-0.29000
15955551;-0.30000
15958329;-0.28500
15961107;-0.28000
15963884;-0.28500
15966662;-0.28500
15969440;-0.30000
15972218;-0.30500
15974996;-0.28500
15977773;-0.27500
15980551;-0.28000
15983329;-0.29000
15986107;-0.29500
15988884;-0.29500
15991662;-0.28000
15994440;-0.26000
15997218;-0.27000
15999996;-0.27500
16002773;-0.27500
16005551;-0.28500
16008329;-0.28000
16011107;-0.27000
16013884;-0.28000
16016662;-0.28500
16019440;-0.29000
16022218;-0.29000
16024996;-0.27500
16027773;-0.26000
16030551;-0.25500
16033329;-0.26000
16036107;-0.24500
16038884;-0.24000
16041662;-0.23000
16044440;-0.21000
16047218;-0.21000
16049996;-0.20000
16052773;-0.20000
16055551;-0.19500
16058329;-0.18000
16061107;-0.16000
16063884;-0.16000
16066662;-0.15000
16069440;-0.15000
16072218;-0.16500
16074995;-0.16000
16077773;-0.15500
16080551;-0.16500
16083329;-0.17500
16086107;-0.19000
16088884;-0.20500
16091662;-0.18000
16094440;-0.17500
16097218;-0.19500
16099995;-0.21000
16102773;-0.21000
16105551;-0.18000
16108329;-0.16000
16111107;-0.14000
16113884;-0.13000
16116662;-0.15000
16119440;-0.19000
16122218;-0.20000
16124995;-0.20500
16127773;-0.22000
16130551;-0.22000
16133329;-0.22500
16136107;-0.24500
16138884;-0.26000
16141662;-0.28000
16144440;-0.26500
16147218;-0.27000
16149995;-0.29000
16152773;-0.30000
16155551;-0.30000
16158329;-0.29000
16161107;-0.28500
16163884;-0.28500
16166662;-0.30500
16169440;-0.31000
16172218;-0.32000
16174995;-0.31500
16177773;-0.31000
16180551;-0.31000
16183329;-0.31500
16186107;-0.32500
16188884;-0.32000
16191662;-0.31500
16194440;-0.30000
16197218;-0.30500
16199995;-0.31500
16202773;-0.32000
16205551;-0.34000
16208329;-0.31500
16211107;-0.31500
16213884;-0.32500
16216662;-0.34500
16219440;-0.39000
16222218;-0.42000
16224995;-0.42000
16227773;-0.41000
16230551;-0.44000
16233329;-0.49000
16236107;-0.52500
16238884;-0.50500
16241662;-0.41000
16244440;-0.28500
16247218;-0.17000
16249995;-0.02000
16252773;0.19500
16255551;0.45500
16258329;0.70500
16261107;0.84000
16263884;0.85500
16266662;0.73000
16269440;0.44500
16272218;0.07000
16274995;-0.24500
16277773;-0.44000
16280551;-0.50000
16283329;-0.47500
16286107;-0.43000
16288884;-0.39000
16291662;-0.37000
16294440;-0.35000
16297218;-0.34000
16299995;-0.35500
16302773;-0.35000
16305551;-0.35000
16308329;-0.35000
16311107;-0.35000
16313884;-0.34000
16316662;-0.35500
16319440;-0.36500
16322218;-0.36500
16324995;-0.36500
16327773;-0.35500
16330551;-0.36000
16333329;-0.37000
16336107;-0.37500
16338884;-0.38500
16341662;-0.38000
16344440;-0.35500
16347218;-0.36500
16349995;-0.36000
16352773;-0.37500
16355551;-0.38500
16358329;-0.38000
16361107;-0.36000
16363884;-0.36500
16366662;-0.36500
16369440;-0.37500
16372218;-0.36000
16374995;-0.35500
16377773;-0.34000
16380551;-0.33500
16383329;-0.35000
16386107;-0.37000
16388884;-0.37000
16391662;-0.37000
16394440;-0.35000
16397218;-0.35500
16399995;-0.36500
16402773;-0.39000
16405551;-0.38500
16408329;-0.37500
16411107;-0.36000
16413884;-0.35500
16416662;-0.36000
16419440;-0.37500
16422218;-0.37500
16424995;-0.36000
16427773;-0.35500
16430551;-0.36000
16433329;-0.36000
16436107;-0.37000
16438884;-0.37000
16441662;-0.36000
16444440;-0.35000
16447218;-0.34000
16449995;-0.34500
16452773;-0.35000
16455551;-0.36000
16458329;-0.35000
16461107;-0.34500
16463884;-0.34500
16466662;-0.34500
16469440;-0.35000
16472218;-0.34500
16474995;-0.34000
16477773;-0.32000
16480551;-0.33500
16483329;-0.33500
16486106;-0.34500
16488884;-0.36000
16491662;-0.35500
16494440;-0.35000
16497218;-0.35000
16499995;-0.35500
16502773;-0.35500
16505551;-0.37500
16508329;-0.36000
16511106;-0.35500
16513884;-0.37500
16516662;-0.38000
16519440;-0.39500
16522218;-0.39500
16524995;-0.38500
16527773;-0.37500
16530551;-0.37000
16533329;-0.36500
16536106;-0.37500
16538884;-0.39000
16541662;-0.37500
16544440;-0.37000
16547218;-0.36000
16549995;-0.37000
16552773;-0.37000
16555551;-0.37500
16558329;-0.36500
16561106;-0.35500
16563884;-0.35000
16566662;-0.35500
16569440;-0.36000
16572218;-0.34000
16574995;-0.33500
16577773;-0.32500
16580551;-0.32000
16583329;-0.32000
16586106;-0.31500
16588884;-0.31000
16591662;-0.29000
16594440;-0.28500
16597218;-0.29000
16599995;-0.28000
16602773;-0.28500
16605551;-0.27500
16608329;-0.26500
16611106;-0.25000
16613884;-0.25000
16616662;-0.26500
16619440;-0.27500
16622218;-0.28000
16624995;-0.27000
16627773;-0.26500
16630551;-0.26500
16633329;-0.27500
16636106;-0.27500
16638884;-0.27500
16641662;-0.28000
16644440;-0.27000
16647218;-0.26500
16649995;-0.27500
16652773;-0.28500
16655551;-0.29500
16658329;-0.29000
16661106;-0.28000
16663884;-0.26500
16666662;-0.29000
16669440;-0.29000
16672218;-0.28500
16674995;-0.27500
16677773;-0.26500
16680551;-0.26500
16683329;-0.28000
16686106;-0.29000
16688884;-0.28500
16691662;-0.27500
16694440;-0.27500
16697218;-0.28000
16699995;-0.29000
16702773;-0.30500
16705551;-0.31000
16708329;-0.30500
16711106;-0.29500
16713884;-0.30000
16716662;-0.31500
16719440;-0.31000
16722218;-0.31500
16724995;-0.31500
16727773;-0.29500
16730551;-0.29000
16733329;-0.29000
16736106;-0.30500
16738884;-0.31000
16741662;-0.30000
16744440;-0.29500
16747218;-0.29500
16749995;-0.29500
16752773;-0.29500
16755551;-0.31500
16758329;-0.31500
16761106;-0.31000
16763884;-0.30000
16766662;-0.30500
16769440;-0.32000
16772218;-0.33500
16774995;-0.31500
16777773;-0.31000
16780551;-0.32000
16783329;-0.33000
16786106;-0.33500
16788884;-0.34500
16791662;-0.32500
16794440;-0.31000
16797218;-0.31500
16799995;-0.31500
16802773;-0.33000
16805551;-0.33500
16808329;-0.33500
16811106;-0.32500
16813884;-0.32500
16816662;-0.33500
16819440;-0.34000
16822218;-0.33500
16824995;-0.31500
16827773;-0.31000
16830551;-0.32000
16833329;-0.31500
16836106;-0.33000
16838884;-0.32000
16841662;-0.32500
16844440;-0.31500
16847218;-0.31500
16849995;-0.32000
16852773;-0.32500
16855551;-0.32500
16858329;-0.32500
16861106;-0.31500
16863884;-0.30000
16866662;-0.29500
16869440;-0.29500
16872217;-0.29500
16874995;-0.28500
16877773;-0.27000
16880551;-0.25000
16883329;-0.25000
16886106;-0.25500
16888884;-0.24500
16891662;-0.22500
16894440;-0.20500
16897217;-0.19500
16899995;-0.20000
16902773;-0.21000
16905551;-0.22000
16908329;-0.21500
16911106;-0.20000
16913884;-0.20500
16916662;-0.21000
16919440;-0.23000
16922217;-0.24000
16924995;-0.24500
16927773;-0.24000
16930551;-0.25500
16933329;-0.26000
16936106;-0.25000
16938884;-0.24000
16941662;-0.22500
16944440;-0.22500
16947217;-0.27000
16949995;-0.28000
16952773;-0.30000
16955551;-0.32500
16958329;-0.32500
16961106;-0.32500
16963884;-0.33000
16966662;-0.33500
16969440;-0.35000
16972217;-0.35500
16974995;-0.34000
16977773;-0.33500
16980551;-0.34000
16983329;-0.34500
16986106;-0.36000
16988884;-0.37000
16991662;-0.37000
16994440;-0.35500
16997217;-0.35000
16999995;-0.37500
17002773;-0.37000
17005551;-0.36500
17008329;-0.36500
17011106;-0.35000
17013884;-0.34000
17016662;-0.36500
17019440;-0.37000
17022217;-0.38000
17024995;-0.37000
17027773;-0.37000
17030551;-0.38000
17033329;-0.38500
17036106;-0.41500
17038884;-0.45000
17041662;-0.46500
17044440;-0.46500
17047217;-0.48000
17049995;-0.52500
17052773;-0.57000
17055551;-0.56500
17058329;-0.46500
17061106;-0.34500
17063884;-0.20500
17066662;-0.01500
17069440;0.24000
17072217;0.50500
17074995;0.73500
17077773;0.83500
17080551;0.78500
17083329;0.56000
17086106;0.19500
17088884;-0.17500
17091662;-0.43000
17094440;-0.53500
17097217;-0.54500
17099995;-0.50500
17102773;-0.47000
17105551;-0.44500
17108329;-0.43500
17111106;-0.42000
17113884;-0.42000
17116662;-0.40000
17119440;-0.41000
17122217;-0.40500
17124995;-0.38500
17127773;-0.38000
17130551;-0.39000
17133329;-0.41500
17136106;-0.42000
17138884;-0.41000
17141662;-0.42000
17144440;-0.41500
17147217;-0.41000
17149995;-0.41500
17152773;-0.42000
17155551;-0.42000
17158329;-0.42000
17161106;-0.41500
17163884;-0.41000
17166662;-0.41500
17169440;-0.41500
17172217;-0.44000
17174995;-0.43000
17177773;-0.41000
17180551;-0.42000
17183329;-0.42000
17186106;-0.43000
17188884;-0.43500
17191662;-0.43500
17194440;-0.43000
17197217;-0.41500
17199995;-0.41500
17202773;-0.42500
17205551;-0.42000
17208329;-0.42000
17211106;-0.41000
17213884;-0.41000
17216662;-0.41500
17219440;-0.43000
17222217;-0.43500
17224995;-0.43000
17227773;-0.42500
17230551;-0.41500
17233329;-0.42000
17236106;-0.43500
17238884;-0.44500
17241662;-0.43500
17244440;-0.43000
17247217;-0.41000
17249995;-0.41000
17252773;-0.41500
17255551;-0.41000
17258329;-0.40000
17261106;-0.40000
17263884;-0.39000
17266662;-0.40500
17269440;-0.41000
17272217;-0.40500
17274995;-0.40500
17277773;-0.40000
17280551;-0.40500
17283328;-0.41500
17286106;-0.42000
17288884;-0.44500
17291662;-0.43000
17294440;-0.41500
17297217;-0.41000
17299995;-0.42000
17302773;-0.43000
17305551;-0.44000
17308328;-0.44500
17311106;-0.44500
17313884;-0.44500
17316662;-0.44500
17319440;-0.44500
17322217;-0.45500
17324995;-0.44000
17327773;-0.44000
17330551;-0.44500
17333328;-0.45000
17336106;-0.47000
17338884;-0.47500
17341662;-0.47000
17344440;-0.47000
17347217;-0.48500
17349995;-0.48000
17352773;-0.48000
17355551;-0.47500
17358328;-0.45000
17361106;-0.45500
17363884;-0.44000
17366662;-0.45500
17369440;-0.45000
17372217;-0.45000
17374995;-0.42500
17377773;-0.39000
17380551;-0.39500
17383328;-0.39000
17386106;-0.38500
17388884;-0.38000
17391662;-0.35500
17394440;-0.35000
17397217;-0.34500
17399995;-0.34000
17402773;-0.35000
17405551;-0.34000
17408328;-0.33000
17411106;-0.32500
17413884;-0.32500
17416662;-0.32500
17419440;-0.33500
17422217;-0.31500
17424995;-0.31000
17427773;-0.30000
17430551;-0.30000
17433328;-0.31000
17436106;-0.31500
17438884;-0.31000
17441662;-0.30000
17444440;-0.30000
17447217;-0.30500
17449995;-0.30500
17452773;-0.31500
17455551;-0.32500
17458328;-0.31000
17461106;-0.31000
17463884;-0.31000
17466662;-0.31000
17469440;-0.32500
17472217;-0.33500
17474995;-0.31500
17477773;-0.31500
17480551;-0.31500
17483328;-0.31500
17486106;-0.32500
17488884;-0.31500
17491662;-0.33000
17494440;-0.30500
17497217;-0.30500
17499995;-0.31000
17502773;-0.31000
17505551;-0.32000
17508328;-0.32500
17511106;-0.31500
17513884;-0.33000
17516662;-0.34000
17519440;-0.34500
17522217;-0.34500
17524995;-0.34000
17527773;-0.32000
17530551;-0.32000
17533328;-0.33000
17536106;-0.33500
17538884;-0.34500
17541662;-0.33500
17544440;-0.33500
17547217;-0.33500
17549995;-0.34500
17552773;-0.34500
17555551;-0.34000
17558328;-0.33000
17561106;-0.32500
17563884;-0.33000
17566662;-0.34000
17569440;-0.35000
17572217;-0.35500
17574995;-0.34500
17577773;-0.32500
17580551;-0.32500
17583328;-0.33000
17586106;-0.33500
17588884;-0.34000
17591662;-0.34000
17594440;-0.32500
17597217;-0.33000
17599995;-0.33500
17602773;-0.35000
17605551;-0.35000
17608328;-0.34000
17611106;-0.33500
17613884;-0.33000
17616662;-0.33500
17619440;-0.34500
17622217;-0.34500
17624995;-0.33500
17627773;-0.32500
17630551;-0.32000
17633328;-0.32500
17636106;-0.33500
17638884;-0.34000
17641662;-0.33000
17644440;-0.32000
17647217;-0.32500
17649995;-0.33500
17652773;-0.35500
17655551;-0.34000
17658328;-0.33000
17661106;-0.32500
17663884;-0.30500
17666662;-0.30000
17669439;-0.30500
17672217;-0.28500
17674995;-0.26500
17677773;-0.24000
17680551;-0.23500
17683328;-0.24500
17686106;-0.24000
17688884;-0.24000
17691662;-0.22500
17694439;-0.21000
17697217;-0.20000
17699995;-0.19500
17702773;-0.21000
17705551;-0.21500
17708328;-0.21000
17711106;-0.20000
17713884;-0.21000
17716662;-0.22000
17719439;-0.23500
17722217;-0.23500
17724995;-0.21500
17727773;-0.21000
17730551;-0.22000
17733328;-0.23000
17736106;-0.22000
17738884;-0.20000
17741662;-0.18500
17744439;-0.19500
17747217;-0.22500
17749995;-0.25500
17752773;-0.27000
17755551;-0.28500
17758328;-0.30500
17761106;-0.30500
17763884;-0.31000
17766662;-0.32000
17769439;-0.33000
17772217;-0.33500
17774995;-0.31500
17777773;-0.32000
17780551;-0.31500
17783328;-0.32000
17786106;-0.33000
17788884;-0.33500
17791662;-0.33000
17794439;-0.32500
17797217;-0.32000
17799995;-0.33500
17802773;-0.33500
17805551;-0.35000
17808328;-0.34000
17811106;-0.33000
17813884;-0.32500
17816662;-0.32500
17819439;-0.34000
17822217;-0.33500
17824995;-0.32500
17827773;-0.32500
17830551;-0.33000
17833328;-0.34500
17836106;-0.38500
17838884;-0.44000
17841662;-0.45500
17844439;-0.46500
17847217;-0.49000
17849995;-0.54500
17852773;-0.55000
17855551;-0.48000
17858328;-0.37000
17861106;-0.23500
17863884;-0.07500
17866662;0.17000
17869439;0.43500
17872217;0.68500
17874995;0.82000
17877773;0.80000
17880551;0.56500
17883328;0.18500
17886106;-0.20500
17888884;-0.46000
17891662;-0.53500
17894439;-0.51500
17897217;-0.44000
17899995;-0.39000
17902773;-0.38000
17905551;-0.40000
17908328;-0.39000
17911106;-0.37500
17913884;-0.36500
17916662;-0.36500
17919439;-0.38000
17922217;-0.38000
17924995;-0.37500
17927773;-0.36500
17930551;-0.36000
17933328;-0.37000
17936106;-0.38500
17938884;-0.38000
17941662;-0.37000
17944439;-0.36000
17947217;-0.35000
17949995;-0.35000
17952773;-0.36500
17955551;-0.36000
17958328;-0.36500
17961106;-0.34500
17963884;-0.34500
17966662;-0.35500
17969439;-0.36000
17972217;-0.37500
17974995;-0.36000
17977773;-0.35000
17980551;-0.35500
17983328;-0.36000
17986106;-0.36500
17988884;-0.36500
17991662;-0.37000
17994439;-0.35500
17997217;-0.35500
17999995;-0.36000
18002773;-0.37000
18005551;-0.37500
18008328;-0.36000
18011106;-0.34500
18013884;-0.35500
18016662;-0.36500
18019439;-0.37000
18022217;-0.36500
18024995;-0.35500
18027773;-0.34500
18030551;-0.34500
18033328;-0.34500
18036106;-0.35000
18038884;-0.35000
18041662;-0.35000
18044439;-0.33500
18047217;-0.33500
18049995;-0.34000
18052773;-0.34000
18055550;-0.34500
18058328;-0.35000
18061106;-0.34000
18063884;-0.34000
18066662;-0.35000
18069439;-0.34500
18072217;-0.34500
18074995;-0.35000
18077773;-0.34000
18080550;-0.33500
18083328;-0.35000
18086106;-0.35000
18088884;-0.35000
18091662;-0.34500
18094439;-0.33500
18097217;-0.33000
18099995;-0.34000
18102773;-0.35000
18105550;-0.36000
18108328;-0.36000
18111106;-0.36500
18113884;-0.36500
18116662;-0.34500
18119439;-0.36500
18122217;-0.37500
18124995;-0.37500
18127773;-0.37500
18130550;-0.38000
18133328;-0.37500
18136106;-0.39000
18138884;-0.39500
18141662;-0.39500
18144439;-0.37500
18147217;-0.36500
18149995;-0.36500
18152773;-0.38000
18155550;-0.37500
18158328;-0.35000
18161106;-0.34000
18163884;-0.32500
18166662;-0.32500
18169439;-0.31500
18172217;-0.31000
18174995;-0.28500
18177773;-0.27500
18180550;-0.27000
18183328;-0.27000
18186106;-0.27500
18188884;-0.27000
18191662;-0.26000
18194439;-0.24500
18197217;-0.23500
18199995;-0.25500
18202773;-0.26000
18205550;-0.26000
18208328;-0.25000
18211106;-0.23500
18213884;-0.23500
18216662;-0.24500
18219439;-0.24500
18222217;-0.24000
18224995;-0.23500
18227773;-0.23000
18230550;-0.23500
18233328;-0.23500
18236106;-0.23500
18238884;-0.24500
18241662;-0.23000
18244439;-0.22500
18247217;-0.22500
18249995;-0.22500
18252773;-0.24000
18255550;-0.23500
18258328;-0.22500
18261106;-0.24000
18263884;-0.24000
18266662;-0.23500
18269439;-0.25000
18272217;-0.25500
18274995;-0.24500
18277773;-0.24000
18280550;-0.23500
18283328;-0.24000
18286106;-0.25000
18288884;-0.25500
18291662;-0.25000
18294439;-0.24000
18297217;-0.23500
18299995;-0.24500
18302773;-0.25000
18305550;-0.25500
18308328;-0.25000
18311106;-0.23500
18313884;-0.24000
18316662;-0.24500
18319439;-0.25000
18322217;-0.25000
18324995;-0.24500
18327773;-0.24000
18330550;-0.24000
18333328;-0.25000
18336106;-0.25500
18338884;-0.26000
18341662;-0.26000
18344439;-0.26000
18347217;-0.25500
18349995;-0.26000
18352773;-0.28000
18355550;-0.27500
18358328;-0.26500
18361106;-0.25500
18363884;-0.26500
18366662;-0.26500
18369439;-0.27500
18372217;-0.27000
18374995;-0.26500
18377773;-0.25000
18380550;-0.25000
18383328;-0.26000
18386106;-0.26500
18388884;-0.26500
18391662;-0.26500
18394439;-0.25000
18397217;-0.25000
18399995;-0.25000
18402773;-0.26500
18405550;-0.26000
18408328;-0.25500
18411106;-0.25500
18413884;-0.25000
18416662;-0.26000
18419439;-0.27000
18422217;-0.26000
18424995;-0.27000
18427773;-0.25500
18430550;-0.25500
18433328;-0.26500
18436106;-0.26000
18438884;-0.27000
18441662;-0.27000
18444439;-0.26500
18447217;-0.27000
18449995;-0.25000
18452773;-0.26000
18455550;-0.26500
18458328;-0.24000
18461106;-0.21500
18463884;-0.20000
18466661;-0.20000
18469439;-0.19500
18472217;-0.19500
18474995;-0.18500
18477773;-0.18000
18480550;-0.17000
18483328;-0.16500
18486106;-0.16500
18488884;-0.16500
18491661;-0.14500
18494439;-0.13500
18497217;-0.13000
18499995;-0.13000
18502773;-0.15500
18505550;-0.15500
18508328;-0.15500
18511106;-0.15000
18513884;-0.16000
18516661;-0.15000
18519439;-0.16000
18522217;-0.18000
18524995;-0.17500
18527773;-0.15000
18530550;-0.13000
18533328;-0.11500
18536106;-0.13500
18538884;-0.17000
18541661;-0.18000
18544439;-0.18500
18547217;-0.19000
18549995;-0.20000
18552773;-0.22000
18555550;-0.23500
18558328;-0.23500
18561106;-0.23500
18563884;-0.25000
18566661;-0.26000
18569439;-0.28500
18572217;-0.29000
18574995;-0.27500
18577773;-0.28500
18580550;-0.27000
18583328;-0.26500
18586106;-0.28500
18588884;-0.30000
18591661;-0.28500
18594439;-0.27500
18597217;-0.27500
18599995;-0.28500
18602773;-0.30000
18605550;-0.31000
18608328;-0.29000
18611106;-0.28500
18613884;-0.28000
18616661;-0.28500
18619439;-0.29000
18622217;-0.30000
18624995;-0.31500
18627773;-0.35500
18630550;-0.38500
18633328;-0.41500
18636106;-0.45000
18638884;-0.51000
18641661;-0.50000
18644439;-0.41500
18647217;-0.29000
18649995;-0.16500
18652773;-0.01000
18655550;0.21500
18658328;0.52500
18661106;0.77000
18663884;0.91000
