time_ms;ecg_value
0;0.87500
2778;0.87500
5556;0.70500
8333;0.36500
11111;-0.05500
13889;-0.36000
16667;-0.47500
19444;-0.47000
22222;-0.41500
25000;-0.37500
27778;-0.35500
30556;-0.36500
33333;-0.36000
36111;-0.36500
38889;-0.35500
41667;-0.34500
44444;-0.35000
47222;-0.34000
50000;-0.35500
52778;-0.36500
55556;-0.36000
58333;-0.36500
61111;-0.35500
63889;-0.37000
66667;-0.37000
69444;-0.38500
72222;-0.37500
75000;-0.37000
77778;-0.35500
80556;-0.36500
83333;-0.36000
86111;-0.38000
88889;-0.38000
91667;-0.36000
94444;-0.35000
97222;-0.36000
100000;-0.37000
102778;-0.37500
105556;-0.37500
108333;-0.36500
111111;-0.37000
113889;-0.36500
116667;-0.36500
119444;-0.37000
122222;-0.36500
125000;-0.36000
127778;-0.36500
130556;-0.37500
133333;-0.37500
136111;-0.38500
138889;-0.37000
141667;-0.36000
144444;-0.35500
147222;-0.36000
150000;-0.37500
152778;-0.38000
155556;-0.38500
158333;-0.38000
161111;-0.35500
163889;-0.36000
166667;-0.36000
169444;-0.37000
172222;-0.37000
175000;-0.34500
177778;-0.34000
180556;-0.34500
183333;-0.35500
186111;-0.35500
188889;-0.35000
191667;-0.34500
194444;-0.34500
197222;-0.34500
200000;-0.35000
202778;-0.37500
205555;-0.35500
208333;-0.36000
211111;-0.34500
213889;-0.35000
216667;-0.37000
219444;-0.37000
222222;-0.36000
225000;-0.35500
227778;-0.34500
230555;-0.34500
233333;-0.35500
236111;-0.37000
238889;-0.36000
241667;-0.36000
244444;-0.36000
247222;-0.36500
250000;-0.37000
252778;-0.38000
255555;-0.38000
258333;-0.37000
261111;-0.36500
263889;-0.36000
266667;-0.37500
269444;-0.39000
272222;-0.37500
275000;-0.36000
277778;-0.36000
280555;-0.36500
283333;-0.37500
286111;-0.35500
288889;-0.35000
291667;-0.33500
294444;-0.32000
297222;-0.31500
300000;-0.32000
302778;-0.32000
305555;-0.31500
308333;-0.29500
311111;-0.28500
313889;-0.28000
316667;-0.28500
319444;-0.28500
322222;-0.27000
325000;-0.25000
327778;-0.25500
330555;-0.26500
333333;-0.26500
336111;-0.28500
338889;-0.27500
341667;-0.26500
344444;-0.26500
347222;-0.26000
350000;-0.28000
352778;-0.29000
355555;-0.27500
358333;-0.27000
361111;-0.27000
363889;-0.27000
366667;-0.26500
369444;-0.28000
372222;-0.27500
375000;-0.27500
377778;-0.27500
380555;-0.28500
383333;-0.28500
386111;-0.29000
388889;-0.28500
391667;-0.28000
394444;-0.28000
397222;-0.27000
400000;-0.29000
402778;-0.30000
405555;-0.28000
408333;-0.28000
411111;-0.27000
413889;-0.29000
416667;-0.30000
419444;-0.31000
422222;-0.31000
425000;-0.30500
427778;-0.30000
430555;-0.29000
433333;-0.31000
436111;-0.31500
438889;-0.31500
441667;-0.30000
444444;-0.29500
447222;-0.30000
450000;-0.31500
452778;-0.31500
455555;-0.31000
458333;-0.30500
461111;-0.30500
463889;-0.30500
466667;-0.31500
469444;-0.32500
472222;-0.31500
475000;-0.31000
477778;-0.32000
480555;-0.32000
483333;-0.32000
486111;-0.34000
488889;-0.33500
491667;-0.32000
494444;-0.31500
497222;-0.30000
500000;-0.31000
502778;-0.32000
505555;-0.32000
508333;-0.32000
511111;-0.31000
513889;-0.31500
516667;-0.32000
519444;-0.32000
522222;-0.31500
525000;-0.30500
527778;-0.31500
530555;-0.33000
533333;-0.33500
536111;-0.32500
538889;-0.31000
541667;-0.30000
544444;-0.30000
547222;-0.31500
550000;-0.29500
552778;-0.30500
555555;-0.31000
558333;-0.30500
561111;-0.29500
563889;-0.29000
566667;-0.31500
569444;-0.32000
572222;-0.31500
575000;-0.31000
577778;-0.30000
580555;-0.29500
583333;-0.30000
586111;-0.28500
588889;-0.27500
591667;-0.26000
594444;-0.25500
597222;-0.25000
600000;-0.26500
602778;-0.27000
605555;-0.25000
608333;-0.22000
611111;-0.21000
613889;-0.18500
616666;-0.20000
619444;-0.21000
622222;-0.21000
625000;-0.20500
627778;-0.19500
630555;-0.20000
633333;-0.22500
636111;-0.24500
638889;-0.23000
641666;-0.21500
644444;-0.22500
647222;-0.24500
650000;-0.24000
652778;-0.22000
655555;-0.21000
658333;-0.21000
661111;-0.23000
663889;-0.25500
666666;-0.28000
669444;-0.30000
672222;-0.30500
675000;-0.32500
677778;-0.32500
680555;-0.32500
683333;-0.33500
686111;-0.33500
688889;-0.33000
691666;-0.33000
694444;-0.32500
697222;-0.33000
700000;-0.34000
702778;-0.35000
705555;-0.34000
708333;-0.33500
711111;-0.33000
713889;-0.33000
716666;-0.33000
719444;-0.33500
722222;-0.34000
725000;-0.33000
727778;-0.33000
730555;-0.33500
733333;-0.34000
736111;-0.35000
738889;-0.35000
741666;-0.34500
744444;-0.34500
747222;-0.36000
750000;-0.36500
752778;-0.38000
755555;-0.40500
758333;-0.43000
761111;-0.44000
763889;-0.47500
766666;-0.52000
769444;-0.56500
772222;-0.52500
775000;-0.43500
777778;-0.27000
780555;-0.11500
783333;0.11000
786111;0.37500
788889;0.66000
791666;0.86000
794444;0.92000
797222;0.82500
800000;0.51000
802778;0.11000
805555;-0.23000
808333;-0.41000
811111;-0.46000
813889;-0.45000
816666;-0.41500
819444;-0.40000
822222;-0.38500
825000;-0.37500
827778;-0.37000
830555;-0.37000
833333;-0.38000
836111;-0.37500
838889;-0.37500
841666;-0.37000
844444;-0.37500
847222;-0.37500
850000;-0.37500
852778;-0.38500
855555;-0.37500
858333;-0.36500
861111;-0.37500
863889;-0.36000
866666;-0.38000
869444;-0.40500
872222;-0.39500
875000;-0.38000
877778;-0.37000
880555;-0.38000
883333;-0.38000
886111;-0.39000
888889;-0.37500
891666;-0.36500
894444;-0.37000
897222;-0.37000
900000;-0.37000
902778;-0.38000
905555;-0.38000
908333;-0.37500
911111;-0.38000
913889;-0.37000
916666;-0.38000
919444;-0.38000
922222;-0.37500
925000;-0.37000
927778;-0.37000
930555;-0.37000
933333;-0.37000
936111;-0.39000
938889;-0.38500
941666;-0.38500
944444;-0.38500
947222;-0.38000
950000;-0.39000
952778;-0.40000
955555;-0.38500
958333;-0.38000
961111;-0.38000
963889;-0.37000
966666;-0.38000
969444;-0.39000
972222;-0.38500
975000;-0.38500
977778;-0.36500
980555;-0.38000
983333;-0.38000
986111;-0.39000
988889;-0.39000
991666;-0.37500
994444;-0.36500
997222;-0.37000
1000000;-0.37500
1002777;-0.37500
1005555;-0.35500
1008333;-0.37000
1011111;-0.37000
1013889;-0.38000
1016666;-0.40000
1019444;-0.40500
1022222;-0.41000
1025000;-0.40000
1027777;-0.40000
1030555;-0.40500
1033333;-0.42500
1036111;-0.43500
1038889;-0.43000
1041666;-0.44000
1044444;-0.43000
1047222;-0.43500
1050000;-0.44500
1052777;-0.44500
1055555;-0.43500
1058333;-0.44000
1061111;-0.42500
1063889;-0.41500
1066666;-0.42000
1069444;-0.42000
1072222;-0.41000
1075000;-0.39500
1077777;-0.36500
1080555;-0.35000
1083333;-0.35000
1086111;-0.35500
1088889;-0.33000
1091666;-0.31000
1094444;-0.29000
1097222;-0.29000
1100000;-0.29500
1102777;-0.29500
1105555;-0.28500
1108333;-0.28000
1111111;-0.27000
1113889;-0.27000
1116666;-0.27500
1119444;-0.27500
1122222;-0.26500
1125000;-0.27000
1127777;-0.25500
1130555;-0.25000
1133333;-0.26000
1136111;-0.27000
1138889;-0.26000
1141666;-0.25500
1144444;-0.26000
1147222;-0.25500
1150000;-0.25500
1152777;-0.28500
1155555;-0.26500
1158333;-0.26500
1161111;-0.25000
1163889;-0.26000
1166666;-0.27000
1169444;-0.28000
1172222;-0.27000
1175000;-0.27000
1177777;-0.27000
1180555;-0.26500
1183333;-0.27000
1186111;-0.28000
1188889;-0.27500
1191666;-0.26000
1194444;-0.26500
1197222;-0.28000
1200000;-0.28000
1202777;-0.29000
1205555;-0.28000
1208333;-0.27500
1211111;-0.27500
1213889;-0.28000
1216666;-0.28500
1219444;-0.28000
1222222;-0.28500
1225000;-0.28500
1227777;-0.28500
1230555;-0.28000
1233333;-0.28000
1236111;-0.29000
1238889;-0.29000
1241666;-0.28500
1244444;-0.28500
1247222;-0.29000
1250000;-0.30500
1252777;-0.30500
1255555;-0.30000
1258333;-0.29500
1261111;-0.29000
1263889;-0.30500
1266666;-0.28500
1269444;-0.31000
1272222;-0.30000
1275000;-0.29500
1277777;-0.28500
1280555;-0.31000
1283333;-0.30500
1286111;-0.30500
1288889;-0.30000
1291666;-0.30000
1294444;-0.28000
1297222;-0.28500
1300000;-0.29000
1302777;-0.30000
1305555;-0.29000
1308333;-0.29000
1311111;-0.27500
1313889;-0.29000
1316666;-0.29000
1319444;-0.31000
1322222;-0.29000
1325000;-0.28500
1327777;-0.28500
1330555;-0.28000
1333333;-0.28500
1336111;-0.28500
1338889;-0.28500
1341666;-0.28000
1344444;-0.27500
1347222;-0.28000
1350000;-0.28500
1352777;-0.29000
1355555;-0.29000
1358333;-0.28000
1361111;-0.26500
1363889;-0.26000
1366666;-0.26000
1369444;-0.26000
1372222;-0.23500
1375000;-0.22000
1377777;-0.21500
1380555;-0.21500
1383333;-0.21000
1386111;-0.21500
1388888;-0.21000
1391666;-0.19500
1394444;-0.19500
1397222;-0.18000
1400000;-0.16500
1402777;-0.18500
1405555;-0.17500
1408333;-0.17500
1411111;-0.16000
1413888;-0.18000
1416666;-0.19500
1419444;-0.21000
1422222;-0.20000
1425000;-0.19500
1427777;-0.18000
1430555;-0.19000
1433333;-0.20000
1436111;-0.22500
1438888;-0.20500
1441666;-0.17500
1444444;-0.17500
1447222;-0.17500
1450000;-0.21500
1452777;-0.24500
1455555;-0.25000
1458333;-0.25500
1461111;-0.27000
1463888;-0.29000
1466666;-0.30000
1469444;-0.31500
1472222;-0.31000
1475000;-0.30500
1477777;-0.29000
1480555;-0.29500
1483333;-0.31500
1486111;-0.31500
1488888;-0.30500
1491666;-0.31000
1494444;-0.31500
1497222;-0.30500
1500000;-0.32000
1502777;-0.32000
1505555;-0.32000
1508333;-0.31500
1511111;-0.31500
1513888;-0.31000
1516666;-0.31500
1519444;-0.32500
1522222;-0.32000
1525000;-0.31500
1527777;-0.31000
1530555;-0.30000
1533333;-0.32000
1536111;-0.33500
1538888;-0.34000
1541666;-0.35500
1544444;-0.39000
1547222;-0.43000
1550000;-0.46000
1552777;-0.49500
1555555;-0.54000
1558333;-0.53000
1561111;-0.46000
1563888;-0.32500
1566666;-0.16000
1569444;0.01500
1572222;0.26000
1575000;0.55500
1577777;0.81500
1580555;0.97500
1583333;0.99000
1586111;0.80000
1588888;0.41500
1591666;-0.01500
1594444;-0.32000
1597222;-0.45000
1600000;-0.44500
1602777;-0.39000
1605555;-0.35500
1608333;-0.34000
1611111;-0.34000
1613888;-0.34000
1616666;-0.34500
1619444;-0.35000
1622222;-0.34500
1625000;-0.34500
1627777;-0.35000
1630555;-0.35500
1633333;-0.35000
1636111;-0.36000
1638888;-0.36500
1641666;-0.35500
1644444;-0.35000
1647222;-0.35500
1650000;-0.35000
1652777;-0.36500
1655555;-0.37000
1658333;-0.36500
1661111;-0.35500
1663888;-0.35000
1666666;-0.35500
1669444;-0.36500
1672222;-0.36500
1675000;-0.35000
1677777;-0.34500
1680555;-0.34500
1683333;-0.35000
1686111;-0.36000
1688888;-0.34500
1691666;-0.34500
1694444;-0.35000
1697222;-0.34000
1700000;-0.34500
1702777;-0.35500
1705555;-0.34000
1708333;-0.35000
1711111;-0.34000
1713888;-0.34500
1716666;-0.34000
1719444;-0.35000
1722222;-0.35500
1725000;-0.33500
1727777;-0.33000
1730555;-0.34500
1733333;-0.35000
1736111;-0.35500
1738888;-0.35000
1741666;-0.34000
1744444;-0.33000
1747222;-0.34000
1750000;-0.34000
1752777;-0.37000
1755555;-0.35000
1758333;-0.34000
1761111;-0.32500
1763888;-0.34000
1766666;-0.34000
1769444;-0.35000
1772222;-0.34500
1775000;-0.34500
1777777;-0.33000
1780555;-0.34000
1783333;-0.34500
1786111;-0.35500
1788888;-0.35000
1791666;-0.34500
1794444;-0.34000
1797222;-0.34500
1799999;-0.35500
1802777;-0.36000
1805555;-0.35000
1808333;-0.35500
1811111;-0.35000
1813888;-0.36500
1816666;-0.36000
1819444;-0.37500
1822222;-0.37000
1824999;-0.36000
1827777;-0.35500
1830555;-0.37000
1833333;-0.37500
1836111;-0.38500
1838888;-0.37000
1841666;-0.36500
1844444;-0.36000
1847222;-0.35500
1849999;-0.36000
1852777;-0.37000
1855555;-0.36500
1858333;-0.35000
1861111;-0.32500
1863888;-0.32000
1866666;-0.31000
1869444;-0.31000
1872222;-0.30500
1874999;-0.29500
1877777;-0.27500
1880555;-0.27500
1883333;-0.28000
1886111;-0.28000
1888888;-0.26500
1891666;-0.25500
1894444;-0.24500
1897222;-0.24500
1899999;-0.25000
1902777;-0.26000
1905555;-0.25500
1908333;-0.23000
1911111;-0.23500
1913888;-0.23000
1916666;-0.24500
1919444;-0.25500
1922222;-0.24000
1924999;-0.23000
1927777;-0.23500
1930555;-0.23500
1933333;-0.23500
1936111;-0.25000
1938888;-0.24500
1941666;-0.24500
1944444;-0.23000
1947222;-0.23500
1949999;-0.25000
1952777;-0.25500
1955555;-0.25000
1958333;-0.24500
1961111;-0.24500
1963888;-0.25000
1966666;-0.24500
1969444;-0.26500
1972222;-0.25500
1974999;-0.24500
1977777;-0.24500
1980555;-0.25000
1983333;-0.25500
1986111;-0.26500
1988888;-0.26500
1991666;-0.25000
1994444;-0.25000
1997222;-0.26000
1999999;-0.26000
2002777;-0.26500
2005555;-0.26000
2008333;-0.26500
2011111;-0.26500
2013888;-0.26500
2016666;-0.28000
2019444;-0.28500
2022222;-0.29000
2024999;-0.27500
2027777;-0.28000
2030555;-0.28000
2033333;-0.28000
2036111;-0.29500
2038888;-0.29000
2041666;-0.28500
2044444;-0.28000
2047222;-0.27500
2049999;-0.29000
2052777;-0.29000
2055555;-0.29000
2058333;-0.28500
2061111;-0.27500
2063888;-0.28000
2066666;-0.29500
2069444;-0.29000
2072222;-0.28500
2074999;-0.28000
2077777;-0.27500
2080555;-0.28000
2083333;-0.28500
2086111;-0.30500
2088888;-0.30000
2091666;-0.29000
2094444;-0.29500
2097222;-0.27500
2099999;-0.29500
2102777;-0.30500
2105555;-0.29500
2108333;-0.29000
2111111;-0.27500
2113888;-0.28500
2116666;-0.28500
2119444;-0.30000
2122222;-0.31000
2124999;-0.30500
2127777;-0.29500
2130555;-0.29500
2133333;-0.29000
2136111;-0.31000
2138888;-0.29000
2141666;-0.28000
2144444;-0.28000
2147222;-0.28000
2149999;-0.29500
2152777;-0.30000
2155555;-0.29000
2158333;-0.28500
2161111;-0.26000
2163888;-0.26500
2166666;-0.25500
2169444;-0.24000
2172222;-0.22500
2174999;-0.21500
2177777;-0.21500
2180555;-0.22000
2183333;-0.21500
2186110;-0.21000
2188888;-0.20500
2191666;-0.18000
2194444;-0.17000
2197222;-0.16000
2199999;-0.18000
2202777;-0.19500
2205555;-0.18500
2208333;-0.19500
2211110;-0.19000
2213888;-0.20000
2216666;-0.20000
2219444;-0.19500
2222222;-0.19500
2224999;-0.20500
2227777;-0.21500
2230555;-0.21000
2233333;-0.20500
2236110;-0.19500
2238888;-0.16500
2241666;-0.16000
2244444;-0.18500
2247222;-0.21500
2249999;-0.24500
2252777;-0.26000
2255555;-0.27000
2258333;-0.28500
2261110;-0.28000
2263888;-0.29500
2266666;-0.30500
2269444;-0.32000
2272222;-0.31000
2274999;-0.31500
2277777;-0.30500
2280555;-0.30500
2283333;-0.31500
2286110;-0.32500
2288888;-0.32500
2291666;-0.30500
2294444;-0.31000
2297222;-0.32000
2299999;-0.32500
2302777;-0.33000
2305555;-0.33000
2308333;-0.32000
2311110;-0.31000
2313888;-0.33000
2316666;-0.32000
2319444;-0.33500
2322222;-0.33500
2324999;-0.33500
2327777;-0.33000
2330555;-0.35000
2333333;-0.39000
2336110;-0.43500
2338888;-0.46000
2341666;-0.47500
2344444;-0.51000
2347222;-0.56000
2349999;-0.58000
2352777;-0.53500
2355555;-0.44000
2358333;-0.32000
2361110;-0.21000
2363888;-0.12000
2366666;0.03000
2369444;0.22500
2372222;0.50000
2374999;0.75000
2377777;0.90000
2380555;0.97000
2383333;0.92000
2386110;0.66500
2388888;0.29000
2391666;-0.06500
2394444;-0.31000
2397222;-0.44500
2399999;-0.47000
2402777;-0.44000
2405555;-0.40500
2408333;-0.36000
2411110;-0.34500
2413888;-0.35500
2416666;-0.37000
2419444;-0.37000
2422222;-0.35500
2424999;-0.36500
2427777;-0.36000
2430555;-0.36000
2433333;-0.38500
2436110;-0.39500
2438888;-0.38500
2441666;-0.38000
2444444;-0.37500
2447222;-0.37000
2449999;-0.37500
2452777;-0.38000
2455555;-0.38000
2458333;-0.37500
2461110;-0.36500
2463888;-0.36500
2466666;-0.37500
2469444;-0.38500
2472222;-0.37500
2474999;-0.36500
2477777;-0.35500
2480555;-0.37000
2483333;-0.37500
2486110;-0.38000
2488888;-0.37000
2491666;-0.37500
2494444;-0.35500
2497222;-0.35000
2499999;-0.35500
2502777;-0.37000
2505555;-0.37000
2508333;-0.36000
2511110;-0.36000
2513888;-0.35500
2516666;-0.37000
2519444;-0.37000
2522222;-0.36000
2524999;-0.36000
2527777;-0.35000
2530555;-0.35500
2533333;-0.37500
2536110;-0.38000
2538888;-0.37000
2541666;-0.36500
2544444;-0.36000
2547222;-0.36500
2549999;-0.36000
2552777;-0.37500
2555555;-0.37500
2558333;-0.36500
2561110;-0.36000
2563888;-0.36500
2566666;-0.36500
2569444;-0.37000
2572222;-0.36500
2574999;-0.36500
2577777;-0.36000
2580555;-0.35500
2583333;-0.36000
2586110;-0.37000
2588888;-0.36000
2591666;-0.35000
2594444;-0.35000
2597221;-0.35500
2599999;-0.36000
2602777;-0.38000
2605555;-0.37000
2608333;-0.35500
2611110;-0.35500
2613888;-0.35000
2616666;-0.37000
2619444;-0.38500
2622221;-0.37500
2624999;-0.37000
2627777;-0.36500
2630555;-0.37000
2633333;-0.38500
2636110;-0.38500
2638888;-0.38500
2641666;-0.37500
2644444;-0.37500
2647221;-0.37500
2649999;-0.38000
2652777;-0.39000
2655555;-0.38000
2658333;-0.36000
2661110;-0.36000
2663888;-0.36500
2666666;-0.36000
2669444;-0.36000
2672221;-0.34000
2674999;-0.33500
2677777;-0.32000
2680555;-0.31500
2683333;-0.30500
2686110;-0.32000
2688888;-0.30500
2691666;-0.29500
2694444;-0.28000
2697221;-0.28500
2699999;-0.29000
2702777;-0.30000
2705555;-0.28500
2708333;-0.28500
2711110;-0.27000
2713888;-0.26000
2716666;-0.26500
2719444;-0.28000
2722221;-0.27500
2724999;-0.27000
2727777;-0.26000
2730555;-0.26000
2733333;-0.26500
2736110;-0.27500
2738888;-0.28000
2741666;-0.26000
2744444;-0.26500
2747221;-0.26000
2749999;-0.28500
2752777;-0.27500
2755555;-0.27000
2758333;-0.28000
2761110;-0.27500
2763888;-0.27000
2766666;-0.29000
2769444;-0.29000
2772221;-0.29000
2774999;-0.28500
2777777;-0.27500
2780555;-0.29000
2783333;-0.28000
2786110;-0.30000
2788888;-0.30000
2791666;-0.30000
2794444;-0.27500
2797221;-0.29000
2799999;-0.29500
2802777;-0.31500
2805555;-0.31500
2808333;-0.29500
2811110;-0.30000
2813888;-0.30000
2816666;-0.30000
2819444;-0.31500
2822221;-0.31000
2824999;-0.29500
2827777;-0.30000
2830555;-0.31000
2833333;-0.31000
2836110;-0.32500
2838888;-0.32500
2841666;-0.32500
2844444;-0.32000
2847221;-0.31000
2849999;-0.31500
2852777;-0.32000
2855555;-0.32500
2858333;-0.31500
2861110;-0.31000
2863888;-0.31500
2866666;-0.32500
2869444;-0.33500
2872221;-0.33000
2874999;-0.32000
2877777;-0.32500
2880555;-0.32000
2883333;-0.33000
2886110;-0.33500
2888888;-0.33000
2891666;-0.31500
2894444;-0.32000
2897221;-0.31500
2899999;-0.33500
2902777;-0.34500
2905555;-0.32500
2908333;-0.33500
2911110;-0.32500
2913888;-0.32000
2916666;-0.33000
2919444;-0.33500
2922221;-0.34000
2924999;-0.31500
2927777;-0.31500
2930555;-0.32500
2933333;-0.32500
2936110;-0.33000
2938888;-0.32500
2941666;-0.32500
2944444;-0.33000
2947221;-0.33500
2949999;-0.33500
2952777;-0.34500
2955555;-0.32500
2958333;-0.32000
2961110;-0.30000
2963888;-0.30500
2966666;-0.31000
2969444;-0.31500
2972221;-0.30000
2974999;-0.27500
2977777;-0.25000
2980555;-0.25500
2983332;-0.25000
2986110;-0.26500
2988888;-0.26500
2991666;-0.24500
2994444;-0.23000
2997221;-0.21500
2999999;-0.21000
3002777;-0.22500
3005555;-0.20000
3008332;-0.20500
3011110;-0.20500
3013888;-0.21000
3016666;-0.23500
3019444;-0.24000
3022221;-0.23500
3024999;-0.23500
3027777;-0.23000
3030555;-0.23500
3033332;-0.23500
3036110;-0.24000
3038888;-0.24500
3041666;-0.25500
3044444;-0.24500
3047221;-0.24500
3049999;-0.24500
3052777;-0.22500
3055555;-0.23500
3058332;-0.25000
3061110;-0.27000
3063888;-0.28500
3066666;-0.31500
3069444;-0.33500
3072221;-0.34500
3074999;-0.33500
3077777;-0.34000
3080555;-0.34500
3083332;-0.34000
3086110;-0.34500
3088888;-0.34000
3091666;-0.33500
3094444;-0.33500
3097221;-0.35000
3099999;-0.36000
3102777;-0.36500
3105555;-0.35500
3108332;-0.36500
3111110;-0.36000
3113888;-0.36000
3116666;-0.37500
3119444;-0.38500
3122221;-0.38000
3124999;-0.36500
3127777;-0.37000
3130555;-0.36500
3133332;-0.38000
3136110;-0.38500
3138888;-0.38000
3141666;-0.40000
3144444;-0.42000
3147221;-0.46000
3149999;-0.49000
3152777;-0.53000
3155555;-0.58000
3158332;-0.61000
3161110;-0.59500
3163888;-0.54500
3166666;-0.44500
3169444;-0.36000
3172221;-0.26000
3174999;-0.12500
3177777;0.06000
3180555;0.27000
3183332;0.49000
3186110;0.65000
3188888;0.80000
3191666;0.87000
3194444;0.82500
3197221;0.60500
3199999;0.28000
3202777;-0.07000
3205555;-0.32000
3208332;-0.46000
3211110;-0.52000
3213888;-0.51000
3216666;-0.45000
3219444;-0.43000
3222221;-0.41500
3224999;-0.41500
3227777;-0.42000
3230555;-0.42000
3233332;-0.42000
3236110;-0.42500
3238888;-0.41500
3241666;-0.41000
3244444;-0.40000
3247221;-0.41000
3249999;-0.43000
3252777;-0.44000
3255555;-0.42500
3258332;-0.42000
3261110;-0.41000
3263888;-0.40500
3266666;-0.42000
3269444;-0.42500
3272221;-0.43000
3274999;-0.42500
3277777;-0.41000
3280555;-0.42500
3283332;-0.41000
3286110;-0.42000
3288888;-0.41500
3291666;-0.41000
3294444;-0.41000
3297221;-0.40000
3299999;-0.41500
3302777;-0.43000
3305555;-0.41500
3308332;-0.41500
3311110;-0.41500
3313888;-0.41500
3316666;-0.40500
3319444;-0.44000
3322221;-0.43000
3324999;-0.43500
3327777;-0.42000
3330555;-0.41500
3333332;-0.43000
3336110;-0.43000
3338888;-0.42500
3341666;-0.41000
3344444;-0.40500
3347221;-0.40000
3349999;-0.41500
3352777;-0.43000
3355555;-0.43000
3358332;-0.42000
3361110;-0.41500
3363888;-0.42000
3366666;-0.43000
3369444;-0.44000
3372221;-0.43000
3374999;-0.43000
3377777;-0.41500
3380555;-0.41500
3383332;-0.42000
3386110;-0.43500
3388888;-0.42500
3391666;-0.41000
3394443;-0.40500
3397221;-0.41000
3399999;-0.42000
3402777;-0.43000
3405555;-0.42000
3408332;-0.41000
3411110;-0.41500
3413888;-0.41000
3416666;-0.42000
3419443;-0.43500
3422221;-0.43000
3424999;-0.43500
3427777;-0.42500
3430555;-0.44000
3433332;-0.45000
3436110;-0.46500
3438888;-0.44500
3441666;-0.44000
3444443;-0.43500
3447221;-0.43500
3449999;-0.45000
3452777;-0.47500
3455555;-0.46500
3458332;-0.45500
3461110;-0.44500
3463888;-0.44000
3466666;-0.46000
3469443;-0.47000
3472221;-0.46000
3474999;-0.46000
3477777;-0.45000
3480555;-0.45000
3483332;-0.46000
3486110;-0.46000
3488888;-0.45000
3491666;-0.42000
3494443;-0.40000
3497221;-0.39000
3499999;-0.39500
3502777;-0.39000
3505555;-0.38000
3508332;-0.36500
3511110;-0.34000
3513888;-0.33000
3516666;-0.34500
3519443;-0.35000
3522221;-0.34000
3524999;-0.33500
3527777;-0.31500
3530555;-0.33000
3533332;-0.33500
3536110;-0.34500
3538888;-0.34000
3541666;-0.32500
3544443;-0.32000
3547221;-0.33500
3549999;-0.35000
3552777;-0.35500
3555555;-0.34000
3558332;-0.32500
3561110;-0.31500
3563888;-0.31000
3566666;-0.31500
3569443;-0.33000
3572221;-0.32000
3574999;-0.32000
3577777;-0.32500
3580555;-0.33500
3583332;-0.34000
3586110;-0.35500
3588888;-0.34500
3591666;-0.34500
3594443;-0.32500
3597221;-0.34000
3599999;-0.33500
3602777;-0.35500
3605555;-0.35500
3608332;-0.35000
3611110;-0.33500
3613888;-0.32500
3616666;-0.34000
3619443;-0.34500
3622221;-0.35000
3624999;-0.34000
3627777;-0.34000
3630555;-0.35000
3633332;-0.35500
3636110;-0.36500
3638888;-0.37000
3641666;-0.35500
3644443;-0.35000
3647221;-0.35500
3649999;-0.37000
3652777;-0.36500
3655555;-0.37000
3658332;-0.36000
3661110;-0.35500
3663888;-0.35500
3666666;-0.37000
3669443;-0.38000
3672221;-0.37500
3674999;-0.37000
3677777;-0.37500
3680555;-0.38000
3683332;-0.38500
3686110;-0.39500
3688888;-0.38000
3691666;-0.35500
3694443;-0.35000
3697221;-0.35500
3699999;-0.35000
3702777;-0.37000
3705555;-0.37000
3708332;-0.38000
3711110;-0.37000
3713888;-0.36000
3716666;-0.37000
3719443;-0.37000
3722221;-0.36500
3724999;-0.36500
3727777;-0.36000
3730555;-0.35500
3733332;-0.36000
3736110;-0.38500
3738888;-0.36000
3741666;-0.36500
3744443;-0.36000
3747221;-0.37500
3749999;-0.37000
3752777;-0.38500
3755555;-0.37500
3758332;-0.36500
3761110;-0.36500
3763888;-0.35500
3766666;-0.37500
3769443;-0.37000
3772221;-0.37500
3774999;-0.36500
3777777;-0.33500
3780554;-0.35500
3783332;-0.36000
3786110;-0.36500
3788888;-0.34500
3791666;-0.32500
3794443;-0.31000
3797221;-0.31000
3799999;-0.31000
3802777;-0.32500
3805554;-0.30500
3808332;-0.29000
3811110;-0.28500
3813888;-0.28000
3816666;-0.27000
3819443;-0.29000
3822221;-0.27000
3824999;-0.26500
3827777;-0.25500
3830554;-0.24500
3833332;-0.25500
3836110;-0.26500
3838888;-0.26500
3841666;-0.26500
3844443;-0.27000
3847221;-0.27000
3849999;-0.29000
3852777;-0.28000
3855554;-0.27500
3858332;-0.26500
3861110;-0.26500
3863888;-0.28500
3866666;-0.30000
3869443;-0.29500
3872221;-0.29000
3874999;-0.26000
3877777;-0.25000
3880554;-0.25500
3883332;-0.28500
3886110;-0.32500
3888888;-0.34000
3891666;-0.34000
3894443;-0.35000
3897221;-0.36000
3899999;-0.36500
3902777;-0.40000
3905554;-0.39000
3908332;-0.39500
3911110;-0.38000
3913888;-0.38000
3916666;-0.38500
3919443;-0.40500
3922221;-0.39500
3924999;-0.38500
3927777;-0.40000
3930554;-0.39000
3933332;-0.41000
3936110;-0.41000
3938888;-0.40500
3941666;-0.39500
3944443;-0.39000
3947221;-0.40000
3949999;-0.40500
3952777;-0.42000
3955554;-0.40500
3958332;-0.41000
3961110;-0.40000
3963888;-0.41500
3966666;-0.44000
3969443;-0.47000
3972221;-0.50000
3974999;-0.51500
3977777;-0.52500
3980554;-0.58000
3983332;-0.63500
3986110;-0.63500
3988888;-0.56500
3991666;-0.43500
3994443;-0.30000
3997221;-0.17500
3999999;-0.02500
4002777;0.14000
4005554;0.36500
4008332;0.60000
4011110;0.78000
4013888;0.90500
4016666;0.91500
4019443;0.75000
4022221;0.41500
4024999;0.01000
4027777;-0.29000
4030554;-0.47000
4033332;-0.55000
4036110;-0.54000
4038888;-0.49000
4041666;-0.44000
4044443;-0.43000
4047221;-0.43500
4049999;-0.44000
4052777;-0.46000
4055554;-0.45000
4058332;-0.43500
4061110;-0.42000
4063888;-0.44000
4066666;-0.43500
4069443;-0.44500
4072221;-0.44000
4074999;-0.44000
4077777;-0.43000
4080554;-0.43500
4083332;-0.45000
4086110;-0.45000
4088888;-0.44000
4091666;-0.44000
4094443;-0.43000
4097221;-0.44500
4099999;-0.44000
4102777;-0.44500
4105554;-0.44000
4108332;-0.43500
4111110;-0.43500
4113888;-0.43500
4116666;-0.44500
4119443;-0.46000
4122221;-0.45500
4124999;-0.44500
4127777;-0.43000
4130554;-0.43000
4133332;-0.43000
4136110;-0.44000
4138888;-0.44000
4141666;-0.43500
4144443;-0.43000
4147221;-0.42500
4149999;-0.44500
4152777;-0.45000
4155554;-0.44000
4158332;-0.43500
4161110;-0.43500
4163888;-0.43000
4166666;-0.44000
4169443;-0.44500
4172221;-0.43000
4174999;-0.43500
4177777;-0.41500
4180554;-0.43000
4183332;-0.44000
4186110;-0.45000
4188888;-0.43500
4191665;-0.43500
4194443;-0.42500
4197221;-0.42500
4199999;-0.43000
4202777;-0.45000
4205554;-0.45000
4208332;-0.44000
4211110;-0.43000
4213888;-0.43000
4216665;-0.44000
4219443;-0.44500
4222221;-0.44000
4224999;-0.44000
4227777;-0.43000
4230554;-0.42000
4233332;-0.43500
4236110;-0.45000
4238888;-0.44000
4241665;-0.43500
4244443;-0.43000
4247221;-0.43000
4249999;-0.45500
4252777;-0.47000
4255554;-0.46000
4258332;-0.45000
4261110;-0.44500
4263888;-0.45500
4266665;-0.47000
4269443;-0.49000
4272221;-0.48000
4274999;-0.47500
4277777;-0.47500
4280554;-0.47500
4283332;-0.48500
4286110;-0.49500
4288888;-0.48000
4291665;-0.47500
4294443;-0.47000
4297221;-0.47000
4299999;-0.46500
4302777;-0.48000
4305554;-0.46500
4308332;-0.45000
4311110;-0.42500
4313888;-0.41000
4316665;-0.41000
4319443;-0.40500
4322221;-0.39500
4324999;-0.37500
4327777;-0.36500
4330554;-0.36500
4333332;-0.35500
4336110;-0.36000
4338888;-0.36000
4341665;-0.34500
4344443;-0.32500
4347221;-0.33500
4349999;-0.32500
4352777;-0.34000
4355554;-0.32000
4358332;-0.32500
4361110;-0.31000
4363888;-0.30500
4366665;-0.31500
4369443;-0.32500
4372221;-0.32500
4374999;-0.31000
4377777;-0.31000
4380554;-0.30500
4383332;-0.31500
4386110;-0.32500
4388888;-0.32500
4391665;-0.31500
4394443;-0.30500
4397221;-0.30000
4399999;-0.31500
4402777;-0.32000
4405554;-0.32000
4408332;-0.30500
4411110;-0.30500
4413888;-0.31000
4416665;-0.31500
4419443;-0.33500
4422221;-0.32000
4424999;-0.32000
4427777;-0.31500
4430554;-0.31500
4433332;-0.33000
4436110;-0.34500
4438888;-0.33000
4441665;-0.32500
4444443;-0.31000
4447221;-0.32500
4449999;-0.33000
4452777;-0.35500
4455554;-0.35500
4458332;-0.34000
4461110;-0.33000
4463888;-0.32500
4466665;-0.33000
4469443;-0.35000
4472221;-0.34500
4474999;-0.34000
4477777;-0.33000
4480554;-0.34000
4483332;-0.34500
4486110;-0.35000
4488888;-0.35000
4491665;-0.35000
4494443;-0.33500
4497221;-0.33500
4499999;-0.34500
4502777;-0.36500
4505554;-0.35500
4508332;-0.34500
4511110;-0.34500
4513888;-0.35000
4516665;-0.36500
4519443;-0.35500
4522221;-0.36500
4524999;-0.35500
4527777;-0.34500
4530554;-0.35000
4533332;-0.35500
4536110;-0.37000
4538888;-0.36000
4541665;-0.36500
4544443;-0.36500
4547221;-0.36500
4549999;-0.37500
4552777;-0.38000
4555554;-0.37000
4558332;-0.36000
4561110;-0.34500
4563888;-0.35000
4566665;-0.36000
4569443;-0.36000
4572221;-0.36500
4574999;-0.35000
4577776;-0.35000
4580554;-0.34500
4583332;-0.35500
4586110;-0.36500
4588888;-0.36500
4591665;-0.36000
4594443;-0.35000
4597221;-0.35000
4599999;-0.35500
4602776;-0.37500
4605554;-0.36000
4608332;-0.36000
4611110;-0.35000
4613888;-0.34000
4616665;-0.34500
4619443;-0.37000
4622221;-0.35500
4624999;-0.34500
4627776;-0.33500
4630554;-0.33500
4633332;-0.33000
4636110;-0.33500
4638888;-0.30500
4641665;-0.29000
4644443;-0.27000
4647221;-0.27000
4649999;-0.27000
4652776;-0.28000
4655554;-0.27000
4658332;-0.26000
4661110;-0.24000
4663888;-0.24500
4666665;-0.24500
4669443;-0.25000
4672221;-0.24000
4674999;-0.22500
4677776;-0.23000
4680554;-0.23000
4683332;-0.24500
4686110;-0.25000
4688888;-0.26500
4691665;-0.26000
4694443;-0.25000
4697221;-0.25500
4699999;-0.26000
4702776;-0.26500
4705554;-0.27000
4708332;-0.26500
4711110;-0.26500
4713888;-0.26000
4716665;-0.25500
4719443;-0.23500
4722221;-0.23000
4724999;-0.24500
4727776;-0.28000
4730554;-0.29000
4733332;-0.30500
4736110;-0.34000
4738888;-0.34500
4741665;-0.35000
4744443;-0.35000
4747221;-0.35500
4749999;-0.36500
4752776;-0.37000
4755554;-0.36500
4758332;-0.36500
4761110;-0.35500
4763888;-0.36000
4766665;-0.37500
4769443;-0.38000
4772221;-0.37500
4774999;-0.37500
4777776;-0.38000
4780554;-0.38000
4783332;-0.37500
4786110;-0.39000
4788888;-0.39000
4791665;-0.37500
4794443;-0.38000
4797221;-0.38000
4799999;-0.37500
4802776;-0.39000
4805554;-0.39000
4808332;-0.37500
4811110;-0.39000
4813888;-0.41500
4816665;-0.46500
4819443;-0.50500
4822221;-0.53000
4824999;-0.54500
4827776;-0.59000
4830554;-0.61500
4833332;-0.59000
4836110;-0.50500
4838888;-0.37500
4841665;-0.24500
4844443;-0.10500
4847221;0.06500
4849999;0.28000
4852776;0.53000
4855554;0.75000
4858332;0.90000
4861110;1.00500
4863888;1.07500
4866665;1.08000
4869443;0.94000
4872221;0.62000
4874999;0.19500
4877776;-0.20000
4880554;-0.44000
4883332;-0.51000
4886110;-0.48500
4888888;-0.44000
4891665;-0.39500
4894443;-0.39000
4897221;-0.39500
4899999;-0.41000
4902776;-0.42000
4905554;-0.42000
4908332;-0.40500
4911110;-0.39000
4913888;-0.40000
4916665;-0.41500
4919443;-0.42000
4922221;-0.43000
4924999;-0.42000
4927776;-0.41500
4930554;-0.42000
4933332;-0.42000
4936110;-0.42500
4938888;-0.42500
4941665;-0.41500
4944443;-0.41500
4947221;-0.41500
4949999;-0.43000
4952776;-0.43500
4955554;-0.42500
4958332;-0.41500
4961110;-0.41000
4963887;-0.41500
4966665;-0.42000
4969443;-0.43500
4972221;-0.42000
4974999;-0.42000
4977776;-0.41000
4980554;-0.41000
4983332;-0.43000
4986110;-0.42500
4988887;-0.42500
4991665;-0.41000
4994443;-0.40500
4997221;-0.41000
4999999;-0.42000
5002776;-0.43000
5005554;-0.42000
5008332;-0.42000
5011110;-0.41000
5013887;-0.40000
5016665;-0.41500
5019443;-0.41500
5022221;-0.41500
5024999;-0.40500
5027776;-0.39000
5030554;-0.39500
5033332;-0.41000
5036110;-0.41000
5038887;-0.41500
5041665;-0.40500
5044443;-0.40500
5047221;-0.41000
5049999;-0.41500
5052776;-0.42000
5055554;-0.40500
5058332;-0.40000
5061110;-0.41000
5063887;-0.40000
5066665;-0.41000
5069443;-0.41500
5072221;-0.41000
5074999;-0.40500
5077776;-0.39500
5080554;-0.38500
5083332;-0.41000
5086110;-0.42000
5088887;-0.40500
5091665;-0.39500
5094443;-0.38500
5097221;-0.39500
5099999;-0.40500
5102776;-0.41000
5105554;-0.39500
5108332;-0.40000
5111110;-0.40500
5113887;-0.40500
5116665;-0.41000
5119443;-0.41500
5122221;-0.41500
5124999;-0.41000
5127776;-0.40500
5130554;-0.40500
5133332;-0.42000
5136110;-0.42500
5138887;-0.42500
5141665;-0.41000
5144443;-0.41500
5147221;-0.42000
5149999;-0.42000
5152776;-0.44000
5155554;-0.42500
5158332;-0.41500
5161110;-0.40500
5163887;-0.41500
5166665;-0.41000
5169443;-0.41500
5172221;-0.38500
5174999;-0.38000
5177776;-0.35500
5180554;-0.35500
5183332;-0.35500
5186110;-0.36500
5188887;-0.34500
5191665;-0.33000
5194443;-0.32000
5197221;-0.31500
5199999;-0.32000
5202776;-0.32500
5205554;-0.32500
5208332;-0.31000
5211110;-0.29500
5213887;-0.30000
5216665;-0.30500
5219443;-0.31500
5222221;-0.31000
5224999;-0.30500
5227776;-0.29000
5230554;-0.30000
5233332;-0.30000
5236110;-0.31000
5238887;-0.30500
5241665;-0.30000
5244443;-0.30000
5247221;-0.28500
5249999;-0.30500
5252776;-0.30500
5255554;-0.30000
5258332;-0.30000
5261110;-0.29500
5263887;-0.29000
5266665;-0.32000
5269443;-0.32500
5272221;-0.30000
5274999;-0.31000
5277776;-0.30000
5280554;-0.30000
5283332;-0.32000
5286110;-0.32500
5288887;-0.32500
5291665;-0.31500
5294443;-0.30000
5297221;-0.32000
5299999;-0.32500
5302776;-0.33000
5305554;-0.32000
5308332;-0.32000
5311110;-0.31000
5313887;-0.30500
5316665;-0.32000
5319443;-0.34000
5322221;-0.33000
5324999;-0.33000
5327776;-0.32500
5330554;-0.33000
5333332;-0.34000
5336110;-0.34000
5338887;-0.34000
5341665;-0.33000
5344443;-0.33000
5347221;-0.33500
5349999;-0.35000
5352776;-0.36000
5355554;-0.35000
5358332;-0.34000
5361110;-0.33000
5363887;-0.34000
5366665;-0.35000
5369443;-0.36000
5372221;-0.35500
5374998;-0.34500
5377776;-0.35000
5380554;-0.34500
5383332;-0.34000
5386110;-0.36000
5388887;-0.35500
5391665;-0.34500
5394443;-0.33500
5397221;-0.33500
5399998;-0.34500
5402776;-0.36000
5405554;-0.35500
5408332;-0.34500
5411110;-0.35000
5413887;-0.35000
5416665;-0.35000
5419443;-0.37000
5422221;-0.36000
5424998;-0.35500
5427776;-0.34000
5430554;-0.34500
5433332;-0.36500
5436110;-0.36000
5438887;-0.35000
5441665;-0.34500
5444443;-0.34000
5447221;-0.34000
5449998;-0.34500
5452776;-0.36000
5455554;-0.36000
5458332;-0.35500
5461110;-0.34500
5463887;-0.34000
5466665;-0.36000
5469443;-0.37000
5472221;-0.35500
5474998;-0.33500
5477776;-0.33500
5480554;-0.34000
5483332;-0.34000
5486110;-0.36000
5488887;-0.34500
5491665;-0.33000
5494443;-0.32500
5497221;-0.31500
5499998;-0.30000
5502776;-0.30500
5505554;-0.28500
5508332;-0.27500
5511110;-0.27000
5513887;-0.26000
5516665;-0.27000
5519443;-0.27500
5522221;-0.25000
5524998;-0.23000
5527776;-0.23000
5530554;-0.22500
5533332;-0.23000
5536110;-0.24000
5538887;-0.24000
5541665;-0.23500
5544443;-0.23000
5547221;-0.23500
5549998;-0.26000
5552776;-0.26500
5555554;-0.27500
5558332;-0.26500
5561110;-0.23000
5563887;-0.23000
5566665;-0.26500
5569443;-0.28000
5572221;-0.26000
5574998;-0.23500
5577776;-0.21000
5580554;-0.20500
5583332;-0.22500
5586110;-0.26500
5588887;-0.28000
5591665;-0.28500
5594443;-0.29500
5597221;-0.30500
5599998;-0.32500
5602776;-0.36000
5605554;-0.36500
5608332;-0.35000
5611110;-0.35000
5613887;-0.36500
5616665;-0.36000
5619443;-0.36500
5622221;-0.37500
5624998;-0.36500
5627776;-0.35500
5630554;-0.36000
5633332;-0.38500
5636110;-0.37500
5638887;-0.38000
5641665;-0.37500
5644443;-0.36000
5647221;-0.36500
5649998;-0.36500
5652776;-0.37500
5655554;-0.38500
5658332;-0.37000
5661110;-0.37500
5663887;-0.37000
5666665;-0.40000
5669443;-0.44500
5672221;-0.48000
5674998;-0.50000
5677776;-0.50500
5680554;-0.53000
5683332;-0.59000
5686110;-0.64000
5688887;-0.62000
5691665;-0.52500
5694443;-0.41500
5697221;-0.26500
5699998;-0.13000
5702776;0.06000
5705554;0.34000
5708332;0.63000
5711110;0.82500
5713887;0.92000
5716665;0.91500
5719443;0.75500
5722221;0.43000
5724998;0.05500
5727776;-0.26500
5730554;-0.46000
5733332;-0.54500
5736110;-0.53000
5738887;-0.47000
5741665;-0.42000
5744443;-0.40500
5747221;-0.40500
5749998;-0.42000
5752776;-0.43000
5755554;-0.43000
5758332;-0.42000
5761109;-0.40500
5763887;-0.41000
5766665;-0.42500
5769443;-0.43000
5772221;-0.43000
5774998;-0.43000
5777776;-0.41500
5780554;-0.41500
5783332;-0.41500
5786109;-0.43000
5788887;-0.42000
5791665;-0.41000
5794443;-0.40500
5797221;-0.41000
5799998;-0.42000
5802776;-0.42500
5805554;-0.42000
5808332;-0.41500
5811109;-0.40000
5813887;-0.41000
5816665;-0.40500
5819443;-0.42000
5822221;-0.40500
5824998;-0.41500
5827776;-0.39500
5830554;-0.39500
5833332;-0.40000
5836109;-0.41500
5838887;-0.41500
5841665;-0.40500
5844443;-0.40500
5847221;-0.39500
5849998;-0.41000
5852776;-0.42500
5855554;-0.41000
5858332;-0.40000
5861109;-0.39500
5863887;-0.39000
5866665;-0.39000
5869443;-0.40500
5872221;-0.40000
5874998;-0.39500
5877776;-0.39000
5880554;-0.39000
5883332;-0.40500
5886109;-0.40500
5888887;-0.40500
5891665;-0.40500
5894443;-0.40000
5897221;-0.40000
5899998;-0.41500
5902776;-0.42500
5905554;-0.43000
5908332;-0.41000
5911109;-0.39500
5913887;-0.38000
5916665;-0.39000
5919443;-0.41000
5922221;-0.41000
5924998;-0.39500
5927776;-0.40000
5930554;-0.39500
5933332;-0.40000
5936109;-0.41500
5938887;-0.41000
5941665;-0.40500
5944443;-0.40000
5947221;-0.39500
5949998;-0.42000
5952776;-0.41500
5955554;-0.41000
5958332;-0.41500
5961109;-0.39500
5963887;-0.41500
5966665;-0.41500
5969443;-0.43000
5972221;-0.43000
5974998;-0.42500
5977776;-0.41500
5980554;-0.42500
5983332;-0.43000
5986109;-0.43000
5988887;-0.43000
5991665;-0.41000
5994443;-0.40000
5997221;-0.39000
5999998;-0.40000
6002776;-0.40500
6005554;-0.39500
6008332;-0.38500
6011109;-0.37000
6013887;-0.35500
6016665;-0.36000
6019443;-0.36000
6022221;-0.35500
6024998;-0.35500
6027776;-0.33000
6030554;-0.33500
6033332;-0.34000
6036109;-0.35000
6038887;-0.34000
6041665;-0.33500
6044443;-0.32500
6047221;-0.32000
6049998;-0.32500
6052776;-0.32500
6055554;-0.32500
6058332;-0.31000
6061109;-0.31500
6063887;-0.31500
6066665;-0.32000
6069443;-0.33500
6072221;-0.32500
6074998;-0.31500
6077776;-0.30500
6080554;-0.31000
6083332;-0.31500
6086109;-0.32500
6088887;-0.32500
6091665;-0.31500
6094443;-0.31500
6097221;-0.32000
6099998;-0.32000
6102776;-0.33500
6105554;-0.34500
6108332;-0.33500
6111109;-0.32500
6113887;-0.33500
6116665;-0.34000
6119443;-0.37000
6122221;-0.35500
6124998;-0.35000
6127776;-0.34500
6130554;-0.34000
6133332;-0.35000
6136109;-0.35000
6138887;-0.34500
6141665;-0.33500
6144443;-0.34000
6147221;-0.33500
6149998;-0.35500
6152776;-0.37500
6155554;-0.37500
6158332;-0.37000
6161109;-0.35500
6163887;-0.35500
6166665;-0.36000
6169443;-0.36500
6172220;-0.36000
6174998;-0.35500
6177776;-0.36000
6180554;-0.35000
6183332;-0.36500
6186109;-0.38500
6188887;-0.38500
6191665;-0.37500
6194443;-0.37000
6197220;-0.36500
6199998;-0.37500
6202776;-0.39000
6205554;-0.38500
6208332;-0.37500
6211109;-0.37000
6213887;-0.37500
6216665;-0.37500
6219443;-0.38000
6222220;-0.38500
6224998;-0.37500
6227776;-0.36500
6230554;-0.37000
6233332;-0.38500
6236109;-0.39000
6238887;-0.38500
6241665;-0.37000
6244443;-0.37500
6247220;-0.37000
6249998;-0.39000
6252776;-0.39500
6255554;-0.39500
6258332;-0.38500
6261109;-0.36500
6263887;-0.36500
6266665;-0.38000
6269443;-0.39000
6272220;-0.39000
6274998;-0.38000
6277776;-0.38000
6280554;-0.36000
6283332;-0.37500
6286109;-0.38500
6288887;-0.38500
6291665;-0.39000
6294443;-0.38000
6297220;-0.38000
6299998;-0.39000
6302776;-0.39000
6305554;-0.38000
6308332;-0.36000
6311109;-0.33500
6313887;-0.32500
6316665;-0.32000
6319443;-0.32500
6322220;-0.33000
6324998;-0.32000
6327776;-0.31000
6330554;-0.30500
6333332;-0.30000
6336109;-0.29500
6338887;-0.30000
6341665;-0.28000
6344443;-0.27000
6347220;-0.25500
6349998;-0.26500
6352776;-0.28000
6355554;-0.27500
6358332;-0.27500
6361109;-0.26500
6363887;-0.26500
6366665;-0.29000
6369443;-0.29000
6372220;-0.28500
6374998;-0.27500
6377776;-0.28000
6380554;-0.29000
6383332;-0.31500
6386109;-0.30500
6388887;-0.28000
6391665;-0.26500
6394443;-0.27000
6397220;-0.29000
6399998;-0.33500
6402776;-0.36000
6405554;-0.38000
6408332;-0.39000
6411109;-0.38500
6413887;-0.38500
6416665;-0.39000
6419443;-0.41500
6422220;-0.41000
6424998;-0.41500
6427776;-0.40000
6430554;-0.39500
6433332;-0.40500
6436109;-0.42000
6438887;-0.42000
6441665;-0.41000
6444443;-0.40500
6447220;-0.40500
6449998;-0.41000
6452776;-0.42000
6455554;-0.41000
6458332;-0.41000
6461109;-0.40000
6463887;-0.40000
6466665;-0.41500
6469443;-0.43500
6472220;-0.44500
6474998;-0.44000
6477776;-0.46000
6480554;-0.50500
6483332;-0.52500
6486109;-0.56000
6488887;-0.60000
6491665;-0.65000
6494443;-0.61500
6497220;-0.54000
6499998;-0.42500
6502776;-0.33000
6505554;-0.20000
6508332;-0.04500
6511109;0.18000
6513887;0.43500
6516665;0.65500
6519443;0.79500
6522220;0.89000
6524998;0.87000
6527776;0.68500
6530554;0.32500
6533332;-0.05000
6536109;-0.34000
6538887;-0.50000
6541665;-0.55500
6544443;-0.53000
6547220;-0.48000
6549998;-0.45500
6552776;-0.46500
6555554;-0.46000
6558331;-0.46000
6561109;-0.44500
6563887;-0.44000
6566665;-0.44000
6569443;-0.45500
6572220;-0.46000
6574998;-0.45000
6577776;-0.45000
6580554;-0.45000
6583331;-0.45000
6586109;-0.45000
6588887;-0.45500
6591665;-0.45000
6594443;-0.45500
6597220;-0.44500
6599998;-0.46000
6602776;-0.48000
6605554;-0.47000
6608331;-0.46500
6611109;-0.44500
6613887;-0.45500
6616665;-0.44500
6619443;-0.45500
6622220;-0.45500
6624998;-0.45500
6627776;-0.45500
6630554;-0.44000
6633331;-0.46000
6636109;-0.47500
6638887;-0.46500
6641665;-0.46000
6644443;-0.45500
6647220;-0.46000
6649998;-0.46500
6652776;-0.46500
6655554;-0.46500
6658331;-0.46500
6661109;-0.45000
6663887;-0.45000
6666665;-0.46500
6669443;-0.48500
6672220;-0.47500
6674998;-0.46500
6677776;-0.45500
6680554;-0.44000
6683331;-0.45000
6686109;-0.46000
6688887;-0.46500
6691665;-0.45500
6694443;-0.45000
6697220;-0.45000
6699998;-0.45500
6702776;-0.47000
6705554;-0.46500
6708331;-0.45000
6711109;-0.43500
6713887;-0.43500
6716665;-0.45000
6719443;-0.48000
6722220;-0.46500
6724998;-0.47000
6727776;-0.46000
6730554;-0.46500
6733331;-0.47000
6736109;-0.47000
6738887;-0.48000
6741665;-0.48000
6744443;-0.47500
6747220;-0.48000
6749998;-0.49000
6752776;-0.50000
6755554;-0.49500
6758331;-0.50000
6761109;-0.48500
6763887;-0.49000
6766665;-0.51000
6769443;-0.50500
6772220;-0.52000
6774998;-0.51500
6777776;-0.51000
6780554;-0.51500
6783331;-0.50500
6786109;-0.52000
6788887;-0.51500
6791665;-0.50500
6794443;-0.47500
6797220;-0.46000
6799998;-0.45500
6802776;-0.44500
6805554;-0.42500
6808331;-0.40500
6811109;-0.40500
6813887;-0.39000
6816665;-0.39000
6819443;-0.41000
6822220;-0.39000
6824998;-0.37500
6827776;-0.36000
6830554;-0.35000
6833331;-0.35000
6836109;-0.35500
6838887;-0.36000
6841665;-0.35000
6844443;-0.33500
6847220;-0.33000
6849998;-0.35500
6852776;-0.36500
6855554;-0.36000
6858331;-0.33500
6861109;-0.33000
6863887;-0.33500
6866665;-0.36000
6869443;-0.38000
6872220;-0.38000
6874998;-0.36000
6877776;-0.35000
6880554;-0.34500
6883331;-0.34500
6886109;-0.36500
6888887;-0.34500
6891665;-0.34000
6894443;-0.32500
6897220;-0.33500
6899998;-0.35500
6902776;-0.36500
6905554;-0.35500
6908331;-0.35000
6911109;-0.34000
6913887;-0.35000
6916665;-0.35500
6919443;-0.38000
6922220;-0.38000
6924998;-0.38000
6927776;-0.37000
6930554;-0.36000
6933331;-0.36500
6936109;-0.37000
6938887;-0.37500
6941665;-0.36500
6944442;-0.36500
6947220;-0.37500
6949998;-0.38500
6952776;-0.38000
6955554;-0.38500
6958331;-0.37500
6961109;-0.36500
6963887;-0.37500
6966665;-0.38000
6969442;-0.40000
6972220;-0.39000
6974998;-0.39000
6977776;-0.38500
6980554;-0.37500
6983331;-0.37500
6986109;-0.40000
6988887;-0.40000
6991665;-0.39500
6994442;-0.39000
6997220;-0.39000
6999998;-0.39500
7002776;-0.40500
7005554;-0.41000
7008331;-0.41000
7011109;-0.39000
7013887;-0.37500
7016665;-0.39000
7019442;-0.40000
7022220;-0.39000
7024998;-0.39000
7027776;-0.36500
7030554;-0.38000
7033331;-0.38500
7036109;-0.39000
7038887;-0.39000
7041665;-0.38000
7044442;-0.37000
7047220;-0.37000
7049998;-0.38000
7052776;-0.39000
7055554;-0.39500
7058331;-0.38500
7061109;-0.38000
7063887;-0.37000
7066665;-0.38500
7069442;-0.38500
7072220;-0.38000
7074998;-0.37000
7077776;-0.35500
7080554;-0.35000
7083331;-0.34000
7086109;-0.33000
7088887;-0.32500
7091665;-0.31000
7094442;-0.31000
7097220;-0.29000
7099998;-0.29500
7102776;-0.31000
7105554;-0.30000
7108331;-0.28500
7111109;-0.26000
7113887;-0.25500
7116665;-0.25500
7119442;-0.27000
7122220;-0.25500
7124998;-0.26000
7127776;-0.24500
7130554;-0.25500
7133331;-0.27500
7136109;-0.29000
7138887;-0.28000
7141665;-0.27000
7144442;-0.27000
7147220;-0.28000
7149998;-0.29000
7152776;-0.31000
7155554;-0.28000
7158331;-0.25000
7161109;-0.25000
7163887;-0.27000
7166665;-0.31000
7169442;-0.33500
7172220;-0.35000
7174998;-0.35500
7177776;-0.36500
7180554;-0.37000
7183331;-0.38000
7186109;-0.40500
7188887;-0.39500
7191665;-0.38500
7194442;-0.37500
7197220;-0.36500
7199998;-0.37500
7202776;-0.38500
7205554;-0.38500
7208331;-0.37500
7211109;-0.37000
7213887;-0.37500
7216665;-0.38000
7219442;-0.39500
7222220;-0.38000
7224998;-0.37500
7227776;-0.37500
7230554;-0.37500
7233331;-0.39000
7236109;-0.40500
7238887;-0.39500
7241665;-0.38500
7244442;-0.37500
7247220;-0.38500
7249998;-0.41000
7252776;-0.45500
7255554;-0.49500
7258331;-0.50500
7261109;-0.50500
7263887;-0.55000
7266665;-0.59000
7269442;-0.56500
7272220;-0.45000
7274998;-0.29500
7277776;-0.12000
7280554;0.13500
7283331;0.42000
7286109;0.70000
7288887;0.89000
7291665;0.93500
7294442;0.74500
7297220;0.34000
7299998;-0.11500
7302776;-0.43000
7305554;-0.53000
7308331;-0.50500
7311109;-0.44500
7313887;-0.40000
7316665;-0.40500
7319442;-0.41000
7322220;-0.41500
7324998;-0.42000
7327776;-0.40000
7330554;-0.40500
7333331;-0.40500
7336109;-0.42500
7338887;-0.41000
7341665;-0.40500
7344442;-0.42000
7347220;-0.40500
7349998;-0.41500
7352776;-0.41500
7355553;-0.41500
7358331;-0.41000
7361109;-0.40000
7363887;-0.40500
7366665;-0.41000
7369442;-0.41500
7372220;-0.40500
7374998;-0.41000
7377776;-0.40000
7380553;-0.39500
7383331;-0.40500
7386109;-0.42000
7388887;-0.41000
7391665;-0.40500
7394442;-0.40000
7397220;-0.40500
7399998;-0.40500
7402776;-0.41000
7405553;-0.41500
7408331;-0.39500
7411109;-0.39500
7413887;-0.39500
7416665;-0.40500
7419442;-0.41500
7422220;-0.41500
7424998;-0.40000
7427776;-0.40000
7430553;-0.40000
7433331;-0.40500
7436109;-0.41500
7438887;-0.43000
7441665;-0.41500
7444442;-0.40500
7447220;-0.40500
7449998;-0.41000
7452776;-0.42000
7455553;-0.42000
7458331;-0.42000
7461109;-0.40000
7463887;-0.39500
7466665;-0.40000
7469442;-0.41000
7472220;-0.41500
7474998;-0.41500
7477776;-0.39000
7480553;-0.39500
7483331;-0.39500
7486109;-0.40500
7488887;-0.39500
7491665;-0.39000
7494442;-0.38500
7497220;-0.40000
7499998;-0.40000
7502776;-0.41000
7505553;-0.42000
7508331;-0.43000
7511109;-0.41500
7513887;-0.41500
7516665;-0.42000
7519442;-0.43500
7522220;-0.44000
7524998;-0.44000
7527776;-0.43000
7530553;-0.42500
7533331;-0.44000
7536109;-0.45500
7538887;-0.45500
7541665;-0.45000
7544442;-0.43500
7547220;-0.44000
7549998;-0.45000
7552776;-0.45500
7555553;-0.44500
7558331;-0.43500
7561109;-0.43000
7563887;-0.42000
7566665;-0.42500
7569442;-0.42500
7572220;-0.41500
7574998;-0.39000
7577776;-0.37000
7580553;-0.35500
7583331;-0.35500
7586109;-0.36500
7588887;-0.35500
7591665;-0.33000
7594442;-0.32000
7597220;-0.31500
7599998;-0.31500
7602776;-0.31000
7605553;-0.31000
7608331;-0.30000
7611109;-0.28500
7613887;-0.28000
7616665;-0.29500
7619442;-0.31500
7622220;-0.29500
7624998;-0.29000
7627776;-0.28000
7630553;-0.28500
7633331;-0.29500
7636109;-0.30000
7638887;-0.30000
7641665;-0.29000
7644442;-0.28000
7647220;-0.28500
7649998;-0.28500
7652776;-0.30000
7655553;-0.29500
7658331;-0.30000
7661109;-0.28000
7663887;-0.28500
7666665;-0.29000
7669442;-0.29500
7672220;-0.30500
7674998;-0.30000
7677776;-0.29000
7680553;-0.29500
7683331;-0.29500
7686109;-0.30500
7688887;-0.29500
7691665;-0.30000
7694442;-0.29500
7697220;-0.29500
7699998;-0.30000
7702776;-0.30500
7705553;-0.31500
7708331;-0.31000
7711109;-0.30500
7713887;-0.30500
7716665;-0.31000
7719442;-0.32000
7722220;-0.32000
7724998;-0.31000
7727776;-0.30000
7730553;-0.30500
7733331;-0.32000
7736109;-0.32500
7738887;-0.33000
7741664;-0.32500
7744442;-0.32000
7747220;-0.31500
7749998;-0.32500
7752776;-0.32500
7755553;-0.31500
7758331;-0.32000
7761109;-0.30500
7763887;-0.31500
7766664;-0.31500
7769442;-0.33000
7772220;-0.34000
7774998;-0.32000
7777776;-0.30500
7780553;-0.32000
7783331;-0.33000
7786109;-0.33500
7788887;-0.32500
7791664;-0.32500
7794442;-0.31500
7797220;-0.31500
7799998;-0.32000
7802776;-0.32500
7805553;-0.33500
7808331;-0.32500
7811109;-0.32000
7813887;-0.31000
7816664;-0.32500
7819442;-0.33500
7822220;-0.32500
7824998;-0.31500
7827776;-0.30500
7830553;-0.31000
7833331;-0.31500
7836109;-0.32000
7838887;-0.31500
7841664;-0.32500
7844442;-0.30500
7847220;-0.30000
7849998;-0.31000
7852776;-0.31500
7855553;-0.31500
7858331;-0.30500
7861109;-0.30500
7863887;-0.29500
7866664;-0.30500
7869442;-0.31000
7872220;-0.31000
7874998;-0.29500
7877776;-0.28000
7880553;-0.25500
7883331;-0.25000
7886109;-0.25500
7888887;-0.25000
7891664;-0.23500
7894442;-0.22500
7897220;-0.22500
7899998;-0.22000
7902776;-0.22000
7905553;-0.20000
7908331;-0.19000
7911109;-0.18000
7913887;-0.18000
7916664;-0.19000
7919442;-0.19500
7922220;-0.21500
7924998;-0.21000
7927776;-0.19500
7930553;-0.21500
7933331;-0.21000
7936109;-0.21000
7938887;-0.21000
7941664;-0.22000
7944442;-0.21000
7947220;-0.21500
7949998;-0.22000
7952776;-0.20500
7955553;-0.17500
7958331;-0.16000
7961109;-0.17500
7963887;-0.21000
7966664;-0.24000
7969442;-0.25000
7972220;-0.27500
7974998;-0.28000
7977776;-0.29000
7980553;-0.30000
7983331;-0.31000
7986109;-0.33000
7988887;-0.31500
7991664;-0.32000
7994442;-0.30500
7997220;-0.30500
7999998;-0.31500
8002776;-0.32000
8005553;-0.33500
8008331;-0.32000
8011109;-0.31000
8013887;-0.32500
8016664;-0.33500
8019442;-0.35000
8022220;-0.34000
8024998;-0.33500
8027776;-0.33500
8030553;-0.33500
8033331;-0.33500
8036109;-0.34000
8038887;-0.35000
8041664;-0.35000
8044442;-0.35500
8047220;-0.39000
8049998;-0.44500
8052776;-0.49000
8055553;-0.50000
8058331;-0.53500
8061109;-0.54500
8063887;-0.50000
8066664;-0.39000
8069442;-0.23500
8072220;-0.09500
8074998;0.06500
8077776;0.28000
8080553;0.55500
8083331;0.80500
8086109;0.97500
8088887;1.08500
8091664;1.12500
8094442;1.01000
8097220;0.66500
8099998;0.17500
8102776;-0.23500
8105553;-0.44500
8108331;-0.47500
8111109;-0.39500
8113887;-0.36000
8116664;-0.35500
8119442;-0.36000
8122220;-0.37500
8124998;-0.37000
8127776;-0.35000
8130553;-0.35000
8133331;-0.36500
8136109;-0.37000
8138887;-0.37500
8141664;-0.37000
8144442;-0.37000
8147220;-0.36500
8149998;-0.37500
8152775;-0.38000
8155553;-0.37500
8158331;-0.37500
8161109;-0.35500
8163887;-0.36500
8166664;-0.37000
8169442;-0.37500
8172220;-0.37500
8174998;-0.36500
8177775;-0.36000
8180553;-0.35500
8183331;-0.37000
8186109;-0.38000
8188887;-0.37500
8191664;-0.36000
8194442;-0.36000
8197220;-0.35500
8199998;-0.36500
8202775;-0.36500
8205553;-0.38000
8208331;-0.36000
8211109;-0.36500
8213887;-0.36000
8216664;-0.36000
8219442;-0.36000
8222220;-0.36500
8224998;-0.36000
8227775;-0.35000
8230553;-0.36000
8233331;-0.35000
8236109;-0.36500
8238887;-0.37000
8241664;-0.36000
8244442;-0.35000
8247220;-0.36500
8249998;-0.37000
8252775;-0.37500
8255553;-0.37500
8258331;-0.37500
8261109;-0.36000
8263887;-0.37000
8266664;-0.36500
8269442;-0.36500
8272220;-0.36500
8274998;-0.37000
8277775;-0.35000
8280553;-0.35500
8283331;-0.36000
8286109;-0.37000
8288887;-0.37000
8291664;-0.36500
8294442;-0.35000
8297220;-0.36500
8299998;-0.36500
8302775;-0.38500
8305553;-0.37500
8308331;-0.37000
8311109;-0.36000
8313887;-0.36500
8316664;-0.37000
8319442;-0.38000
8322220;-0.38500
8324998;-0.37500
8327775;-0.37000
8330553;-0.37500
8333331;-0.37500
8336109;-0.38500
8338887;-0.38000
8341664;-0.38000
8344442;-0.36000
8347220;-0.36500
8349998;-0.37500
8352775;-0.38500
8355553;-0.38000
8358331;-0.35500
8361109;-0.35500
8363887;-0.34500
8366664;-0.34000
8369442;-0.34500
8372220;-0.33500
8374998;-0.31000
8377775;-0.30500
8380553;-0.30000
8383331;-0.30500
8386109;-0.30500
8388887;-0.30500
8391664;-0.28500
8394442;-0.27500
8397220;-0.27500
8399998;-0.27500
8402775;-0.28000
8405553;-0.28000
8408331;-0.26500
8411109;-0.25500
8413887;-0.25500
8416664;-0.25000
8419442;-0.27000
8422220;-0.26000
8424998;-0.26000
8427775;-0.25000
8430553;-0.25500
8433331;-0.27000
8436109;-0.28000
8438887;-0.28000
8441664;-0.28000
8444442;-0.26500
8447220;-0.25500
8449998;-0.27500
8452775;-0.27000
8455553;-0.29000
8458331;-0.27500
8461109;-0.27000
8463887;-0.27000
8466664;-0.28500
8469442;-0.29000
8472220;-0.29500
8474998;-0.28500
8477775;-0.27500
8480553;-0.27500
8483331;-0.29000
8486109;-0.28500
8488887;-0.29000
8491664;-0.28500
8494442;-0.28500
8497220;-0.28500
8499998;-0.29500
8502775;-0.30000
8505553;-0.30500
8508331;-0.29500
8511109;-0.29000
8513887;-0.30000
8516664;-0.30000
8519442;-0.31500
8522220;-0.31500
8524998;-0.30500
8527775;-0.30000
8530553;-0.29500
8533331;-0.30500
8536109;-0.31000
8538886;-0.31000
8541664;-0.30000
8544442;-0.29500
8547220;-0.30000
8549998;-0.31500
8552775;-0.31000
8555553;-0.32000
8558331;-0.31500
8561109;-0.30000
8563886;-0.31000
8566664;-0.30500
8569442;-0.32000
8572220;-0.32000
8574998;-0.32000
8577775;-0.31500
8580553;-0.31500
8583331;-0.31000
8586109;-0.32500
8588886;-0.32000
8591664;-0.32000
8594442;-0.31000
8597220;-0.30500
8599998;-0.32000
8602775;-0.31500
8605553;-0.32500
8608331;-0.32000
8611109;-0.30000
8613886;-0.31500
8616664;-0.32000
8619442;-0.32000
8622220;-0.31000
8624998;-0.31500
8627775;-0.30000
8630553;-0.30500
8633331;-0.32500
8636109;-0.31000
8638886;-0.31500
8641664;-0.30500
8644442;-0.30000
8647220;-0.29500
8649998;-0.31000
8652775;-0.31000
8655553;-0.31000
8658331;-0.29500
8661109;-0.29500
8663886;-0.29000
8666664;-0.30000
8669442;-0.28000
8672220;-0.27000
8674998;-0.24500
8677775;-0.23000
8680553;-0.23000
8683331;-0.24000
8686109;-0.24000
8688886;-0.23500
8691664;-0.21000
8694442;-0.19500
8697220;-0.21000
8699998;-0.21000
8702775;-0.20500
8705553;-0.20000
8708331;-0.18500
8711109;-0.17000
8713886;-0.19000
8716664;-0.20000
8719442;-0.20000
8722220;-0.21500
8724998;-0.20500
8727775;-0.20000
8730553;-0.21500
8733331;-0.21000
8736109;-0.22000
8738886;-0.24500
8741664;-0.24000
8744442;-0.20500
8747220;-0.19000
8749998;-0.17500
8752775;-0.21000
8755553;-0.23500
8758331;-0.25500
8761109;-0.26000
8763886;-0.28000
8766664;-0.30000
8769442;-0.32000
8772220;-0.31500
8774998;-0.32000
8777775;-0.30500
8780553;-0.31000
8783331;-0.31500
8786109;-0.33000
8788886;-0.33000
8791664;-0.31000
8794442;-0.30500
8797220;-0.30000
8799998;-0.32000
8802775;-0.33500
8805553;-0.33000
8808331;-0.32500
8811109;-0.33000
8813886;-0.31000
8816664;-0.32000
8819442;-0.34000
8822220;-0.33500
8824998;-0.32500
8827775;-0.32500
8830553;-0.32500
8833331;-0.33000
8836109;-0.36000
8838886;-0.39000
8841664;-0.42000
8844442;-0.44000
8847220;-0.46000
8849998;-0.48500
8852775;-0.54000
8855553;-0.59000
8858331;-0.58500
8861109;-0.53500
8863886;-0.46000
8866664;-0.37500
8869442;-0.33000
8872220;-0.28500
8874998;-0.21500
8877775;-0.12000
8880553;0.01500
8883331;0.20000
8886109;0.45000
8888886;0.69500
8891664;0.87000
8894442;0.90500
8897220;0.74000
8899998;0.40500
8902775;0.00000
8905553;-0.32500
8908331;-0.45500
8911109;-0.44000
8913886;-0.39000
8916664;-0.36500
8919442;-0.37000
8922220;-0.36000
8924998;-0.36000
8927775;-0.33500
8930553;-0.35000
8933331;-0.36000
8936109;-0.36000
8938886;-0.35500
8941664;-0.36000
8944442;-0.35500
8947220;-0.36500
8949997;-0.35500
8952775;-0.36000
8955553;-0.37000
8958331;-0.36000
8961109;-0.34500
8963886;-0.35500
8966664;-0.36000
8969442;-0.36000
8972220;-0.36500
8974997;-0.36500
8977775;-0.35000
8980553;-0.36000
8983331;-0.37000
8986109;-0.38000
8988886;-0.37000
8991664;-0.36000
8994442;-0.35500
8997220;-0.36500
8999997;-0.36000
9002775;-0.37000
9005553;-0.37500
9008331;-0.35500
9011109;-0.34500
9013886;-0.35000
9016664;-0.35500
9019442;-0.37000
9022220;-0.36500
9024997;-0.35000
9027775;-0.34500
9030553;-0.34500
9033331;-0.35000
9036109;-0.36500
9038886;-0.37000
9041664;-0.36500
9044442;-0.35000
9047220;-0.36500
9049997;-0.37500
9052775;-0.37000
9055553;-0.38000
9058331;-0.36500
9061109;-0.35000
9063886;-0.36500
9066664;-0.36500
9069442;-0.35500
9072220;-0.37500
9074997;-0.37500
9077775;-0.36000
9080553;-0.36500
9083331;-0.36500
9086109;-0.36500
9088886;-0.36500
9091664;-0.36500
9094442;-0.35500
9097220;-0.36500
9099997;-0.37000
9102775;-0.38500
9105553;-0.37500
9108331;-0.37000
9111109;-0.37000
9113886;-0.36500
9116664;-0.37000
9119442;-0.38000
9122220;-0.38000
9124997;-0.39000
9127775;-0.37000
9130553;-0.37500
9133331;-0.38500
9136109;-0.38500
9138886;-0.40000
9141664;-0.39000
9144442;-0.37500
9147220;-0.38500
9149997;-0.39000
9152775;-0.39500
9155553;-0.39500
9158331;-0.38500
9161109;-0.39000
9163886;-0.39500
9166664;-0.40000
9169442;-0.40000
9172220;-0.40000
9174997;-0.39500
9177775;-0.36500
9180553;-0.36500
9183331;-0.36500
9186109;-0.36500
9188886;-0.37000
9191664;-0.35000
9194442;-0.33500
9197220;-0.33500
9199997;-0.33000
9202775;-0.34000
9205553;-0.34500
9208331;-0.30500
9211109;-0.30000
9213886;-0.30000
9216664;-0.30000
9219442;-0.31000
9222220;-0.31500
9224997;-0.30000
9227775;-0.29000
9230553;-0.28000
9233331;-0.30000
9236109;-0.30000
9238886;-0.31000
9241664;-0.29000
9244442;-0.29000
9247220;-0.29500
9249997;-0.30500
9252775;-0.31000
9255553;-0.31500
9258331;-0.30500
9261109;-0.30000
9263886;-0.31000
9266664;-0.32500
9269442;-0.32000
9272220;-0.32000
9274997;-0.31000
9277775;-0.29500
9280553;-0.31000
9283331;-0.30500
9286109;-0.32000
9288886;-0.32500
9291664;-0.32000
9294442;-0.31000
9297220;-0.31500
9299997;-0.32500
9302775;-0.32500
9305553;-0.33500
9308331;-0.31500
9311109;-0.31000
9313886;-0.32500
9316664;-0.32500
9319442;-0.33500
9322220;-0.33500
9324997;-0.33500
9327775;-0.33000
9330553;-0.34000
9333331;-0.34000
9336108;-0.34000
9338886;-0.34500
9341664;-0.33500
9344442;-0.33000
9347220;-0.33000
9349997;-0.34500
9352775;-0.34500
9355553;-0.34500
9358331;-0.34000
9361108;-0.33000
9363886;-0.34500
9366664;-0.35000
9369442;-0.37000
9372220;-0.37500
9374997;-0.35500
9377775;-0.36000
9380553;-0.34000
9383331;-0.35500
9386108;-0.36000
9388886;-0.36000
9391664;-0.36000
9394442;-0.35000
9397220;-0.34000
9399997;-0.34000
9402775;-0.36000
9405553;-0.36000
9408331;-0.36000
9411108;-0.35000
9413886;-0.35000
9416664;-0.34500
9419442;-0.34500
9422220;-0.35500
9424997;-0.35000
9427775;-0.33500
9430553;-0.35500
9433331;-0.36000
9436108;-0.37000
9438886;-0.36500
9441664;-0.35000
9444442;-0.35500
9447220;-0.35500
9449997;-0.36000
9452775;-0.36500
9455553;-0.36000
9458331;-0.35000
9461108;-0.34000
9463886;-0.34000
9466664;-0.35000
9469442;-0.35500
9472220;-0.36000
9474997;-0.35500
9477775;-0.33000
9480553;-0.32500
9483331;-0.32500
9486108;-0.32000
9488886;-0.31500
9491664;-0.29500
9494442;-0.27500
9497220;-0.28000
9499997;-0.29000
9502775;-0.30000
9505553;-0.28500
9508331;-0.26500
9511108;-0.25500
9513886;-0.25500
9516664;-0.24500
9519442;-0.24500
9522220;-0.25000
9524997;-0.24000
9527775;-0.22500
9530553;-0.22500
9533331;-0.23500
9536108;-0.25000
9538886;-0.26000
9541664;-0.26500
9544442;-0.24500
9547220;-0.26000
9549997;-0.28000
9552775;-0.27000
9555553;-0.27000
9558331;-0.24500
9561108;-0.22500
9563886;-0.24500
9566664;-0.27500
9569442;-0.30000
9572220;-0.33500
9574997;-0.34500
9577775;-0.32000
9580553;-0.33500
9583331;-0.34000
9586108;-0.35500
9588886;-0.36500
9591664;-0.36000
9594442;-0.35500
9597220;-0.36500
9599997;-0.36500
9602775;-0.37000
9605553;-0.37500
9608331;-0.35500
9611108;-0.35000
9613886;-0.34500
9616664;-0.35000
9619442;-0.35000
9622220;-0.36000
9624997;-0.36500
9627775;-0.36000
9630553;-0.37500
9633331;-0.37000
9636108;-0.39500
9638886;-0.39000
9641664;-0.37500
9644442;-0.36500
9647220;-0.37000
9649997;-0.37500
9652775;-0.38000
9655553;-0.38500
9658331;-0.38000
9661108;-0.37000
9663886;-0.39000
9666664;-0.41500
9669442;-0.46500
9672220;-0.48500
9674997;-0.49000
9677775;-0.53500
9680553;-0.56000
9683331;-0.56500
9686108;-0.50000
9688886;-0.38000
9691664;-0.24000
9694442;-0.07000
9697220;0.14000
9699997;0.39500
9702775;0.63000
9705553;0.81500
9708331;0.90000
9711108;0.86000
9713886;0.64000
9716664;0.27500
9719442;-0.08000
9722220;-0.34000
9724997;-0.46500
9727775;-0.50000
9730553;-0.49000
9733331;-0.46000
9736108;-0.44500
9738886;-0.44000
9741664;-0.45000
9744442;-0.42000
9747219;-0.41500
9749997;-0.41000
9752775;-0.40500
9755553;-0.42000
9758331;-0.39500
9761108;-0.39500
9763886;-0.39000
9766664;-0.40500
9769442;-0.42500
9772219;-0.43000
9774997;-0.41000
9777775;-0.41000
9780553;-0.42500
9783331;-0.42500
9786108;-0.43500
9788886;-0.43000
9791664;-0.42500
9794442;-0.40500
9797219;-0.40500
9799997;-0.41000
9802775;-0.40500
9805553;-0.42000
9808331;-0.41500
9811108;-0.40500
9813886;-0.41000
9816664;-0.42500
9819442;-0.42500
9822219;-0.42000
9824997;-0.41500
9827775;-0.40500
9830553;-0.41500
9833331;-0.41000
9836108;-0.41500
9838886;-0.42500
9841664;-0.41500
9844442;-0.40500
9847219;-0.41500
9849997;-0.42500
9852775;-0.42500
9855553;-0.43000
9858331;-0.41000
9861108;-0.40000
9863886;-0.40000
9866664;-0.40500
9869442;-0.40500
9872219;-0.40500
9874997;-0.40000
9877775;-0.39000
9880553;-0.39500
9883331;-0.40500
9886108;-0.42000
9888886;-0.42500
9891664;-0.42000
9894442;-0.41000
9897219;-0.41000
9899997;-0.40500
9902775;-0.41500
9905553;-0.41500
9908331;-0.41000
9911108;-0.40500
9913886;-0.40000
9916664;-0.40500
9919442;-0.41500
9922219;-0.42500
9924997;-0.41000
9927775;-0.41500
9930553;-0.40500
9933331;-0.41500
9936108;-0.42500
9938886;-0.42500
9941664;-0.42000
9944442;-0.41000
9947219;-0.41000
9949997;-0.43000
9952775;-0.44500
9955553;-0.44500
9958331;-0.43500
9961108;-0.43500
9963886;-0.44500
9966664;-0.45500
9969442;-0.46500
9972219;-0.47000
9974997;-0.46500
9977775;-0.46000
9980553;-0.47000
9983331;-0.48000
9986108;-0.47500
9988886;-0.48500
9991664;-0.47500
9994442;-0.46000
9997219;-0.46000
9999997;-0.47000
10002775;-0.46500
10005553;-0.47000
10008331;-0.45500
10011108;-0.43000
10013886;-0.42500
10016664;-0.42500
10019442;-0.41500
10022219;-0.41000
10024997;-0.38500
10027775;-0.36500
10030553;-0.36500
10033331;-0.35500
10036108;-0.35500
10038886;-0.36000
10041664;-0.33500
10044442;-0.32500
10047219;-0.32500
10049997;-0.32500
10052775;-0.33000
10055553;-0.33500
10058331;-0.32000
10061108;-0.30000
10063886;-0.30500
10066664;-0.31000
10069442;-0.32500
10072219;-0.32500
10074997;-0.32500
10077775;-0.30000
10080553;-0.30000
10083331;-0.30500
10086108;-0.31500
10088886;-0.31500
10091664;-0.30500
10094442;-0.29000
10097219;-0.30000
10099997;-0.30500
10102775;-0.32500
10105553;-0.32000
10108331;-0.31000
10111108;-0.31500
10113886;-0.31000
10116664;-0.33000
10119442;-0.32000
10122219;-0.32500
10124997;-0.31500
10127775;-0.31500
10130553;-0.31500
10133330;-0.30500
10136108;-0.32000
10138886;-0.33000
10141664;-0.32000
10144442;-0.31000
10147219;-0.31500
10149997;-0.31000
10152775;-0.32000
10155553;-0.32500
10158330;-0.33000
10161108;-0.31000
10163886;-0.31500
10166664;-0.32500
10169442;-0.32500
10172219;-0.34000
10174997;-0.32500
10177775;-0.31500
10180553;-0.31000
10183330;-0.32500
10186108;-0.33000
10188886;-0.33000
10191664;-0.33000
10194442;-0.32500
10197219;-0.31500
10199997;-0.32500
10202775;-0.33000
10205553;-0.34000
10208330;-0.32500
10211108;-0.32000
10213886;-0.33000
10216664;-0.33500
10219442;-0.34000
10222219;-0.33500
10224997;-0.33000
10227775;-0.31000
10230553;-0.31500
10233330;-0.33000
10236108;-0.32000
10238886;-0.32000
10241664;-0.31500
10244442;-0.30000
10247219;-0.31500
10249997;-0.33500
10252775;-0.33500
10255553;-0.33500
10258330;-0.33000
10261108;-0.31000
10263886;-0.31000
10266664;-0.31000
10269442;-0.33500
10272219;-0.33000
10274997;-0.31500
10277775;-0.30500
10280553;-0.31500
10283330;-0.34000
10286108;-0.32500
10288886;-0.31500
10291664;-0.33000
10294442;-0.31000
10297219;-0.30500
10299997;-0.32000
10302775;-0.32000
10305553;-0.32000
10308330;-0.31000
10311108;-0.29500
10313886;-0.28500
10316664;-0.28000
10319442;-0.27500
10322219;-0.26500
10324997;-0.24500
10327775;-0.24000
10330553;-0.23500
10333330;-0.24000
10336108;-0.24500
10338886;-0.24500
10341664;-0.23500
10344442;-0.21500
10347219;-0.22000
10349997;-0.21000
10352775;-0.22000
10355553;-0.21500
10358330;-0.19500
10361108;-0.17500
10363886;-0.18000
10366664;-0.20500
10369442;-0.21500
10372219;-0.20500
10374997;-0.20500
10377775;-0.19500
10380553;-0.21000
10383330;-0.21000
10386108;-0.22500
10388886;-0.24000
10391664;-0.23000
10394442;-0.22000
10397219;-0.20500
10399997;-0.21000
10402775;-0.20000
10405553;-0.21000
10408330;-0.23500
10411108;-0.25500
10413886;-0.27500
10416664;-0.29000
10419442;-0.31500
10422219;-0.32000
10424997;-0.30000
10427775;-0.31000
10430553;-0.32000
10433330;-0.33500
10436108;-0.34000
10438886;-0.32500
10441664;-0.32000
10444442;-0.31000
10447219;-0.31000
10449997;-0.33000
10452775;-0.33000
10455553;-0.34000
10458330;-0.33000
10461108;-0.31500
10463886;-0.32000
10466664;-0.33000
10469442;-0.33500
10472219;-0.34500
10474997;-0.32500
10477775;-0.32500
10480553;-0.32000
10483330;-0.33000
10486108;-0.33500
10488886;-0.33500
10491664;-0.34000
10494442;-0.33000
10497219;-0.34500
10499997;-0.37500
10502775;-0.42000
10505553;-0.45500
10508330;-0.46500
10511108;-0.47500
10513886;-0.51500
10516664;-0.56000
10519441;-0.55000
10522219;-0.49000
10524997;-0.35000
10527775;-0.19000
10530553;-0.01500
10533330;0.18500
10536108;0.45500
10538886;0.72000
10541664;0.93000
10544441;1.03500
10547219;0.99000
10549997;0.77000
10552775;0.40000
10555553;-0.02500
10558330;-0.31500
10561108;-0.44500
10563886;-0.47500
10566664;-0.45500
10569441;-0.42000
10572219;-0.38500
10574997;-0.36000
10577775;-0.35000
10580553;-0.36000
10583330;-0.37000
10586108;-0.37000
10588886;-0.38500
10591664;-0.38000
10594441;-0.36000
10597219;-0.36000
10599997;-0.37000
10602775;-0.38000
10605553;-0.37500
10608330;-0.37000
10611108;-0.37000
10613886;-0.37000
10616664;-0.38000
10619441;-0.38000
10622219;-0.38500
10624997;-0.37000
10627775;-0.35500
10630553;-0.36000
10633330;-0.36500
10636108;-0.36500
10638886;-0.36000
10641664;-0.36000
10644441;-0.35000
10647219;-0.35500
10649997;-0.36000
10652775;-0.37000
10655553;-0.37000
10658330;-0.35500
10661108;-0.34500
10663886;-0.34500
10666664;-0.36500
10669441;-0.35500
10672219;-0.36500
10674997;-0.35500
10677775;-0.35000
10680553;-0.35500
10683330;-0.35000
10686108;-0.36000
10688886;-0.36500
10691664;-0.35000
10694441;-0.35500
10697219;-0.34000
10699997;-0.35500
10702775;-0.37000
10705553;-0.35500
10708330;-0.34500
10711108;-0.34000
10713886;-0.34000
10716664;-0.34500
10719441;-0.34500
10722219;-0.34500
10724997;-0.34000
10727775;-0.34000
10730553;-0.35000
10733330;-0.35000
10736108;-0.35500
10738886;-0.35500
10741664;-0.35000
10744441;-0.34500
10747219;-0.34500
10749997;-0.35500
10752775;-0.35000
10755553;-0.36500
10758330;-0.35000
10761108;-0.34500
10763886;-0.34500
10766664;-0.35000
10769441;-0.36000
10772219;-0.36000
10774997;-0.36000
10777775;-0.35000
10780553;-0.34500
10783330;-0.36500
10786108;-0.37000
10788886;-0.37500
10791664;-0.36500
10794441;-0.35500
10797219;-0.36500
10799997;-0.37500
10802775;-0.37500
10805553;-0.39500
10808330;-0.38500
10811108;-0.37000
10813886;-0.37000
10816664;-0.38000
10819441;-0.38500
10822219;-0.39500
10824997;-0.38000
10827775;-0.37500
10830553;-0.37000
10833330;-0.36500
10836108;-0.38000
10838886;-0.37000
10841664;-0.36000
10844441;-0.34000
10847219;-0.33500
10849997;-0.33500
10852775;-0.34000
10855553;-0.34500
10858330;-0.32500
10861108;-0.31000
10863886;-0.31500
10866664;-0.30500
10869441;-0.30500
10872219;-0.30500
10874997;-0.28000
10877775;-0.27000
10880553;-0.26000
10883330;-0.26500
10886108;-0.27500
10888886;-0.26500
10891664;-0.25000
10894441;-0.23500
10897219;-0.24500
10899997;-0.25000
10902775;-0.25000
10905553;-0.25500
10908330;-0.24500
10911108;-0.23500
10913886;-0.24500
10916664;-0.23500
10919441;-0.25500
10922219;-0.26000
10924997;-0.24000
10927775;-0.23500
10930552;-0.23500
10933330;-0.23500
10936108;-0.25000
10938886;-0.25500
10941664;-0.25000
10944441;-0.24500
10947219;-0.24000
10949997;-0.25500
10952775;-0.26000
10955552;-0.26000
10958330;-0.25500
10961108;-0.24500
10963886;-0.25500
10966664;-0.26500
10969441;-0.26500
10972219;-0.26500
10974997;-0.26500
10977775;-0.26500
10980552;-0.26500
10983330;-0.26000
10986108;-0.27500
10988886;-0.28500
10991664;-0.28000
10994441;-0.27500
10997219;-0.27000
10999997;-0.27500
11002775;-0.29000
11005552;-0.29000
11008330;-0.28000
11011108;-0.27500
11013886;-0.27500
11016664;-0.28000
11019441;-0.30000
11022219;-0.30500
11024997;-0.28500
11027775;-0.27000
11030552;-0.27500
11033330;-0.28000
11036108;-0.28500
11038886;-0.29500
11041664;-0.28000
11044441;-0.29000
11047219;-0.29000
11049997;-0.28500
11052775;-0.30500
11055552;-0.29000
11058330;-0.29000
11061108;-0.29500
11063886;-0.28500
11066664;-0.28000
11069441;-0.29000
11072219;-0.31000
11074997;-0.29500
11077775;-0.28000
11080552;-0.29000
11083330;-0.30000
11086108;-0.30000
11088886;-0.29500
11091664;-0.29500
11094441;-0.28500
11097219;-0.28500
11099997;-0.29000
11102775;-0.30000
11105552;-0.29000
11108330;-0.27500
11111108;-0.27500
11113886;-0.27000
11116664;-0.29000
11119441;-0.28500
11122219;-0.29000
11124997;-0.27000
11127775;-0.27500
11130552;-0.27000
11133330;-0.28000
11136108;-0.26500
11138886;-0.28000
11141664;-0.28000
11144441;-0.28500
11147219;-0.28500
11149997;-0.27000
11152775;-0.27000
11155552;-0.26500
11158330;-0.25000
11161108;-0.24500
11163886;-0.21500
11166664;-0.21500
11169441;-0.20500
11172219;-0.20500
11174997;-0.21000
11177775;-0.20000
11180552;-0.18000
11183330;-0.18000
11186108;-0.18000
11188886;-0.17500
11191664;-0.16000
11194441;-0.16000
11197219;-0.15500
11199997;-0.17000
11202775;-0.17500
11205552;-0.19500
11208330;-0.18500
11211108;-0.18500
11213886;-0.18500
11216664;-0.18000
11219441;-0.21000
11222219;-0.20000
11224997;-0.18500
11227775;-0.15500
11230552;-0.15000
11233330;-0.16500
11236108;-0.20500
11238886;-0.23000
11241664;-0.23000
11244441;-0.24500
11247219;-0.26000
11249997;-0.27000
11252775;-0.28500
11255552;-0.29000
11258330;-0.28500
11261108;-0.28500
11263886;-0.27500
11266664;-0.29000
11269441;-0.30000
11272219;-0.30500
11274997;-0.29500
11277775;-0.30000
11280552;-0.30500
11283330;-0.31500
11286108;-0.31500
11288886;-0.32000
11291664;-0.32000
11294441;-0.30500
11297219;-0.31000
11299997;-0.30500
11302775;-0.32000
11305552;-0.31500
11308330;-0.31000
11311108;-0.31000
11313886;-0.31000
11316663;-0.32000
11319441;-0.34000
11322219;-0.35500
11324997;-0.39500
11327775;-0.42500
11330552;-0.44000
11333330;-0.46000
11336108;-0.50500
11338886;-0.54500
11341663;-0.52000
11344441;-0.42000
11347219;-0.27000
11349997;-0.11000
11352775;0.07500
11355552;0.33000
11358330;0.64500
11361108;0.89000
11363886;1.00000
11366663;0.97500
11369441;0.74500
11372219;0.32000
11374997;-0.12000
11377775;-0.38000
11380552;-0.45000
11383330;-0.42000
11386108;-0.37500
11388886;-0.35000
11391663;-0.33000
11394441;-0.33500
11397219;-0.35000
11399997;-0.33500
11402775;-0.34000
11405552;-0.34500
11408330;-0.34500
11411108;-0.35000
11413886;-0.33500
11416663;-0.35000
11419441;-0.36500
11422219;-0.37000
11424997;-0.36500
11427775;-0.35500
11430552;-0.34000
11433330;-0.35500
11436108;-0.36500
11438886;-0.37000
11441663;-0.36000
11444441;-0.35000
11447219;-0.35000
11449997;-0.36000
11452775;-0.36000
11455552;-0.36500
11458330;-0.34500
11461108;-0.36000
11463886;-0.35500
11466663;-0.35000
11469441;-0.36000
11472219;-0.35000
11474997;-0.34000
11477775;-0.33500
11480552;-0.33000
11483330;-0.35500
11486108;-0.35000
11488886;-0.35500
11491663;-0.34000
11494441;-0.33500
11497219;-0.33500
11499997;-0.35000
11502775;-0.35000
11505552;-0.35000
11508330;-0.34000
11511108;-0.34000
11513886;-0.33000
11516663;-0.35000
11519441;-0.35000
11522219;-0.34500
11524997;-0.33500
11527775;-0.33500
11530552;-0.33000
11533330;-0.33500
11536108;-0.34500
11538886;-0.35500
11541663;-0.33500
11544441;-0.32500
11547219;-0.32500
11549997;-0.33500
11552775;-0.35000
11555552;-0.35000
11558330;-0.34000
11561108;-0.33000
11563886;-0.34000
11566663;-0.34500
11569441;-0.34000
11572219;-0.35500
11574997;-0.34500
11577775;-0.33000
11580552;-0.34000
11583330;-0.33500
11586108;-0.34500
11588886;-0.35000
11591663;-0.33500
11594441;-0.33000
11597219;-0.33500
11599997;-0.34000
11602775;-0.35000
11605552;-0.35500
11608330;-0.35000
11611108;-0.33500
11613886;-0.34500
11616663;-0.34500
11619441;-0.35500
11622219;-0.37000
11624997;-0.36000
11627775;-0.35000
11630552;-0.35000
11633330;-0.35500
11636108;-0.35500
11638886;-0.37000
11641663;-0.36000
11644441;-0.34500
11647219;-0.35000
11649997;-0.35500
11652775;-0.37500
11655552;-0.36500
11658330;-0.36500
11661108;-0.35000
11663886;-0.34000
11666663;-0.33500
11669441;-0.33500
11672219;-0.33500
11674997;-0.32500
11677775;-0.30000
11680552;-0.29000
11683330;-0.28500
11686108;-0.28500
11688886;-0.28500
11691663;-0.27500
11694441;-0.26500
11697219;-0.26000
11699997;-0.26500
11702775;-0.26500
11705552;-0.27000
11708330;-0.25500
11711108;-0.24000
11713886;-0.24500
11716663;-0.27000
11719441;-0.26000
11722219;-0.26000
11724997;-0.26000
11727774;-0.25000
11730552;-0.25000
11733330;-0.25500
11736108;-0.25500
11738886;-0.27000
11741663;-0.25000
11744441;-0.24500
11747219;-0.24500
11749997;-0.25500
11752774;-0.25500
11755552;-0.27000
11758330;-0.26000
11761108;-0.25500
11763886;-0.26000
11766663;-0.26500
11769441;-0.27000
11772219;-0.27500
11774997;-0.26500
11777774;-0.26000
11780552;-0.26500
11783330;-0.26500
11786108;-0.27500
11788886;-0.27500
11791663;-0.27000
11794441;-0.26500
11797219;-0.27500
11799997;-0.27000
11802774;-0.28000
11805552;-0.29000
11808330;-0.27000
11811108;-0.26500
11813886;-0.27000
11816663;-0.28000
11819441;-0.29000
11822219;-0.30000
11824997;-0.28500
11827774;-0.29000
11830552;-0.28500
11833330;-0.29000
11836108;-0.29500
11838886;-0.30500
11841663;-0.29000
11844441;-0.28000
11847219;-0.29500
11849997;-0.30000
11852774;-0.31000
11855552;-0.32000
11858330;-0.30500
11861108;-0.30500
11863886;-0.29000
11866663;-0.29500
11869441;-0.30000
11872219;-0.30500
11874997;-0.30500
11877774;-0.31000
11880552;-0.29500
11883330;-0.29500
11886108;-0.31500
11888886;-0.32000
11891663;-0.31000
11894441;-0.30500
11897219;-0.30000
11899997;-0.30500
11902774;-0.30500
11905552;-0.31000
11908330;-0.29000
11911108;-0.28500
11913886;-0.29500
11916663;-0.29500
11919441;-0.30500
11922219;-0.31500
11924997;-0.29500
11927774;-0.30000
11930552;-0.29000
11933330;-0.30000
11936108;-0.29000
11938886;-0.31000
11941663;-0.29500
11944441;-0.28500
11947219;-0.27500
11949997;-0.29500
11952774;-0.29500
11955552;-0.29500
11958330;-0.29500
11961108;-0.28000
11963886;-0.27000
11966663;-0.26000
11969441;-0.25000
11972219;-0.25000
11974997;-0.22500
11977774;-0.22500
11980552;-0.21500
11983330;-0.21500
11986108;-0.23000
11988886;-0.24000
11991663;-0.23000
11994441;-0.22000
11997219;-0.22000
11999997;-0.22500
12002774;-0.23000
12005552;-0.22000
12008330;-0.21000
12011108;-0.18000
12013886;-0.17500
12016663;-0.18500
12019441;-0.19500
12022219;-0.20000
12024997;-0.20000
12027774;-0.20000
12030552;-0.20000
12033330;-0.21000
12036108;-0.21500
12038886;-0.22000
12041663;-0.20500
12044441;-0.21500
12047219;-0.21500
12049997;-0.20000
12052774;-0.18500
12055552;-0.17000
12058330;-0.18500
12061108;-0.21500
12063886;-0.24500
12066663;-0.25500
12069441;-0.27500
12072219;-0.28500
12074997;-0.29000
12077774;-0.29000
12080552;-0.31000
12083330;-0.31000
12086108;-0.33500
12088886;-0.34500
12091663;-0.33000
12094441;-0.32500
12097219;-0.32500
12099997;-0.33000
12102774;-0.32500
12105552;-0.33500
12108330;-0.33500
12111108;-0.32500
12113885;-0.33000
12116663;-0.34000
12119441;-0.34500
12122219;-0.35500
12124997;-0.33500
12127774;-0.33500
12130552;-0.33000
12133330;-0.32500
12136108;-0.34000
12138885;-0.33500
12141663;-0.33000
12144441;-0.34500
12147219;-0.35500
12149997;-0.39000
12152774;-0.42500
12155552;-0.46000
12158330;-0.47500
12161108;-0.51000
12163885;-0.56000
12166663;-0.58000
12169441;-0.53000
12172219;-0.41000
12174997;-0.28500
12177774;-0.13000
12180552;0.07500
12183330;0.34500
12186108;0.59000
12188885;0.77500
12191663;0.89500
12194441;0.86500
12197219;0.64000
12199997;0.29000
12202774;-0.04500
12205552;-0.32000
12208330;-0.46000
12211108;-0.48500
12213885;-0.46500
12216663;-0.44000
12219441;-0.41500
12222219;-0.39500
12224997;-0.38000
12227774;-0.38000
12230552;-0.38000
12233330;-0.36500
12236108;-0.38000
12238885;-0.37500
12241663;-0.37000
12244441;-0.36500
12247219;-0.37000
12249997;-0.39000
12252774;-0.39500
12255552;-0.40000
12258330;-0.38000
12261108;-0.37500
12263885;-0.37500
12266663;-0.36500
12269441;-0.39000
12272219;-0.38000
12274997;-0.37500
12277774;-0.37000
12280552;-0.36500
12283330;-0.38000
12286108;-0.38500
12288885;-0.39000
12291663;-0.38000
12294441;-0.37500
12297219;-0.37000
12299997;-0.37000
12302774;-0.37500
12305552;-0.38000
12308330;-0.37500
12311108;-0.37000
12313885;-0.38000
12316663;-0.37000
12319441;-0.39000
12322219;-0.38000
12324997;-0.37500
12327774;-0.35500
12330552;-0.36000
12333330;-0.37000
12336108;-0.38500
12338885;-0.39000
12341663;-0.39000
12344441;-0.38500
12347219;-0.38000
12349997;-0.39000
12352774;-0.37500
12355552;-0.37500
12358330;-0.37000
12361108;-0.37500
12363885;-0.39000
12366663;-0.37000
12369441;-0.39000
12372219;-0.38500
12374997;-0.38000
12377774;-0.38000
12380552;-0.37500
12383330;-0.37500
12386108;-0.38000
12388885;-0.39000
12391663;-0.38500
12394441;-0.36500
12397219;-0.36500
12399997;-0.37000
12402774;-0.38000
12405552;-0.37000
12408330;-0.37000
12411108;-0.35500
12413885;-0.36000
12416663;-0.37500
12419441;-0.38500
12422219;-0.38500
12424997;-0.38500
12427774;-0.38000
12430552;-0.38000
12433330;-0.38000
12436108;-0.39500
12438885;-0.39500
12441663;-0.39500
12444441;-0.38500
12447219;-0.38500
12449997;-0.40000
12452774;-0.40000
12455552;-0.42000
12458330;-0.40500
12461108;-0.41500
12463885;-0.41000
12466663;-0.43000
12469441;-0.42000
12472219;-0.42500
12474997;-0.43000
12477774;-0.40500
12480552;-0.40500
12483330;-0.41000
12486108;-0.41000
12488885;-0.40500
12491663;-0.39500
12494441;-0.38000
12497219;-0.37000
12499996;-0.37000
12502774;-0.36500
12505552;-0.35500
12508330;-0.34000
12511108;-0.32000
12513885;-0.34000
12516663;-0.33000
12519441;-0.32000
12522219;-0.32000
12524996;-0.31000
12527774;-0.30000
12530552;-0.30500
12533330;-0.30500
12536108;-0.31500
12538885;-0.33500
12541663;-0.31500
12544441;-0.28500
12547219;-0.28000
12549996;-0.28000
12552774;-0.29000
12555552;-0.28500
12558330;-0.29000
12561108;-0.29000
12563885;-0.29000
12566663;-0.29500
12569441;-0.29500
12572219;-0.31000
12574996;-0.28500
12577774;-0.29000
12580552;-0.29000
12583330;-0.29000
12586108;-0.30500
12588885;-0.31500
12591663;-0.30500
12594441;-0.30500
12597219;-0.29500
12599996;-0.30500
12602774;-0.30000
12605552;-0.31000
12608330;-0.29500
12611108;-0.28500
12613885;-0.29500
12616663;-0.30000
12619441;-0.30500
12622219;-0.31500
12624996;-0.31000
12627774;-0.30500
12630552;-0.32500
12633330;-0.33000
12636108;-0.33000
12638885;-0.33500
12641663;-0.32500
12644441;-0.32000
12647219;-0.32500
12649996;-0.33000
12652774;-0.34000
12655552;-0.34500
12658330;-0.34000
12661108;-0.32500
12663885;-0.32000
12666663;-0.32500
12669441;-0.33500
12672219;-0.34500
12674996;-0.34500
12677774;-0.33500
12680552;-0.34500
12683330;-0.33000
12686108;-0.34500
12688885;-0.36000
12691663;-0.34000
12694441;-0.33500
12697219;-0.32000
12699996;-0.32500
12702774;-0.34000
12705552;-0.34500
12708330;-0.35000
12711108;-0.34000
12713885;-0.34000
12716663;-0.34000
12719441;-0.34000
12722219;-0.34000
12724996;-0.34000
12727774;-0.34500
12730552;-0.34500
12733330;-0.34500
12736108;-0.34000
12738885;-0.33500
12741663;-0.33500
12744441;-0.32000
12747219;-0.33000
12749996;-0.34000
12752774;-0.34500
12755552;-0.35000
12758330;-0.33000
12761108;-0.33000
12763885;-0.32000
12766663;-0.32500
12769441;-0.33500
12772219;-0.33000
12774996;-0.32500
12777774;-0.31500
12780552;-0.31000
12783330;-0.31500
12786108;-0.30500
12788885;-0.29500
12791663;-0.29000
12794441;-0.28000
12797219;-0.26000
12799996;-0.26500
12802774;-0.28000
12805552;-0.25500
12808330;-0.22500
12811108;-0.21500
12813885;-0.22000
12816663;-0.23000
12819441;-0.23000
12822219;-0.23500
12824996;-0.23500
12827774;-0.22500
12830552;-0.24000
12833330;-0.25000
12836108;-0.27000
12838885;-0.24000
12841663;-0.23000
12844441;-0.23500
12847219;-0.25000
12849996;-0.23500
12852774;-0.24000
12855552;-0.23000
12858330;-0.24500
12861108;-0.25500
12863885;-0.27000
12866663;-0.29000
12869441;-0.32000
12872219;-0.34500
12874996;-0.34500
12877774;-0.33500
12880552;-0.33000
12883330;-0.33500
12886108;-0.34000
12888885;-0.35000
12891663;-0.34000
12894441;-0.32500
12897219;-0.33000
12899996;-0.34500
12902774;-0.35500
12905552;-0.37500
12908330;-0.36500
12911107;-0.35000
12913885;-0.34500
12916663;-0.37000
12919441;-0.37500
12922219;-0.37000
12924996;-0.35500
12927774;-0.35500
12930552;-0.36500
12933330;-0.36000
12936107;-0.37000
12938885;-0.38000
12941663;-0.37500
12944441;-0.36500
12947219;-0.36500
12949996;-0.38000
12952774;-0.42500
12955552;-0.47000
12958330;-0.47500
12961107;-0.50500
12963885;-0.54500
12966663;-0.55500
12969441;-0.50500
12972219;-0.36500
12974996;-0.17500
12977774;0.02000
12980552;0.29000
12983330;0.57500
12986107;0.81000
12988885;0.92500
12991663;0.86000
12994441;0.59500
12997219;0.18500
12999996;-0.19000
13002774;-0.42000
13005552;-0.49000
13008330;-0.47500
13011107;-0.44000
13013885;-0.40000
13016663;-0.39000
13019441;-0.39000
13022219;-0.40000
13024996;-0.39500
13027774;-0.38500
13030552;-0.38000
13033330;-0.38000
13036107;-0.39500
13038885;-0.40500
13041663;-0.40000
13044441;-0.38500
13047219;-0.38500
13049996;-0.39500
13052774;-0.39000
13055552;-0.39000
13058330;-0.39000
13061107;-0.38000
13063885;-0.38500
13066663;-0.39500
13069441;-0.40000
13072219;-0.40000
13074996;-0.39500
13077774;-0.39000
13080552;-0.40500
13083330;-0.40000
13086107;-0.41000
13088885;-0.41500
13091663;-0.39500
13094441;-0.39500
13097219;-0.38000
13099996;-0.39000
13102774;-0.39000
13105552;-0.39500
13108330;-0.38500
13111107;-0.38500
13113885;-0.39000
13116663;-0.39500
13119441;-0.40500
13122219;-0.40500
13124996;-0.39500
13127774;-0.38500
13130552;-0.39000
13133330;-0.38500
13136107;-0.39000
13138885;-0.40000
13141663;-0.39000
13144441;-0.39000
13147219;-0.39000
13149996;-0.39500
13152774;-0.40000
13155552;-0.39500
13158330;-0.39500
13161107;-0.38500
13163885;-0.38000
13166663;-0.39000
13169441;-0.40000
13172219;-0.39000
13174996;-0.38500
13177774;-0.38500
13180552;-0.39000
13183330;-0.39500
13186107;-0.39500
13188885;-0.40000
13191663;-0.37500
13194441;-0.37500
13197219;-0.37000
13199996;-0.39000
13202774;-0.40500
13205552;-0.41000
13208330;-0.41500
13211107;-0.40000
13213885;-0.40500
13216663;-0.41500
13219441;-0.42500
13222219;-0.43500
13224996;-0.43500
13227774;-0.43500
13230552;-0.42500
13233330;-0.43500
13236107;-0.44000
13238885;-0.44500
13241663;-0.44500
13244441;-0.43500
13247219;-0.43500
13249996;-0.44500
13252774;-0.45000
13255552;-0.45000
13258330;-0.44000
13261107;-0.41500
13263885;-0.41500
13266663;-0.40500
13269441;-0.39500
13272219;-0.39500
13274996;-0.37500
13277774;-0.36000
13280552;-0.35000
13283330;-0.35500
13286107;-0.34500
13288885;-0.34500
13291663;-0.33500
13294441;-0.32000
13297218;-0.31000
13299996;-0.31000
13302774;-0.30500
13305552;-0.30500
13308330;-0.30000
13311107;-0.28000
13313885;-0.28000
13316663;-0.27500
13319441;-0.29000
13322218;-0.29000
13324996;-0.26500
13327774;-0.25500
13330552;-0.25000
13333330;-0.25500
13336107;-0.27000
13338885;-0.28500
13341663;-0.26000
13344441;-0.26500
13347218;-0.25500
13349996;-0.26000
13352774;-0.27500
13355552;-0.27500
13358330;-0.26500
13361107;-0.26000
13363885;-0.25500
13366663;-0.26500
13369441;-0.27000
13372218;-0.27500
13374996;-0.26500
13377774;-0.26500
13380552;-0.26000
13383330;-0.26500
13386107;-0.28000
13388885;-0.28500
13391663;-0.27500
13394441;-0.26500
13397218;-0.26000
13399996;-0.27500
13402774;-0.27500
13405552;-0.28500
13408330;-0.28000
13411107;-0.26500
13413885;-0.26500
13416663;-0.27000
13419441;-0.28000
13422218;-0.30500
13424996;-0.29500
13427774;-0.28500
13430552;-0.29000
13433330;-0.27500
13436107;-0.28500
13438885;-0.29000
13441663;-0.28500
13444441;-0.29500
13447218;-0.29000
13449996;-0.30000
13452774;-0.30000
13455552;-0.30000
13458330;-0.30000
13461107;-0.29500
13463885;-0.28500
13466663;-0.29000
13469441;-0.30000
13472218;-0.31500
13474996;-0.29500
13477774;-0.29500
13480552;-0.28500
13483330;-0.29000
13486107;-0.30000
13488885;-0.30000
13491663;-0.30000
13494441;-0.28500
13497218;-0.28500
13499996;-0.28000
13502774;-0.30500
13505552;-0.31000
13508330;-0.29000
13511107;-0.28500
13513885;-0.28500
13516663;-0.29500
13519441;-0.30000
13522218;-0.30000
13524996;-0.29000
13527774;-0.29000
13530552;-0.28500
13533330;-0.30500
13536107;-0.30000
13538885;-0.31000
13541663;-0.30000
13544441;-0.28500
13547218;-0.27500
13549996;-0.29500
13552774;-0.29000
13555552;-0.29000
13558330;-0.28000
13561107;-0.27500
13563885;-0.27000
13566663;-0.27500
13569441;-0.26000
13572218;-0.26000
13574996;-0.24000
13577774;-0.21500
13580552;-0.20500
13583330;-0.21500
13586107;-0.21000
13588885;-0.21000
13591663;-0.19500
13594441;-0.17000
13597218;-0.16500
13599996;-0.17000
13602774;-0.17500
13605552;-0.18500
13608330;-0.19000
13611107;-0.17000
13613885;-0.18500
13616663;-0.19000
13619441;-0.22000
13622218;-0.21000
13624996;-0.19500
13627774;-0.18500
13630552;-0.20000
13633330;-0.20000
13636107;-0.18000
13638885;-0.16500
13641663;-0.15500
13644441;-0.17500
13647218;-0.20500
13649996;-0.23500
13652774;-0.24500
13655552;-0.26500
13658330;-0.28500
13661107;-0.27500
13663885;-0.28500
13666663;-0.29000
13669441;-0.31000
13672218;-0.31500
13674996;-0.29500
13677774;-0.29500
13680552;-0.29500
13683330;-0.29500
13686107;-0.30500
13688885;-0.31500
13691663;-0.31000
13694441;-0.30500
13697218;-0.29500
13699996;-0.30500
13702774;-0.31000
13705552;-0.33500
13708329;-0.32500
13711107;-0.30000
13713885;-0.30000
13716663;-0.31000
13719441;-0.32000
13722218;-0.32500
13724996;-0.31500
13727774;-0.31500
13730552;-0.33000
13733329;-0.38500
13736107;-0.44000
13738885;-0.46500
13741663;-0.48500
13744441;-0.52000
13747218;-0.52500
13749996;-0.46000
13752774;-0.31000
13755552;-0.13000
13758329;0.08500
13761107;0.36000
13763885;0.65500
13766663;0.89500
13769441;1.03000
13772218;1.03000
13774996;0.81500
13777774;0.41500
13780552;-0.05500
13783329;-0.38500
13786107;-0.47500
13788885;-0.43000
13791663;-0.34500
13794441;-0.32500
13797218;-0.32500
13799996;-0.35000
13802774;-0.36000
13805552;-0.36000
13808329;-0.34500
13811107;-0.35000
13813885;-0.35500
13816663;-0.36000
13819441;-0.36000
13822218;-0.36500
13824996;-0.35500
13827774;-0.35500
13830552;-0.35500
13833329;-0.37500
13836107;-0.37500
13838885;-0.37000
13841663;-0.36000
13844441;-0.35500
13847218;-0.35000
13849996;-0.35000
13852774;-0.36000
13855552;-0.37000
13858329;-0.35500
13861107;-0.36000
13863885;-0.36500
13866663;-0.36500
13869441;-0.37000
13872218;-0.37000
13874996;-0.36000
13877774;-0.36000
13880552;-0.35000
13883329;-0.35000
13886107;-0.36500
13888885;-0.36000
13891663;-0.36500
13894441;-0.35000
13897218;-0.34500
13899996;-0.35000
13902774;-0.35500
13905552;-0.36000
13908329;-0.35500
13911107;-0.34000
13913885;-0.35000
13916663;-0.35500
13919441;-0.34500
13922218;-0.35500
13924996;-0.35000
13927774;-0.34000
13930552;-0.34000
13933329;-0.34500
13936107;-0.34500
13938885;-0.35500
13941663;-0.35000
13944441;-0.34500
13947218;-0.34500
13949996;-0.34000
13952774;-0.35000
13955552;-0.36000
13958329;-0.35500
13961107;-0.35000
13963885;-0.34000
13966663;-0.34000
13969441;-0.34500
13972218;-0.35000
13974996;-0.34500
13977774;-0.34000
13980552;-0.33500
13983329;-0.34000
13986107;-0.36000
13988885;-0.35500
13991663;-0.35000
13994441;-0.35000
13997218;-0.34500
13999996;-0.35500
14002774;-0.35500
14005552;-0.36500
14008329;-0.36000
14011107;-0.35500
14013885;-0.35000
14016663;-0.36000
14019441;-0.37000
14022218;-0.37500
14024996;-0.35000
14027774;-0.35500
14030552;-0.34500
14033329;-0.35500
14036107;-0.35500
14038885;-0.36000
14041663;-0.34500
14044441;-0.33500
14047218;-0.32500
14049996;-0.31500
14052774;-0.31000
14055552;-0.30500
14058329;-0.29000
14061107;-0.28000
14063885;-0.27500
14066663;-0.26000
14069441;-0.26500
14072218;-0.26500
14074996;-0.25000
14077774;-0.24500
14080552;-0.24000
14083329;-0.24000
14086107;-0.24500
14088885;-0.25000
14091663;-0.24000
14094440;-0.24000
14097218;-0.23500
14099996;-0.24000
14102774;-0.24500
14105552;-0.24500
14108329;-0.24500
14111107;-0.23000
14113885;-0.24500
14116663;-0.24000
14119440;-0.24500
14122218;-0.25500
14124996;-0.24500
14127774;-0.24500
14130552;-0.24000
14133329;-0.24000
14136107;-0.24500
14138885;-0.26000
14141663;-0.25000
14144440;-0.25000
14147218;-0.25500
14149996;-0.25000
14152774;-0.26000
14155552;-0.26500
14158329;-0.27000
14161107;-0.25500
14163885;-0.28000
14166663;-0.26000
14169440;-0.28500
14172218;-0.27000
14174996;-0.26500
14177774;-0.25500
14180552;-0.27500
14183329;-0.27500
14186107;-0.29000
14188885;-0.28500
14191663;-0.29500
14194440;-0.28000
14197218;-0.27500
14199996;-0.28500
14202774;-0.29000
14205552;-0.30000
14208329;-0.28500
14211107;-0.29000
14213885;-0.29500
14216663;-0.29500
14219440;-0.31000
14222218;-0.31500
14224996;-0.29500
14227774;-0.29000
14230552;-0.29000
14233329;-0.29000
14236107;-0.29000
14238885;-0.30500
14241663;-0.29500
14244440;-0.30000
14247218;-0.30000
14249996;-0.31000
14252774;-0.30500
14255552;-0.31000
14258329;-0.30000
14261107;-0.30000
14263885;-0.29500
14266663;-0.29500
14269440;-0.29500
14272218;-0.31500
14274996;-0.30500
14277774;-0.30000
14280552;-0.29500
14283329;-0.30000
14286107;-0.30000
14288885;-0.31500
14291663;-0.30000
14294440;-0.29000
14297218;-0.28500
14299996;-0.29500
14302774;-0.29500
14305552;-0.29500
14308329;-0.30000
14311107;-0.28500
14313885;-0.29500
14316663;-0.30000
14319440;-0.30500
14322218;-0.31000
14324996;-0.30000
14327774;-0.28500
14330552;-0.28000
14333329;-0.27500
14336107;-0.26500
14338885;-0.26500
14341663;-0.25000
14344440;-0.23000
14347218;-0.22000
14349996;-0.23500
14352774;-0.22000
14355552;-0.22500
14358329;-0.20500
14361107;-0.19000
14363885;-0.18500
14366663;-0.18000
14369440;-0.18000
14372218;-0.17500
14374996;-0.16500
14377774;-0.17000
14380552;-0.17500
14383329;-0.18000
14386107;-0.19000
14388885;-0.20500
14391663;-0.20000
14394440;-0.20500
14397218;-0.20000
14399996;-0.19000
14402774;-0.20500
14405552;-0.22500
14408329;-0.21500
14411107;-0.19000
14413885;-0.16500
14416663;-0.16000
14419440;-0.20500
14422218;-0.23500
14424996;-0.25000
14427774;-0.25500
14430552;-0.27500
14433329;-0.29000
14436107;-0.30000
14438885;-0.31000
14441663;-0.31000
14444440;-0.31500
14447218;-0.30500
14449996;-0.31000
14452774;-0.31500
14455552;-0.32500
14458329;-0.32500
14461107;-0.31000
14463885;-0.31000
14466663;-0.31000
14469440;-0.32500
14472218;-0.34000
14474996;-0.33500
14477774;-0.33000
14480552;-0.33500
14483329;-0.34000
14486107;-0.34000
14488885;-0.35000
14491663;-0.33500
14494440;-0.32500
14497218;-0.32500
14499996;-0.33000
14502774;-0.34000
14505551;-0.35500
14508329;-0.38000
14511107;-0.41500
14513885;-0.44500
14516663;-0.47500
14519440;-0.52500
14522218;-0.56500
14524996;-0.54500
14527774;-0.43500
14530551;-0.28500
14533329;-0.13000
14536107;0.05000
14538885;0.31000
14541663;0.60000
14544440;0.84500
14547218;0.97000
14549996;0.94500
14552774;0.70500
14555551;0.26000
14558329;-0.16500
14561107;-0.42000
14563885;-0.47000
14566663;-0.43000
14569440;-0.37500
14572218;-0.37000
14574996;-0.35500
14577774;-0.35000
14580551;-0.35000
14583329;-0.35000
14586107;-0.36500
14588885;-0.37000
14591663;-0.37500
14594440;-0.36500
14597218;-0.36500
14599996;-0.36000
14602774;-0.37000
14605551;-0.37500
14608329;-0.36500
14611107;-0.36500
14613885;-0.36500
14616663;-0.36500
14619440;-0.37500
14622218;-0.38000
14624996;-0.37000
14627774;-0.37000
14630551;-0.36000
14633329;-0.36000
14636107;-0.36500
14638885;-0.37000
14641663;-0.35500
14644440;-0.35500
14647218;-0.35000
14649996;-0.34500
14652774;-0.37000
14655551;-0.37500
14658329;-0.35500
14661107;-0.36000
14663885;-0.36500
14666663;-0.36000
14669440;-0.36000
14672218;-0.36500
14674996;-0.35500
14677774;-0.34500
14680551;-0.36000
14683329;-0.36000
14686107;-0.36000
14688885;-0.37000
14691663;-0.35500
14694440;-0.34500
14697218;-0.34000
14699996;-0.36000
14702774;-0.35500
14705551;-0.37000
14708329;-0.36500
14711107;-0.35000
14713885;-0.34500
14716663;-0.35000
14719440;-0.35000
14722218;-0.36500
14724996;-0.35000
14727774;-0.34500
14730551;-0.33000
14733329;-0.35500
14736107;-0.35500
14738885;-0.35500
14741663;-0.33500
14744440;-0.34000
14747218;-0.33500
14749996;-0.33000
14752774;-0.35000
14755551;-0.35500
14758329;-0.35500
14761107;-0.35000
14763885;-0.34000
14766663;-0.34500
14769440;-0.34500
14772218;-0.35500
14774996;-0.34500
14777774;-0.35000
14780551;-0.33500
14783329;-0.35000
14786107;-0.35500
14788885;-0.37000
14791663;-0.35000
14794440;-0.35000
14797218;-0.35000
14799996;-0.35000
14802774;-0.37000
14805551;-0.36500
14808329;-0.36500
14811107;-0.36000
14813885;-0.35500
14816663;-0.36500
14819440;-0.36000
14822218;-0.37000
14824996;-0.36500
14827774;-0.35500
14830551;-0.33500
14833329;-0.34500
14836107;-0.33000
14838885;-0.34000
14841663;-0.32500
14844440;-0.31500
14847218;-0.30000
14849996;-0.29500
14852774;-0.28500
14855551;-0.28000
14858329;-0.27000
14861107;-0.25000
14863885;-0.25500
14866663;-0.24000
14869440;-0.25000
14872218;-0.25500
14874996;-0.25000
14877774;-0.24500
14880551;-0.23500
14883329;-0.25000
14886107;-0.25500
14888885;-0.26000
14891662;-0.24000
14894440;-0.24000
14897218;-0.24000
14899996;-0.25000
14902774;-0.26000
14905551;-0.27000
14908329;-0.26000
14911107;-0.25000
14913885;-0.25500
14916662;-0.26000
14919440;-0.26500
14922218;-0.28000
14924996;-0.27000
14927774;-0.26500
14930551;-0.26500
14933329;-0.24500
14936107;-0.24500
14938885;-0.27000
14941662;-0.26000
14944440;-0.27000
14947218;-0.26000
14949996;-0.25500
14952774;-0.27000
14955551;-0.28000
14958329;-0.28500
14961107;-0.27000
14963885;-0.27500
14966662;-0.27000
14969440;-0.27000
14972218;-0.27500
14974996;-0.27500
14977774;-0.27000
14980551;-0.26500
14983329;-0.27500
14986107;-0.27500
14988885;-0.29500
14991662;-0.28500
14994440;-0.28000
14997218;-0.28000
14999996;-0.28000
15002774;-0.29500
15005551;-0.29000
15008329;-0.29000
15011107;-0.29500
15013885;-0.28000
15016662;-0.29000
15019440;-0.28500
15022218;-0.29500
15024996;-0.29000
15027774;-0.29000
15030551;-0.28000
15033329;-0.28000
15036107;-0.30000
15038885;-0.32000
15041662;-0.31000
15044440;-0.30500
15047218;-0.30000
15049996;-0.28500
15052774;-0.30500
15055551;-0.31000
15058329;-0.31000
15061107;-0.30500
15063885;-0.31000
15066662;-0.31000
15069440;-0.31000
15072218;-0.31500
15074996;-0.31000
15077774;-0.30000
15080551;-0.29000
15083329;-0.30000
15086107;-0.30500
15088885;-0.32000
15091662;-0.30500
15094440;-0.29500
15097218;-0.29000
15099996;-0.29500
15102774;-0.31500
15105551;-0.33000
15108329;-0.31500
15111107;-0.30000
15113885;-0.29500
15116662;-0.30000
15119440;-0.31000
15122218;-0.31500
15124996;-0.30500
15127774;-0.30000
15130551;-0.30000
15133329;-0.30000
15136107;-0.29500
15138885;-0.30500
15141662;-0.28500
15144440;-0.27500
15147218;-0.24500
15149996;-0.25000
15152774;-0.25500
15155551;-0.26000
15158329;-0.24500
15161107;-0.24500
15163885;-0.24000
15166662;-0.24500
15169440;-0.23000
15172218;-0.24500
15174996;-0.23000
15177774;-0.22000
15180551;-0.21000
15183329;-0.20000
15186107;-0.19500
15188885;-0.20500
15191662;-0.20000
15194440;-0.20500
15197218;-0.20500
15199996;-0.20500
15202774;-0.22000
15205551;-0.22500
15208329;-0.22500
15211107;-0.21500
15213885;-0.21500
15216662;-0.23000
15219440;-0.25000
15222218;-0.24000
15224996;-0.21500
15227774;-0.19500
15230551;-0.21000
15233329;-0.24500
15236107;-0.27500
15238885;-0.29000
15241662;-0.31000
15244440;-0.31000
15247218;-0.32000
15249996;-0.33000
15252774;-0.34000
15255551;-0.34000
15258329;-0.33500
15261107;-0.31500
15263885;-0.33000
15266662;-0.32500
15269440;-0.34500
15272218;-0.35500
15274996;-0.35500
15277774;-0.34500
15280551;-0.34000
15283329;-0.35000
15286107;-0.35000
15288885;-0.35500
15291662;-0.35000
15294440;-0.33500
15297218;-0.33500
15299996;-0.35500
15302773;-0.36000
15305551;-0.37000
15308329;-0.36500
15311107;-0.34500
15313885;-0.35000
15316662;-0.39500
15319440;-0.43500
15322218;-0.46000
15324996;-0.48000
15327773;-0.51500
15330551;-0.56000
15333329;-0.56000
15336107;-0.50000
15338885;-0.40000
15341662;-0.27000
15344440;-0.14500
15347218;0.04500
15349996;0.25500
15352773;0.49500
15355551;0.67000
15358329;0.81500
15361107;0.92500
15363885;1.00000
15366662;0.96000
15369440;0.77500
15372218;0.43500
15374996;0.03500
15377773;-0.25500
15380551;-0.40500
15383329;-0.47500
15386107;-0.45500
15388885;-0.43500
15391662;-0.39500
15394440;-0.38000
15397218;-0.38000
15399996;-0.38500
15402773;-0.38500
15405551;-0.40500
15408329;-0.38500
15411107;-0.38000
15413885;-0.37000
15416662;-0.37500
15419440;-0.37500
15422218;-0.39000
15424996;-0.39000
15427773;-0.39000
15430551;-0.40000
15433329;-0.39000
15436107;-0.39500
15438885;-0.39500
15441662;-0.39000
15444440;-0.39000
15447218;-0.40500
15449996;-0.41000
15452773;-0.40500
15455551;-0.40000
15458329;-0.39000
15461107;-0.38500
15463885;-0.37500
15466662;-0.37000
15469440;-0.39500
15472218;-0.41500
15474996;-0.39500
15477773;-0.39500
15480551;-0.39000
15483329;-0.39500
15486107;-0.39500
15488885;-0.40000
15491662;-0.39500
15494440;-0.38500
15497218;-0.37500
15499996;-0.38000
15502773;-0.39000
15505551;-0.38500
15508329;-0.38500
15511107;-0.38500
15513885;-0.39000
15516662;-0.39000
15519440;-0.40500
15522218;-0.41000
15524996;-0.41000
15527773;-0.41000
15530551;-0.39500
15533329;-0.39000
15536107;-0.41000
15538885;-0.40000
15541662;-0.40500
15544440;-0.39000
15547218;-0.38500
15549996;-0.38500
15552773;-0.40000
15555551;-0.39500
15558329;-0.39000
15561107;-0.37500
15563885;-0.38000
15566662;-0.39500
15569440;-0.40500
15572218;-0.40500
15574996;-0.40000
15577773;-0.39000
15580551;-0.39000
15583329;-0.40500
15586107;-0.41000
15588885;-0.41500
15591662;-0.41000
15594440;-0.40000
15597218;-0.41000
15599996;-0.41500
15602773;-0.42500
15605551;-0.44500
15608329;-0.43500
15611107;-0.41500
15613885;-0.41500
15616662;-0.41500
15619440;-0.43000
15622218;-0.44500
15624996;-0.43500
15627773;-0.43500
15630551;-0.43500
15633329;-0.43500
15636107;-0.44500
15638885;-0.45000
15641662;-0.44000
15644440;-0.42500
15647218;-0.40500
15649996;-0.41500
15652773;-0.42000
15655551;-0.43000
15658329;-0.40500
15661107;-0.38500
15663885;-0.37500
15666662;-0.36500
15669440;-0.36000
15672218;-0.37500
15674996;-0.36000
15677773;-0.33500
15680551;-0.32000
15683329;-0.31500
15686107;-0.32000
15688884;-0.32000
15691662;-0.31500
15694440;-0.31000
15697218;-0.29500
15699996;-0.29500
15702773;-0.30500
15705551;-0.30000
15708329;-0.30500
15711107;-0.29500
15713884;-0.29500
15716662;-0.29500
15719440;-0.30000
15722218;-0.31000
15724996;-0.31000
15727773;-0.29000
15730551;-0.29000
15733329;-0.28500
15736107;-0.29000
15738884;-0.31000
15741662;-0.30000
15744440;-0.29500
15747218;-0.30000
15749996;-0.30000
15752773;-0.32500
15755551;-0.33500
15758329;-0.33500
15761107;-0.34000
15763884;-0.32500
15766662;-0.33500
15769440;-0.31500
15772218;-0.32500
15774996;-0.32000
15777773;-0.31500
15780551;-0.31000
15783329;-0.31000
15786107;-0.32000
15788884;-0.33500
15791662;-0.33500
15794440;-0.31500
15797218;-0.31500
15799996;-0.32500
15802773;-0.33500
15805551;-0.33500
15808329;-0.32500
15811107;-0.32500
15813884;-0.32000
15816662;-0.33000
15819440;-0.34000
15822218;-0.35000
15824996;-0.34000
15827773;-0.34500
15830551;-0.33500
15833329;-0.33500
15836107;-0.34000
15838884;-0.36000
15841662;-0.36500
15844440;-0.34500
15847218;-0.34500
15849996;-0.34000
15852773;-0.35500
15855551;-0.36500
15858329;-0.34500
15861107;-0.33500
15863884;-0.34000
15866662;-0.35000
15869440;-0.36000
15872218;-0.36000
15874996;-0.36000
15877773;-0.34500
15880551;-0.34500
15883329;-0.34000
15886107;-0.35000
15888884;-0.35500
15891662;-0.35000
15894440;-0.34000
15897218;-0.34000
15899996;-0.35000
15902773;-0.35500
15905551;-0.36500
15908329;-0.35500
15911107;-0.35000
15913884;-0.34500
15916662;-0.34000
15919440;-0.35500
15922218;-0.36500
15924996;-0.34000
15927773;-0.34000
15930551;-0.33000
15933329;-0.33500
15936107;-0.34500
15938884;-0.36000
15941662;-0.35000
15944440;-0.35000
15947218;-0.35500
15949996;-0.35000
15952773;-0.35000
15955551;-0.35000
15958329;-0.33500
15961107;-0.33500
15963884;-0.31500
15966662;-0.31000
15969440;-0.31000
15972218;-0.30000
15974996;-0.29000
15977773;-0.28500
15980551;-0.28000
15983329;-0.27500
15986107;-0.26500
15988884;-0.27000
15991662;-0.26000
15994440;-0.24000
15997218;-0.22500
15999996;-0.23000
16002773;-0.23500
16005551;-0.24000
16008329;-0.24500
16011107;-0.24500
16013884;-0.25000
16016662;-0.26000
16019440;-0.24500
16022218;-0.27000
16024996;-0.27000
16027773;-0.27000
16030551;-0.27000
16033329;-0.25500
16036107;-0.24500
16038884;-0.24500
16041662;-0.24500
16044440;-0.26000
16047218;-0.27500
16049996;-0.28500
16052773;-0.33000
16055551;-0.35500
16058329;-0.36000
16061107;-0.36000
16063884;-0.36000
16066662;-0.36000
16069440;-0.37500
16072218;-0.38500
16074995;-0.37500
16077773;-0.36500
16080551;-0.36000
16083329;-0.36500
16086107;-0.37000
16088884;-0.38000
16091662;-0.38000
16094440;-0.37000
16097218;-0.36500
16099995;-0.36500
16102773;-0.37000
16105551;-0.37500
16108329;-0.37000
16111107;-0.37000
16113884;-0.36500
16116662;-0.37000
16119440;-0.38500
16122218;-0.38500
16124995;-0.37500
16127773;-0.36500
16130551;-0.36500
16133329;-0.37000
16136107;-0.38000
16138884;-0.41500
16141662;-0.44000
16144440;-0.46000
16147218;-0.48000
16149995;-0.50000
16152773;-0.54000
16155551;-0.59000
16158329;-0.56000
16161107;-0.48500
16163884;-0.36500
16166662;-0.21000
16169440;-0.06500
16172218;0.14500
16174995;0.44500
16177773;0.69500
16180551;0.87000
16183329;0.94000
16186107;0.85000
16188884;0.57000
16191662;0.20000
16194440;-0.14500
16197218;-0.37000
16199995;-0.48000
16202773;-0.51000
16205551;-0.53000
16208329;-0.48000
16211107;-0.44500
16213884;-0.42000
16216662;-0.41500
16219440;-0.42500
16222218;-0.43500
16224995;-0.41500
16227773;-0.40500
16230551;-0.40000
16233329;-0.41000
16236107;-0.41000
16238884;-0.42500
16241662;-0.42500
16244440;-0.41000
16247218;-0.40000
16249995;-0.41500
16252773;-0.42000
16255551;-0.42500
16258329;-0.42500
16261107;-0.41500
16263884;-0.41500
16266662;-0.41000
16269440;-0.42500
16272218;-0.43000
16274995;-0.42000
16277773;-0.40000
16280551;-0.40000
16283329;-0.39500
16286107;-0.41500
16288884;-0.41500
16291662;-0.42000
16294440;-0.41000
16297218;-0.39500
16299995;-0.41000
16302773;-0.42000
16305551;-0.42500
16308329;-0.41500
16311107;-0.40500
16313884;-0.41000
16316662;-0.41000
16319440;-0.41000
16322218;-0.42500
16324995;-0.40500
16327773;-0.39500
16330551;-0.42000
16333329;-0.41000
16336107;-0.40500
16338884;-0.41500
16341662;-0.40000
16344440;-0.40500
16347218;-0.39500
16349995;-0.41000
16352773;-0.41500
16355551;-0.41500
16358329;-0.41000
16361107;-0.40500
16363884;-0.40500
16366662;-0.41000
16369440;-0.41000
16372218;-0.40500
16374995;-0.40000
16377773;-0.39500
16380551;-0.38500
16383329;-0.38500
16386107;-0.39500
16388884;-0.40500
16391662;-0.40500
16394440;-0.40000
16397218;-0.39500
16399995;-0.39000
16402773;-0.41000
16405551;-0.41500
16408329;-0.42000
16411107;-0.40500
16413884;-0.40500
16416662;-0.40500
16419440;-0.41000
16422218;-0.43000
16424995;-0.42000
16427773;-0.43000
16430551;-0.41000
16433329;-0.42500
16436107;-0.44000
16438884;-0.45000
16441662;-0.45000
16444440;-0.45000
16447218;-0.44000
16449995;-0.44000
16452773;-0.46500
16455551;-0.46500
16458329;-0.47000
16461107;-0.45000
16463884;-0.45000
16466662;-0.45500
16469440;-0.45000
16472218;-0.46500
16474995;-0.44500
16477773;-0.42500
16480551;-0.42000
16483329;-0.40000
16486106;-0.40500
16488884;-0.41000
16491662;-0.39500
16494440;-0.37000
16497218;-0.35500
16499995;-0.34500
16502773;-0.36000
16505551;-0.35000
16508329;-0.34500
16511106;-0.32500
16513884;-0.31000
16516662;-0.31000
16519440;-0.30500
16522218;-0.32000
16524995;-0.31000
16527773;-0.30500
16530551;-0.29000
16533329;-0.29000
16536106;-0.30500
16538884;-0.31000
16541662;-0.29000
16544440;-0.29000
16547218;-0.29500
16549995;-0.29000
16552773;-0.30000
16555551;-0.30000
16558329;-0.29000
16561106;-0.29000
16563884;-0.29000
16566662;-0.28000
16569440;-0.29000
16572218;-0.31000
16574995;-0.29000
16577773;-0.29000
16580551;-0.29000
16583329;-0.29000
16586106;-0.29500
16588884;-0.31000
16591662;-0.30000
16594440;-0.29500
16597218;-0.30000
16599995;-0.29500
16602773;-0.31000
16605551;-0.31500
16608329;-0.31500
16611106;-0.30500
16613884;-0.31000
16616662;-0.30500
16619440;-0.31500
16622218;-0.32000
16624995;-0.31500
16627773;-0.30500
16630551;-0.30000
16633329;-0.30000
16636106;-0.32000
16638884;-0.33000
16641662;-0.32000
16644440;-0.32000
16647218;-0.30500
16649995;-0.31500
16652773;-0.32500
16655551;-0.34000
16658329;-0.33000
16661106;-0.32500
16663884;-0.31000
16666662;-0.33000
16669440;-0.33500
16672218;-0.33000
16674995;-0.34000
16677773;-0.33000
16680551;-0.33000
16683329;-0.33500
16686106;-0.33500
16688884;-0.35000
16691662;-0.36000
16694440;-0.34500
16697218;-0.32000
16699995;-0.33000
16702773;-0.33500
16705551;-0.34500
16708329;-0.34500
16711106;-0.34000
16713884;-0.32500
16716662;-0.33500
16719440;-0.34000
16722218;-0.34500
16724995;-0.34000
16727773;-0.32500
16730551;-0.31500
16733329;-0.32000
16736106;-0.32500
16738884;-0.34000
16741662;-0.33500
16744440;-0.32500
16747218;-0.33000
16749995;-0.32000
16752773;-0.33500
16755551;-0.34500
16758329;-0.33500
16761106;-0.33000
16763884;-0.32000
16766662;-0.32000
16769440;-0.33500
16772218;-0.34000
16774995;-0.34000
16777773;-0.34000
16780551;-0.33000
16783329;-0.33000
16786106;-0.32500
16788884;-0.34000
16791662;-0.34000
16794440;-0.32000
16797218;-0.31000
16799995;-0.32000
16802773;-0.32500
16805551;-0.33500
16808329;-0.32500
16811106;-0.32000
16813884;-0.31500
16816662;-0.30500
16819440;-0.30000
16822218;-0.30500
16824995;-0.29500
16827773;-0.27000
16830551;-0.26000
16833329;-0.26000
16836106;-0.25000
16838884;-0.26500
16841662;-0.27000
16844440;-0.25000
16847218;-0.24000
16849995;-0.23000
16852773;-0.23000
16855551;-0.22500
16858329;-0.22000
16861106;-0.21500
16863884;-0.22000
16866662;-0.21000
16869440;-0.22500
16872217;-0.25500
16874995;-0.23000
16877773;-0.23500
16880551;-0.24000
16883329;-0.24000
16886106;-0.25000
16888884;-0.25500
16891662;-0.23500
16894440;-0.20500
16897217;-0.19000
16899995;-0.22500
16902773;-0.24500
16905551;-0.27500
16908329;-0.29000
16911106;-0.29500
16913884;-0.30500
16916662;-0.32000
16919440;-0.33500
16922217;-0.34000
16924995;-0.35000
16927773;-0.34500
16930551;-0.33500
16933329;-0.33500
16936106;-0.34500
16938884;-0.35000
16941662;-0.35000
16944440;-0.34000
16947217;-0.34000
16949995;-0.33500
16952773;-0.34000
16955551;-0.36500
16958329;-0.35500
16961106;-0.34000
16963884;-0.33000
16966662;-0.34000
16969440;-0.36000
16972217;-0.36000
16974995;-0.35000
16977773;-0.35000
16980551;-0.34000
16983329;-0.34500
16986106;-0.35000
16988884;-0.36500
16991662;-0.35500
16994440;-0.35500
16997217;-0.34500
16999995;-0.36000
17002773;-0.39000
17005551;-0.44000
17008329;-0.47500
17011106;-0.49500
17013884;-0.51000
17016662;-0.55000
17019440;-0.58500
17022217;-0.57500
17024995;-0.49000
17027773;-0.36000
17030551;-0.21000
17033329;-0.04500
17036106;0.14000
17038884;0.40500
17041662;0.69500
17044440;0.90000
17047217;0.98500
17049995;0.92500
17052773;0.68000
17055551;0.28000
17058329;-0.13500
17061106;-0.40000
17063884;-0.47000
17066662;-0.45500
17069440;-0.42500
17072217;-0.41000
17074995;-0.38500
17077773;-0.38500
17080551;-0.38500
17083329;-0.38500
17086106;-0.38500
17088884;-0.40000
17091662;-0.39000
17094440;-0.39500
17097217;-0.38500
17099995;-0.39000
17102773;-0.39500
17105551;-0.40500
17108329;-0.40000
17111106;-0.39000
17113884;-0.38500
17116662;-0.39000
17119440;-0.40000
17122217;-0.40500
17124995;-0.39500
17127773;-0.40000
17130551;-0.39000
17133329;-0.39000
17136106;-0.39000
17138884;-0.40500
17141662;-0.39500
17144440;-0.38500
17147217;-0.38000
17149995;-0.38000
17152773;-0.38500
17155551;-0.39500
17158329;-0.39500
17161106;-0.40000
17163884;-0.37500
17166662;-0.38500
17169440;-0.38500
17172217;-0.40000
17174995;-0.39500
17177773;-0.39000
17180551;-0.37500
17183329;-0.37500
17186106;-0.38000
17188884;-0.39500
17191662;-0.39500
17194440;-0.38000
17197217;-0.37000
17199995;-0.37000
17202773;-0.38500
17205551;-0.39500
17208329;-0.39000
17211106;-0.38000
17213884;-0.38000
17216662;-0.38000
17219440;-0.38500
17222217;-0.39000
17224995;-0.37500
17227773;-0.37500
17230551;-0.37500
17233329;-0.36500
17236106;-0.37500
17238884;-0.39500
17241662;-0.39000
17244440;-0.38000
17247217;-0.37500
17249995;-0.37500
17252773;-0.38000
17255551;-0.40000
17258329;-0.38500
17261106;-0.37500
17263884;-0.37500
17266662;-0.37000
17269440;-0.37500
17272217;-0.38500
17274995;-0.39000
17277773;-0.37500
17280551;-0.36000
17283328;-0.36000
17286106;-0.37500
17288884;-0.39500
17291662;-0.40000
17294440;-0.38000
17297217;-0.36500
17299995;-0.37500
17302773;-0.38500
17305551;-0.39000
17308328;-0.39000
17311106;-0.38000
17313884;-0.37000
17316662;-0.37500
17319440;-0.37500
17322217;-0.40000
17324995;-0.38500
17327773;-0.38000
17330551;-0.38000
17333328;-0.38500
17336106;-0.38000
17338884;-0.37000
17341662;-0.36500
17344440;-0.35500
17347217;-0.34000
17349995;-0.34000
17352773;-0.33000
17355551;-0.34000
17358328;-0.31500
17361106;-0.30500
17363884;-0.29500
17366662;-0.28500
17369440;-0.29000
17372217;-0.31000
17374995;-0.28500
17377773;-0.27500
17380551;-0.26500
17383328;-0.27000
17386106;-0.28000
17388884;-0.29000
17391662;-0.28000
17394440;-0.27000
17397217;-0.27500
17399995;-0.27500
17402773;-0.29000
17405551;-0.29000
17408328;-0.27500
17411106;-0.27500
17413884;-0.27500
17416662;-0.28000
17419440;-0.28500
17422217;-0.29000
17424995;-0.28000
17427773;-0.27500
17430551;-0.27500
17433328;-0.27000
17436106;-0.28000
17438884;-0.28500
17441662;-0.29000
17444440;-0.28000
17447217;-0.27500
17449995;-0.28500
17452773;-0.29500
17455551;-0.30500
17458328;-0.30000
17461106;-0.30500
17463884;-0.29500
17466662;-0.30000
17469440;-0.31000
17472217;-0.32000
17474995;-0.31000
17477773;-0.30000
17480551;-0.29500
17483328;-0.30000
17486106;-0.32000
17488884;-0.32500
17491662;-0.31500
17494440;-0.30500
17497217;-0.29500
17499995;-0.30000
17502773;-0.32000
17505551;-0.32500
17508328;-0.31500
17511106;-0.31500
17513884;-0.31000
17516662;-0.31000
17519440;-0.32500
17522217;-0.33500
17524995;-0.33000
17527773;-0.33000
17530551;-0.31500
17533328;-0.32500
17536106;-0.33000
17538884;-0.34000
17541662;-0.34000
17544440;-0.32500
17547217;-0.33000
17549995;-0.33000
17552773;-0.33500
17555551;-0.34500
17558328;-0.33500
17561106;-0.33000
17563884;-0.32000
17566662;-0.33000
17569440;-0.33500
17572217;-0.33500
17574995;-0.33500
17577773;-0.32000
17580551;-0.32000
17583328;-0.32500
17586106;-0.32000
17588884;-0.33000
17591662;-0.32500
17594440;-0.32500
17597217;-0.31500
17599995;-0.32000
17602773;-0.32500
17605551;-0.33500
17608328;-0.33500
17611106;-0.32500
17613884;-0.32000
17616662;-0.32000
17619440;-0.32500
17622217;-0.33000
17624995;-0.32500
17627773;-0.32500
17630551;-0.31000
17633328;-0.31500
17636106;-0.32500
17638884;-0.33500
17641662;-0.33500
17644440;-0.32500
17647217;-0.32000
17649995;-0.31500
17652773;-0.32000
17655551;-0.33500
17658328;-0.30000
17661106;-0.28500
17663884;-0.25500
17666662;-0.24500
17669439;-0.25000
17672217;-0.26500
17674995;-0.25000
17677773;-0.23500
17680551;-0.22500
17683328;-0.23500
17686106;-0.22500
17688884;-0.22000
17691662;-0.20500
17694439;-0.20500
17697217;-0.20000
17699995;-0.20500
17702773;-0.21500
17705551;-0.23000
17708328;-0.23500
17711106;-0.23500
17713884;-0.22000
17716662;-0.22500
17719439;-0.24000
17722217;-0.25000
17724995;-0.24500
17727773;-0.22500
17730551;-0.19000
17733328;-0.19000
17736106;-0.22000
17738884;-0.25500
17741662;-0.27000
17744439;-0.27500
17747217;-0.28000
17749995;-0.30000
17752773;-0.31000
17755551;-0.33500
17758328;-0.32000
17761106;-0.31000
17763884;-0.31500
17766662;-0.32000
17769439;-0.34500
17772217;-0.35000
17774995;-0.34000
17777773;-0.33500
17780551;-0.32500
17783328;-0.34000
17786106;-0.33500
17788884;-0.35000
17791662;-0.35000
17794439;-0.34000
17797217;-0.33500
17799995;-0.35000
17802773;-0.34500
17805551;-0.36000
17808328;-0.35500
17811106;-0.35500
17813884;-0.34000
17816662;-0.35000
17819439;-0.35500
17822217;-0.36000
17824995;-0.35000
17827773;-0.35500
17830551;-0.34000
17833328;-0.36000
17836106;-0.38500
17838884;-0.44000
17841662;-0.46500
17844439;-0.47500
17847217;-0.50500
17849995;-0.56500
17852773;-0.57000
17855551;-0.52500
17858328;-0.41000
17861106;-0.27000
17863884;-0.12000
17866662;0.08500
17869439;0.33500
17872217;0.59500
17874995;0.81000
17877773;0.89000
17880551;0.82000
17883328;0.56500
17886106;0.17000
17888884;-0.20000
17891662;-0.44000
17894439;-0.50000
17897217;-0.46000
17899995;-0.41000
17902773;-0.39000
17905551;-0.40000
17908328;-0.40500
17911106;-0.40000
17913884;-0.38000
17916662;-0.36500
17919439;-0.37000
17922217;-0.38500
17924995;-0.39000
17927773;-0.38000
17930551;-0.37500
17933328;-0.37500
17936106;-0.38500
17938884;-0.38500
17941662;-0.38500
17944439;-0.38000
17947217;-0.37500
17949995;-0.37500
17952773;-0.39000
17955551;-0.40000
17958328;-0.39500
17961106;-0.38500
17963884;-0.38000
17966662;-0.38500
17969439;-0.39000
17972217;-0.40000
17974995;-0.38500
17977773;-0.38500
17980551;-0.38500
17983328;-0.37500
17986106;-0.38000
17988884;-0.39500
17991662;-0.39000
17994439;-0.37500
17997217;-0.37000
17999995;-0.37000
18002773;-0.37500
18005551;-0.38000
18008328;-0.38000
18011106;-0.37000
18013884;-0.36000
18016662;-0.36000
18019439;-0.37500
18022217;-0.38500
18024995;-0.38000
18027773;-0.37000
18030551;-0.37000
18033328;-0.37500
18036106;-0.39000
18038884;-0.38500
18041662;-0.38500
18044439;-0.37000
18047217;-0.36500
18049995;-0.36500
18052773;-0.37000
18055550;-0.38500
18058328;-0.38000
18061106;-0.37500
18063884;-0.36000
18066662;-0.37000
18069439;-0.38000
18072217;-0.38500
18074995;-0.38500
18077773;-0.36500
18080550;-0.35500
18083328;-0.36000
18086106;-0.36000
18088884;-0.37500
18091662;-0.39500
18094439;-0.37000
18097217;-0.35500
18099995;-0.35500
18102773;-0.36500
18105550;-0.37000
18108328;-0.37000
18111106;-0.36500
18113884;-0.36500
18116662;-0.35500
18119439;-0.37500
18122217;-0.39000
18124995;-0.37000
18127773;-0.37000
18130550;-0.36500
18133328;-0.37500
18136106;-0.37500
18138884;-0.38500
18141662;-0.37000
18144439;-0.39000
18147217;-0.38000
18149995;-0.37500
18152773;-0.38000
18155550;-0.39000
18158328;-0.39000
18161106;-0.38000
18163884;-0.36500
18166662;-0.36000
18169439;-0.36000
18172217;-0.36500
18174995;-0.35000
18177773;-0.34000
18180550;-0.33500
18183328;-0.32500
18186106;-0.33000
18188884;-0.33500
18191662;-0.33000
18194439;-0.32000
18197217;-0.29500
18199995;-0.29000
18202773;-0.30000
18205550;-0.31000
18208328;-0.30500
18211106;-0.30000
18213884;-0.30500
18216662;-0.29500
18219439;-0.29500
18222217;-0.31000
18224995;-0.30000
18227773;-0.29000
18230550;-0.29500
18233328;-0.29000
18236106;-0.29000
18238884;-0.29500
18241662;-0.30500
18244439;-0.29500
18247217;-0.29000
18249995;-0.29000
18252773;-0.29000
18255550;-0.32000
18258328;-0.32000
18261106;-0.31000
18263884;-0.30000
18266662;-0.29500
18269439;-0.30000
18272217;-0.31000
18274995;-0.31500
18277773;-0.30500
18280550;-0.30000
18283328;-0.30000
18286106;-0.29500
18288884;-0.31000
18291662;-0.32000
18294439;-0.32000
18297217;-0.30500
18299995;-0.30500
18302773;-0.31000
18305550;-0.32000
18308328;-0.31500
18311106;-0.32000
18313884;-0.32000
18316662;-0.31000
18319439;-0.32500
18322217;-0.32000
18324995;-0.33000
18327773;-0.31000
18330550;-0.30500
18333328;-0.32000
18336106;-0.32000
18338884;-0.34000
18341662;-0.33500
18344439;-0.33000
18347217;-0.32000
18349995;-0.31500
18352773;-0.33000
18355550;-0.34000
18358328;-0.34500
18361106;-0.34500
18363884;-0.34000
18366662;-0.34500
18369439;-0.34500
18372217;-0.35500
18374995;-0.35500
18377773;-0.35000
18380550;-0.33500
18383328;-0.34000
18386106;-0.34000
18388884;-0.36000
18391662;-0.35500
18394439;-0.34500
18397217;-0.33500
18399995;-0.34000
18402773;-0.34500
18405550;-0.35500
18408328;-0.35500
18411106;-0.34000
18413884;-0.33500
18416662;-0.32500
18419439;-0.34000
18422217;-0.36000
18424995;-0.36000
18427773;-0.34000
18430550;-0.34500
18433328;-0.33500
18436106;-0.34500
18438884;-0.34500
18441662;-0.35000
18444439;-0.34500
18447217;-0.32500
18449995;-0.32500
18452773;-0.33500
18455550;-0.33500
18458328;-0.32000
18461106;-0.30500
18463884;-0.29000
18466661;-0.28000
18469439;-0.28500
18472217;-0.29500
18474995;-0.29500
18477773;-0.28500
18480550;-0.25000
18483328;-0.24500
18486106;-0.24000
18488884;-0.25500
18491661;-0.24000
18494439;-0.23000
18497217;-0.22500
18499995;-0.23500
18502773;-0.24000
18505550;-0.26000
18508328;-0.26000
18511106;-0.25000
18513884;-0.24000
18516661;-0.24500
18519439;-0.26000
18522217;-0.27500
18524995;-0.26000
18527773;-0.24000
18530550;-0.22500
18533328;-0.24000
18536106;-0.28500
18538884;-0.31000
18541661;-0.31500
18544439;-0.31500
18547217;-0.33500
18549995;-0.34500
18552773;-0.34500
18555550;-0.37000
18558328;-0.37000
18561106;-0.36000
18563884;-0.34000
18566661;-0.33500
18569439;-0.34000
18572217;-0.36000
18574995;-0.36000
18577773;-0.36000
18580550;-0.36000
18583328;-0.35000
18586106;-0.36000
18588884;-0.37500
18591661;-0.37000
18594439;-0.37000
18597217;-0.35500
18599995;-0.36500
18602773;-0.37500
18605550;-0.38500
18608328;-0.38000
18611106;-0.37000
18613884;-0.36500
18616661;-0.35500
18619439;-0.37500
18622217;-0.39500
18624995;-0.40000
18627773;-0.41000
18630550;-0.43500
18633328;-0.47000
18636106;-0.48500
18638884;-0.52500
18641661;-0.56500
18644439;-0.59000
18647217;-0.55000
18649995;-0.42500
18652773;-0.30500
18655550;-0.15000
18658328;0.08000
18661106;0.36500
18663884;0.64500
18666661;0.83000
18669439;0.85500
18672217;0.68000
18674995;0.33000
18677773;-0.05000
18680550;-0.33000
18683328;-0.48000
18686106;-0.51500
18688884;-0.48500
18691661;-0.43000
18694439;-0.40500
18697217;-0.40000
18699995;-0.38500
18702773;-0.38000
18705550;-0.40000
18708328;-0.40000
18711106;-0.39500
18713884;-0.39500
18716661;-0.40000
18719439;-0.40000
18722217;-0.41500
18724995;-0.42500
18727773;-0.42500
18730550;-0.40000
18733328;-0.41500
18736106;-0.41500
18738884;-0.43000
18741661;-0.42500
18744439;-0.42000
18747217;-0.40500
18749995;-0.40000
18752773;-0.42000
18755550;-0.43500
18758328;-0.42000
18761106;-0.40500
18763884;-0.39500
18766661;-0.39000
18769439;-0.40000
18772217;-0.41000
18774995;-0.42500
18777773;-0.40500
18780550;-0.40000
18783328;-0.39500
18786106;-0.40000
18788884;-0.42500
18791661;-0.41000
18794439;-0.41500
18797217;-0.40500
18799995;-0.40000
18802773;-0.39500
18805550;-0.42500
18808328;-0.41500
18811106;-0.41000
18813884;-0.40500
18816661;-0.40500
18819439;-0.42500
18822217;-0.43000
18824995;-0.41500
18827773;-0.40500
18830550;-0.39000
18833328;-0.39000
18836106;-0.39500
18838884;-0.40500
18841661;-0.41000
18844439;-0.39500
18847217;-0.40500
18849995;-0.41000
18852772;-0.40000
18855550;-0.41500
18858328;-0.41500
18861106;-0.41000
18863884;-0.39500
18866661;-0.38500
18869439;-0.38500
18872217;-0.40500
18874995;-0.40500
18877772;-0.40500
18880550;-0.39000
18883328;-0.40000
18886106;-0.42000
18888884;-0.42500
18891661;-0.44000
18894439;-0.43500
18897217;-0.44000
18899995;-0.44000
18902772;-0.44500
18905550;-0.46500
18908328;-0.45500
18911106;-0.45500
18913884;-0.45000
18916661;-0.44000
18919439;-0.44500
18922217;-0.45500
18924995;-0.46000
18927772;-0.47000
18930550;-0.46000
18933328;-0.45000
18936106;-0.44500
18938884;-0.44000
18941661;-0.42500
18944439;-0.40000
18947217;-0.40000
18949995;-0.40500
18952772;-0.41000
18955550;-0.41000
18958328;-0.40000
18961106;-0.37000
18963884;-0.34500
18966661;-0.35000
18969439;-0.35000
18972217;-0.34500
18974995;-0.34000
18977772;-0.33500
18980550;-0.32000
18983328;-0.31000
18986106;-0.32000
18988884;-0.33000
18991661;-0.33000
18994439;-0.32500
18997217;-0.30000
18999995;-0.30000
19002772;-0.31000
19005550;-0.31500
19008328;-0.30500
19011106;-0.29500
19013884;-0.30000
19016661;-0.30000
19019439;-0.29500
19022217;-0.30000
19024995;-0.29500
19027772;-0.30000
19030550;-0.29500
19033328;-0.29000
19036106;-0.31000
19038884;-0.31500
19041661;-0.32000
19044439;-0.31500
19047217;-0.31000
19049995;-0.31500
19052772;-0.32000
19055550;-0.33000
19058328;-0.32500
19061106;-0.33000
19063884;-0.31500
19066661;-0.31500
19069439;-0.32000
19072217;-0.32500
19074995;-0.32500
19077772;-0.33000
19080550;-0.33000
19083328;-0.31000
19086106;-0.32500
19088884;-0.35500
19091661;-0.36500
19094439;-0.35000
19097217;-0.34000
19099995;-0.33500
19102772;-0.34000
19105550;-0.35000
19108328;-0.35500
19111106;-0.35500
19113884;-0.33500
19116661;-0.34000
19119439;-0.34000
19122217;-0.35500
19124995;-0.34500
19127772;-0.34500
19130550;-0.33500
19133328;-0.34500
19136106;-0.35000
19138884;-0.36000
19141661;-0.35000
19144439;-0.34000
19147217;-0.33500
19149995;-0.34500
19152772;-0.34500
19155550;-0.36500
19158328;-0.36000
19161106;-0.34500
