time_ms;ecg_value
0;-0.48500
2778;-0.50000
5556;-0.51000
8333;-0.50000
11111;-0.48500
13889;-0.48000
16667;-0.48000
19444;-0.48500
22222;-0.49500
25000;-0.49500
27778;-0.48000
30556;-0.47000
33333;-0.47000
36111;-0.47500
38889;-0.48000
41667;-0.46500
44444;-0.43000
47222;-0.42500
50000;-0.42000
52778;-0.40500
55556;-0.41500
58333;-0.40000
61111;-0.38500
63889;-0.38000
66667;-0.37000
69444;-0.37000
72222;-0.37000
75000;-0.37000
77778;-0.35500
80556;-0.34500
83333;-0.34000
86111;-0.35500
88889;-0.34500
91667;-0.33000
94444;-0.32500
97222;-0.32000
100000;-0.31500
102778;-0.32000
105556;-0.34000
108333;-0.32500
111111;-0.31500
113889;-0.31500
116667;-0.32000
119444;-0.32500
122222;-0.34500
125000;-0.33500
127778;-0.32000
130556;-0.32000
133333;-0.32500
136111;-0.33500
138889;-0.34000
141667;-0.33000
144444;-0.32500
147222;-0.33000
150000;-0.32000
152778;-0.32500
155556;-0.34500
158333;-0.33500
161111;-0.33000
163889;-0.32000
166667;-0.32000
169444;-0.33500
172222;-0.35000
175000;-0.34500
177778;-0.32000
180556;-0.32500
183333;-0.32000
186111;-0.33000
188889;-0.34000
191667;-0.34000
194444;-0.34500
197222;-0.33000
200000;-0.34000
202778;-0.35000
205555;-0.36000
208333;-0.36000
211111;-0.35000
213889;-0.35500
216667;-0.35500
219444;-0.36000
222222;-0.37000
225000;-0.37500
227778;-0.34500
230555;-0.33500
233333;-0.34500
236111;-0.35500
238889;-0.35500
241667;-0.36000
244444;-0.36000
247222;-0.34500
250000;-0.35500
252778;-0.36500
255555;-0.36000
258333;-0.36000
261111;-0.36000
263889;-0.36000
266667;-0.35000
269444;-0.36000
272222;-0.37000
275000;-0.36000
277778;-0.35000
280555;-0.35500
283333;-0.36500
286111;-0.36000
288889;-0.38000
291667;-0.38000
294444;-0.37500
297222;-0.36000
300000;-0.38000
302778;-0.39000
305555;-0.38500
308333;-0.38500
311111;-0.37500
313889;-0.35000
316667;-0.35500
319444;-0.36000
322222;-0.37000
325000;-0.36000
327778;-0.35500
330555;-0.34500
333333;-0.34500
336111;-0.35500
338889;-0.36000
341667;-0.36000
344444;-0.35500
347222;-0.33500
350000;-0.33500
352778;-0.34000
355555;-0.32000
358333;-0.32000
361111;-0.29500
363889;-0.28500
366667;-0.28500
369444;-0.29500
372222;-0.30500
375000;-0.29500
377778;-0.27500
380555;-0.25500
383333;-0.25000
386111;-0.26500
388889;-0.26000
391667;-0.26500
394444;-0.24500
397222;-0.24000
400000;-0.24000
402778;-0.24500
405555;-0.26000
408333;-0.26500
411111;-0.26000
413889;-0.26000
416667;-0.26000
419444;-0.27500
422222;-0.28000
425000;-0.27000
427778;-0.27500
430555;-0.27000
433333;-0.25500
436111;-0.24500
438889;-0.25000
441667;-0.28000
444444;-0.29500
447222;-0.31500
450000;-0.32500
452778;-0.34500
455555;-0.36500
458333;-0.37500
461111;-0.37500
463889;-0.37000
466667;-0.37000
469444;-0.38500
472222;-0.39000
475000;-0.38000
477778;-0.37500
480555;-0.36500
483333;-0.37000
486111;-0.38500
488889;-0.39500
491667;-0.39000
494444;-0.38500
497222;-0.37500
500000;-0.38500
502778;-0.39500
505555;-0.40500
508333;-0.40000
511111;-0.40000
513889;-0.39000
516667;-0.39500
519444;-0.41000
522222;-0.43000
525000;-0.44500
527778;-0.47500
530555;-0.50500
533333;-0.52500
536111;-0.55000
538889;-0.59500
541667;-0.60000
544444;-0.56000
547222;-0.42000
550000;-0.27500
552778;-0.13500
555555;-0.01500
558333;0.15500
561111;0.35000
563889;0.58000
566667;0.77000
569444;0.91000
572222;0.98500
575000;1.07000
577778;1.10500
580555;0.99000
583333;0.65000
586111;0.20500
588889;-0.21000
591667;-0.46000
594444;-0.52000
597222;-0.47500
600000;-0.43000
602778;-0.42000
605555;-0.44000
608333;-0.44000
611111;-0.43000
613889;-0.43000
616666;-0.43000
619444;-0.43500
622222;-0.44500
625000;-0.45000
627778;-0.43000
630555;-0.43500
633333;-0.43500
636111;-0.44000
638889;-0.47000
641666;-0.44500
644444;-0.43500
647222;-0.43000
650000;-0.43500
652778;-0.44000
655555;-0.45500
658333;-0.45000
661111;-0.44000
663889;-0.45000
666666;-0.45000
669444;-0.46500
672222;-0.46500
675000;-0.46000
677778;-0.46000
680555;-0.45000
683333;-0.45500
686111;-0.46500
688889;-0.46500
691666;-0.45500
694444;-0.45000
697222;-0.45500
700000;-0.44500
702778;-0.46000
705555;-0.46000
708333;-0.46000
711111;-0.44500
713889;-0.43500
716666;-0.45000
719444;-0.45000
722222;-0.46000
725000;-0.45000
727778;-0.44500
730555;-0.45000
733333;-0.43500
736111;-0.44500
738889;-0.46000
741666;-0.45500
744444;-0.45000
747222;-0.45000
750000;-0.45000
752778;-0.46500
755555;-0.47000
758333;-0.46500
761111;-0.45500
763889;-0.45000
766666;-0.47000
769444;-0.47500
772222;-0.47000
775000;-0.46500
777778;-0.45000
780555;-0.44000
783333;-0.44000
786111;-0.44500
788889;-0.46500
791666;-0.44500
794444;-0.43000
797222;-0.43500
800000;-0.42500
802778;-0.44500
805555;-0.45500
808333;-0.45500
811111;-0.45000
813889;-0.45000
816666;-0.45000
819444;-0.45000
822222;-0.46500
825000;-0.46500
827778;-0.46000
830555;-0.45000
833333;-0.45500
836111;-0.46000
838889;-0.48000
841666;-0.47000
844444;-0.47500
847222;-0.45500
850000;-0.46500
852778;-0.46000
855555;-0.45500
858333;-0.45000
861111;-0.43500
863889;-0.42500
866666;-0.42000
869444;-0.42500
872222;-0.42000
875000;-0.42000
877778;-0.40500
880555;-0.39000
883333;-0.36500
886111;-0.37500
888889;-0.37500
891666;-0.36500
894444;-0.35000
897222;-0.34000
900000;-0.34000
902778;-0.33000
905555;-0.33500
908333;-0.33000
911111;-0.31500
913889;-0.32000
916666;-0.30500
919444;-0.32000
922222;-0.32500
925000;-0.31500
927778;-0.30500
930555;-0.29500
933333;-0.30000
936111;-0.31000
938889;-0.32500
941666;-0.32000
944444;-0.30000
947222;-0.30000
950000;-0.31500
952778;-0.31500
955555;-0.32000
958333;-0.31000
961111;-0.31000
963889;-0.31000
966666;-0.30500
969444;-0.33000
972222;-0.33000
975000;-0.33500
977778;-0.32500
980555;-0.31500
983333;-0.31000
986111;-0.32000
988889;-0.34000
991666;-0.33500
994444;-0.32500
997222;-0.32000
1000000;-0.33500
1002777;-0.32500
1005555;-0.34000
1008333;-0.34000
1011111;-0.34000
1013889;-0.32000
1016666;-0.33000
1019444;-0.33000
1022222;-0.34500
1025000;-0.34000
1027777;-0.33000
1030555;-0.33000
1033333;-0.33000
1036111;-0.35000
1038889;-0.34500
1041666;-0.35000
1044444;-0.34500
1047222;-0.34000
1050000;-0.34500
1052777;-0.35500
1055555;-0.36500
1058333;-0.36500
1061111;-0.37000
1063889;-0.35000
1066666;-0.36500
1069444;-0.36500
1072222;-0.38000
1075000;-0.38500
1077777;-0.37500
1080555;-0.36500
1083333;-0.36000
1086111;-0.37000
1088889;-0.37500
1091666;-0.36500
1094444;-0.36000
1097222;-0.35000
1100000;-0.36500
1102777;-0.36000
1105555;-0.39000
1108333;-0.37000
1111111;-0.36500
1113889;-0.36500
1116666;-0.36000
1119444;-0.37500
1122222;-0.38500
1125000;-0.38000
1127777;-0.37500
1130555;-0.36500
1133333;-0.36500
1136111;-0.37000
1138889;-0.37500
1141666;-0.37500
1144444;-0.37500
1147222;-0.36000
1150000;-0.35000
1152777;-0.36000
1155555;-0.38000
1158333;-0.36500
1161111;-0.36000
1163889;-0.35000
1166666;-0.34000
1169444;-0.35000
1172222;-0.37000
1175000;-0.36000
1177777;-0.35500
1180555;-0.34000
1183333;-0.35000
1186111;-0.34000
1188889;-0.36000
1191666;-0.36500
1194444;-0.36000
1197222;-0.34500
1200000;-0.34000
1202777;-0.35000
1205555;-0.35500
1208333;-0.33000
1211111;-0.31500
1213889;-0.29000
1216666;-0.29000
1219444;-0.29500
1222222;-0.31500
1225000;-0.28500
1227777;-0.27000
1230555;-0.26000
1233333;-0.24000
1236111;-0.25000
1238889;-0.25500
1241666;-0.25000
1244444;-0.24500
1247222;-0.25500
1250000;-0.26500
1252777;-0.28500
1255555;-0.30500
1258333;-0.30000
1261111;-0.28500
1263889;-0.28500
1266666;-0.28500
1269444;-0.30500
1272222;-0.30500
1275000;-0.27000
1277777;-0.24000
1280555;-0.22000
1283333;-0.22000
1286111;-0.25000
1288889;-0.28500
1291666;-0.30000
1294444;-0.30500
1297222;-0.30500
1300000;-0.31500
1302777;-0.33500
1305555;-0.36000
1308333;-0.36500
1311111;-0.36500
1313889;-0.37000
1316666;-0.37500
1319444;-0.38500
1322222;-0.39500
1325000;-0.38500
1327777;-0.37500
1330555;-0.37500
1333333;-0.38500
1336111;-0.40000
1338889;-0.41000
1341666;-0.40500
1344444;-0.40500
1347222;-0.39000
1350000;-0.40000
1352777;-0.41000
1355555;-0.41000
1358333;-0.41000
1361111;-0.39500
1363889;-0.39500
1366666;-0.40000
1369444;-0.41000
1372222;-0.43000
1375000;-0.43500
1377777;-0.45000
1380555;-0.48000
1383333;-0.51500
1386111;-0.53500
1388888;-0.54500
1391666;-0.58500
1394444;-0.60500
1397222;-0.55000
1400000;-0.43000
1402777;-0.29500
1405555;-0.13500
1408333;0.09500
1411111;0.36000
1413888;0.61000
1416666;0.80500
1419444;0.86500
1422222;0.78000
1425000;0.50000
1427777;0.10500
1430555;-0.26000
1433333;-0.47500
1436111;-0.55000
1438888;-0.53000
1441666;-0.47500
1444444;-0.44000
1447222;-0.42000
1450000;-0.43000
1452777;-0.43000
1455555;-0.44500
1458333;-0.45000
1461111;-0.44000
1463888;-0.43000
1466666;-0.44000
1469444;-0.44500
1472222;-0.45000
1475000;-0.45000
1477777;-0.43500
1480555;-0.42500
1483333;-0.43500
1486111;-0.44000
1488888;-0.45000
1491666;-0.45000
1494444;-0.44000
1497222;-0.44000
1500000;-0.43500
1502777;-0.45000
1505555;-0.44500
1508333;-0.46000
1511111;-0.45000
1513888;-0.44500
1516666;-0.44000
1519444;-0.44500
1522222;-0.45000
1525000;-0.44500
1527777;-0.44000
1530555;-0.43500
1533333;-0.43000
1536111;-0.46000
1538888;-0.46000
1541666;-0.46000
1544444;-0.44500
1547222;-0.44500
1550000;-0.43500
1552777;-0.45000
1555555;-0.46000
1558333;-0.45500
1561111;-0.45000
1563888;-0.44500
1566666;-0.44500
1569444;-0.45000
1572222;-0.46000
1575000;-0.45000
1577777;-0.44500
1580555;-0.43500
1583333;-0.45000
1586111;-0.45500
1588888;-0.48000
1591666;-0.47000
1594444;-0.47000
1597222;-0.45000
1600000;-0.46000
1602777;-0.47500
1605555;-0.48500
1608333;-0.48000
1611111;-0.48000
1613888;-0.45500
1616666;-0.45500
1619444;-0.46000
1622222;-0.47000
1625000;-0.46500
1627777;-0.45000
1630555;-0.44000
1633333;-0.44500
1636111;-0.46000
1638888;-0.47500
1641666;-0.47500
1644444;-0.45500
1647222;-0.44500
1650000;-0.45500
1652777;-0.45000
1655555;-0.47000
1658333;-0.47000
1661111;-0.46000
1663888;-0.46000
1666666;-0.46500
1669444;-0.48000
1672222;-0.48500
1675000;-0.48500
1677777;-0.47500
1680555;-0.47000
1683333;-0.48000
1686111;-0.49500
1688888;-0.48000
1691666;-0.47500
1694444;-0.46500
1697222;-0.45500
1700000;-0.46500
1702777;-0.47000
1705555;-0.48500
1708333;-0.48500
1711111;-0.46500
1713888;-0.44500
1716666;-0.43000
1719444;-0.43000
1722222;-0.43000
1725000;-0.43000
1727777;-0.41000
1730555;-0.38500
1733333;-0.39000
1736111;-0.39500
1738888;-0.42000
1741666;-0.39000
1744444;-0.40500
1747222;-0.38000
1750000;-0.38000
1752777;-0.37000
1755555;-0.38000
1758333;-0.37500
1761111;-0.35500
1763888;-0.35500
1766666;-0.35000
1769444;-0.35000
1772222;-0.36000
1775000;-0.34000
1777777;-0.33500
1780555;-0.33500
1783333;-0.33500
1786111;-0.35000
1788888;-0.36000
1791666;-0.35000
1794444;-0.33500
1797222;-0.33500
1799999;-0.34000
1802777;-0.34500
1805555;-0.36000
1808333;-0.35000
1811111;-0.34500
1813888;-0.35000
1816666;-0.35500
1819444;-0.36000
1822222;-0.36500
1824999;-0.36500
1827777;-0.36000
1830555;-0.35500
1833333;-0.36000
1836111;-0.37000
1838888;-0.38500
1841666;-0.37000
1844444;-0.36500
1847222;-0.34500
1849999;-0.34000
1852777;-0.35000
1855555;-0.37000
1858333;-0.36500
1861111;-0.37000
1863888;-0.36500
1866666;-0.36500
1869444;-0.36500
1872222;-0.38000
1874999;-0.36000
1877777;-0.36500
1880555;-0.36000
1883333;-0.37500
1886111;-0.39000
1888888;-0.41000
1891666;-0.40500
1894444;-0.39500
1897222;-0.38500
1899999;-0.40000
1902777;-0.41000
1905555;-0.42500
1908333;-0.41000
1911111;-0.39500
1913888;-0.39500
1916666;-0.39500
1919444;-0.41000
1922222;-0.42500
1924999;-0.41000
1927777;-0.39000
1930555;-0.38500
1933333;-0.39000
1936111;-0.38500
1938888;-0.39500
1941666;-0.39500
1944444;-0.39000
1947222;-0.39500
1949999;-0.39500
1952777;-0.40500
1955555;-0.41000
1958333;-0.40000
1961111;-0.38500
1963888;-0.38500
1966666;-0.40500
1969444;-0.40500
1972222;-0.41500
1974999;-0.41500
1977777;-0.40500
1980555;-0.38500
1983333;-0.39500
1986111;-0.40500
1988888;-0.42000
1991666;-0.41000
1994444;-0.40000
1997222;-0.39500
1999999;-0.40000
2002777;-0.40500
2005555;-0.41000
2008333;-0.40500
2011111;-0.38000
2013888;-0.37500
2016666;-0.38000
2019444;-0.38500
2022222;-0.41000
2024999;-0.40500
2027777;-0.39500
2030555;-0.40000
2033333;-0.38500
2036111;-0.40500
2038888;-0.39500
2041666;-0.36000
2044444;-0.34500
2047222;-0.32000
2049999;-0.31000
2052777;-0.34000
2055555;-0.37000
2058333;-0.37000
2061111;-0.34000
2063888;-0.30500
2066666;-0.28500
2069444;-0.29000
2072222;-0.30500
2074999;-0.30500
2077777;-0.28000
2080555;-0.28500
2083333;-0.28000
2086111;-0.29500
2088888;-0.31000
2091666;-0.32500
2094444;-0.31000
2097222;-0.29000
2099999;-0.28500
2102777;-0.32000
2105555;-0.33000
2108333;-0.31500
2111111;-0.31000
2113888;-0.27000
2116666;-0.28000
2119444;-0.30000
2122222;-0.33500
2124999;-0.35500
2127777;-0.35000
2130555;-0.37500
2133333;-0.39000
2136111;-0.41000
2138888;-0.43000
2141666;-0.42500
2144444;-0.42000
2147222;-0.41500
2149999;-0.42500
2152777;-0.44000
2155555;-0.44500
2158333;-0.44000
2161111;-0.43000
2163888;-0.40000
2166666;-0.39500
2169444;-0.40500
2172222;-0.42500
2174999;-0.42500
2177777;-0.43000
2180555;-0.43000
2183333;-0.42500
2186110;-0.43500
2188888;-0.44000
2191666;-0.43000
2194444;-0.41500
2197222;-0.42000
2199999;-0.43500
2202777;-0.45000
2205555;-0.47000
2208333;-0.46000
2211110;-0.45000
2213888;-0.46500
2216666;-0.48000
2219444;-0.51500
2222222;-0.53500
2224999;-0.56000
2227777;-0.59000
2230555;-0.61500
2233333;-0.61500
2236110;-0.55500
2238888;-0.44500
2241666;-0.29500
2244444;-0.12500
2247222;0.08500
2249999;0.32500
2252777;0.56000
2255555;0.72000
2258333;0.82000
2261110;0.77500
2263888;0.54500
2266666;0.16000
2269444;-0.22000
2272222;-0.47000
2274999;-0.57500
2277777;-0.58500
2280555;-0.54500
2283333;-0.50500
2286110;-0.49500
2288888;-0.50000
2291666;-0.49500
2294444;-0.48000
2297222;-0.47500
2299999;-0.49000
2302777;-0.49000
2305555;-0.50500
2308333;-0.50000
2311110;-0.48500
2313888;-0.47000
2316666;-0.47500
2319444;-0.49500
2322222;-0.50000
2324999;-0.49500
2327777;-0.50000
2330555;-0.49000
2333333;-0.48500
2336110;-0.48500
2338888;-0.50000
2341666;-0.49000
2344444;-0.47500
2347222;-0.46500
2349999;-0.47500
2352777;-0.48500
2355555;-0.50000
2358333;-0.51000
2361110;-0.50000
2363888;-0.49500
2366666;-0.48000
2369444;-0.49000
2372222;-0.52000
2374999;-0.50500
2377777;-0.49500
2380555;-0.49000
2383333;-0.49000
2386110;-0.50000
2388888;-0.51500
2391666;-0.52000
2394444;-0.51000
2397222;-0.49500
2399999;-0.49000
2402777;-0.49500
2405555;-0.51000
2408333;-0.50500
2411110;-0.50500
2413888;-0.50000
2416666;-0.50500
2419444;-0.50500
2422222;-0.50000
2424999;-0.49500
2427777;-0.49000
2430555;-0.49500
2433333;-0.50000
2436110;-0.51500
2438888;-0.51000
2441666;-0.49500
2444444;-0.48500
2447222;-0.49000
2449999;-0.48500
2452777;-0.49500
2455555;-0.52000
2458333;-0.52000
2461110;-0.51000
2463888;-0.51000
2466666;-0.50000
2469444;-0.50500
2472222;-0.51500
2474999;-0.50500
2477777;-0.50000
2480555;-0.49500
2483333;-0.49000
2486110;-0.50000
2488888;-0.51000
2491666;-0.50500
2494444;-0.49500
2497222;-0.49500
2499999;-0.49500
2502777;-0.50000
2505555;-0.51500
2508333;-0.52000
2511110;-0.52500
2513888;-0.52000
2516666;-0.53500
2519444;-0.54000
2522222;-0.55000
2524999;-0.54500
2527777;-0.54000
2530555;-0.54000
2533333;-0.54500
2536110;-0.56000
2538888;-0.56000
2541666;-0.57000
2544444;-0.56000
2547222;-0.55000
2549999;-0.55500
2552777;-0.55000
2555555;-0.56000
2558333;-0.55500
2561110;-0.54000
2563888;-0.52000
2566666;-0.50000
2569444;-0.49000
2572222;-0.49000
2574999;-0.47000
2577777;-0.44500
2580555;-0.42000
2583333;-0.40500
2586110;-0.41000
2588888;-0.41000
2591666;-0.39000
2594444;-0.38500
2597221;-0.37000
2599999;-0.37000
2602777;-0.37000
2605555;-0.38000
2608333;-0.37000
2611110;-0.36500
2613888;-0.35500
2616666;-0.35500
2619444;-0.35500
2622221;-0.37000
2624999;-0.36500
2627777;-0.36500
2630555;-0.35000
2633333;-0.35500
2636110;-0.36000
2638888;-0.36500
2641666;-0.36000
2644444;-0.36000
2647221;-0.35500
2649999;-0.35000
2652777;-0.35500
2655555;-0.36000
2658333;-0.36000
2661110;-0.36000
2663888;-0.35000
2666666;-0.34500
2669444;-0.36500
2672221;-0.37500
2674999;-0.37000
2677777;-0.36000
2680555;-0.36500
2683333;-0.36500
2686110;-0.36000
2688888;-0.37000
2691666;-0.36500
2694444;-0.36500
2697221;-0.35500
2699999;-0.36000
2702777;-0.37000
2705555;-0.37500
2708333;-0.38500
2711110;-0.38000
2713888;-0.37000
2716666;-0.36000
2719444;-0.37500
2722221;-0.38000
2724999;-0.38000
2727777;-0.39000
2730555;-0.35500
2733333;-0.37000
2736110;-0.37000
2738888;-0.38000
2741666;-0.37500
2744444;-0.37500
2747221;-0.36000
2749999;-0.35500
2752777;-0.37500
2755555;-0.38500
2758333;-0.39000
2761110;-0.38000
2763888;-0.37500
2766666;-0.36500
2769444;-0.37500
2772221;-0.38500
2774999;-0.38500
2777777;-0.37500
2780555;-0.36000
2783333;-0.36500
2786110;-0.38500
2788888;-0.38500
2791666;-0.38500
2794444;-0.37000
2797221;-0.36500
2799999;-0.36500
2802777;-0.37000
2805555;-0.39000
2808333;-0.37000
2811110;-0.36500
2813888;-0.36000
2816666;-0.35500
2819444;-0.37000
2822221;-0.37000
2824999;-0.37000
2827777;-0.36000
2830555;-0.34500
2833333;-0.34500
2836110;-0.35500
2838888;-0.36500
2841666;-0.36000
2844444;-0.35500
2847221;-0.34000
2849999;-0.34500
2852777;-0.35500
2855555;-0.35500
2858333;-0.35500
2861110;-0.35000
2863888;-0.35000
2866666;-0.36000
2869444;-0.36500
2872221;-0.37500
2874999;-0.37000
2877777;-0.36000
2880555;-0.35500
2883333;-0.36000
2886110;-0.35000
2888888;-0.35000
2891666;-0.33500
2894444;-0.32000
2897221;-0.30000
2899999;-0.29000
2902777;-0.29500
2905555;-0.29500
2908333;-0.29000
2911110;-0.27000
2913888;-0.26500
2916666;-0.26500
2919444;-0.25000
2922221;-0.25000
2924999;-0.24500
2927777;-0.25000
2930555;-0.23500
2933333;-0.23500
2936110;-0.25000
2938888;-0.25500
2941666;-0.27000
2944444;-0.26500
2947221;-0.26500
2949999;-0.26000
2952777;-0.27000
2955555;-0.27500
2958333;-0.28500
2961110;-0.27500
2963888;-0.28000
2966666;-0.29000
2969444;-0.26000
2972221;-0.26000
2974999;-0.25500
2977777;-0.25500
2980555;-0.27500
2983332;-0.30000
2986110;-0.31500
2988888;-0.34000
2991666;-0.34500
2994444;-0.35500
2997221;-0.35000
2999999;-0.36000
3002777;-0.37000
3005555;-0.38000
3008332;-0.37500
3011110;-0.37500
3013888;-0.36500
3016666;-0.37000
3019444;-0.39000
3022221;-0.39000
3024999;-0.39500
3027777;-0.39500
3030555;-0.38000
3033332;-0.37500
3036110;-0.40000
3038888;-0.40500
3041666;-0.40000
3044444;-0.40500
3047221;-0.38000
3049999;-0.38500
3052777;-0.39000
3055555;-0.40500
3058332;-0.39000
3061110;-0.39500
3063888;-0.42000
3066666;-0.45500
3069444;-0.50500
3072221;-0.53000
3074999;-0.54500
3077777;-0.57000
3080555;-0.54500
3083332;-0.47500
3086110;-0.34000
3088888;-0.19500
3091666;-0.04500
3094444;0.13500
3097221;0.32500
3099999;0.54000
3102777;0.71500
3105555;0.83000
3108332;0.91000
3111110;1.00000
3113888;1.08500
3116666;1.14000
3119444;1.10000
3122221;0.89000
3124999;0.53000
3127777;0.10500
3130555;-0.25000
3133332;-0.47500
3136110;-0.52500
3138888;-0.49000
3141666;-0.44000
3144444;-0.41000
3147221;-0.40500
3149999;-0.41000
3152777;-0.43000
3155555;-0.43500
3158332;-0.42500
3161110;-0.42500
3163888;-0.42000
3166666;-0.43500
3169444;-0.43000
3172221;-0.44500
3174999;-0.44500
3177777;-0.44000
3180555;-0.43000
3183332;-0.43000
3186110;-0.43500
3188888;-0.44500
3191666;-0.44500
3194444;-0.45000
3197221;-0.43500
3199999;-0.43500
3202777;-0.45000
3205555;-0.46000
3208332;-0.46000
3211110;-0.45500
3213888;-0.44000
3216666;-0.44500
3219444;-0.45000
3222221;-0.44000
3224999;-0.45000
3227777;-0.44000
3230555;-0.43000
3233332;-0.44000
3236110;-0.44500
3238888;-0.45000
3241666;-0.45500
3244444;-0.44000
3247221;-0.44000
3249999;-0.43500
3252777;-0.46000
3255555;-0.46000
3258332;-0.45500
3261110;-0.46000
3263888;-0.45000
3266666;-0.45500
3269444;-0.46000
3272221;-0.47000
3274999;-0.47500
3277777;-0.47500
3280555;-0.45500
3283332;-0.46000
3286110;-0.45500
3288888;-0.45500
3291666;-0.45500
3294444;-0.44500
3297221;-0.44000
3299999;-0.43500
3302777;-0.44000
3305555;-0.45500
3308332;-0.45000
3311110;-0.45000
3313888;-0.45000
3316666;-0.44500
3319444;-0.46000
3322221;-0.46000
3324999;-0.45000
3327777;-0.44000
3330555;-0.45000
3333332;-0.45000
3336110;-0.46000
3338888;-0.48000
3341666;-0.47500
3344444;-0.48000
3347221;-0.48000
3349999;-0.47500
3352777;-0.48500
3355555;-0.49500
3358332;-0.50000
3361110;-0.48500
3363888;-0.47500
3366666;-0.48000
3369444;-0.48500
3372221;-0.49500
3374999;-0.48000
3377777;-0.47500
3380555;-0.46000
3383332;-0.45500
3386110;-0.46500
3388888;-0.46500
3391666;-0.45500
3394443;-0.43500
3397221;-0.41000
3399999;-0.41000
3402777;-0.41000
3405555;-0.40500
3408332;-0.39500
3411110;-0.37500
3413888;-0.35000
3416666;-0.36000
3419443;-0.35000
3422221;-0.34500
3424999;-0.35000
3427777;-0.33000
3430555;-0.31500
3433332;-0.33000
3436110;-0.33500
3438888;-0.34000
3441666;-0.34000
3444443;-0.33500
3447221;-0.31000
3449999;-0.31000
3452777;-0.31500
3455555;-0.32500
3458332;-0.33000
3461110;-0.31500
3463888;-0.31000
3466666;-0.30000
3469443;-0.31000
3472221;-0.32000
3474999;-0.33000
3477777;-0.31000
3480555;-0.31000
3483332;-0.31500
3486110;-0.33000
3488888;-0.32000
3491666;-0.32000
3494443;-0.31000
3497221;-0.31000
3499999;-0.31000
3502777;-0.31500
3505555;-0.33500
3508332;-0.34000
3511110;-0.33500
3513888;-0.33000
3516666;-0.33000
3519443;-0.34000
3522221;-0.35500
3524999;-0.36500
3527777;-0.34500
3530555;-0.32500
3533332;-0.33000
3536110;-0.33500
3538888;-0.35000
3541666;-0.35000
3544443;-0.34000
3547221;-0.35000
3549999;-0.35000
3552777;-0.35000
3555555;-0.36000
3558332;-0.36500
3561110;-0.35000
3563888;-0.34500
3566666;-0.36500
3569443;-0.36500
3572221;-0.37000
3574999;-0.38500
3577777;-0.37000
3580555;-0.37000
3583332;-0.37000
3586110;-0.38000
3588888;-0.39500
3591666;-0.40000
3594443;-0.38500
3597221;-0.35500
3599999;-0.36500
3602777;-0.36500
3605555;-0.38500
3608332;-0.37500
3611110;-0.36500
3613888;-0.36000
3616666;-0.36500
3619443;-0.37500
3622221;-0.38500
3624999;-0.38000
3627777;-0.37500
3630555;-0.36000
3633332;-0.36500
3636110;-0.36500
3638888;-0.37500
3641666;-0.38000
3644443;-0.37500
3647221;-0.35500
3649999;-0.36500
3652777;-0.36500
3655555;-0.38000
3658332;-0.38000
3661110;-0.37000
3663888;-0.36500
3666666;-0.37000
3669443;-0.37500
3672221;-0.37500
3674999;-0.37500
3677777;-0.36000
3680555;-0.35000
3683332;-0.36500
3686110;-0.36000
3688888;-0.37000
3691666;-0.36000
3694443;-0.35500
3697221;-0.33000
3699999;-0.33500
3702777;-0.33500
3705555;-0.33500
3708332;-0.33500
3711110;-0.32000
3713888;-0.30000
3716666;-0.29000
3719443;-0.28500
3722221;-0.30000
3724999;-0.29500
3727777;-0.28500
3730555;-0.27000
3733332;-0.27500
3736110;-0.27500
3738888;-0.27000
3741666;-0.27000
3744443;-0.26000
3747221;-0.24500
3749999;-0.26000
3752777;-0.26000
3755555;-0.27000
3758332;-0.28000
3761110;-0.27500
3763888;-0.27000
3766666;-0.26500
3769443;-0.27000
3772221;-0.27500
3774999;-0.28000
3777777;-0.26500
3780554;-0.25000
3783332;-0.22000
3786110;-0.22500
3788888;-0.25500
3791666;-0.28000
3794443;-0.29500
3797221;-0.31000
3799999;-0.33000
3802777;-0.34500
3805554;-0.36000
3808332;-0.37000
3811110;-0.37500
3813888;-0.36500
3816666;-0.38000
3819443;-0.38500
3822221;-0.38500
3824999;-0.38500
3827777;-0.39000
3830554;-0.37000
3833332;-0.38000
3836110;-0.39000
3838888;-0.40500
3841666;-0.40500
3844443;-0.40000
3847221;-0.37500
3849999;-0.38500
3852777;-0.39500
3855554;-0.41000
3858332;-0.40500
3861110;-0.38000
3863888;-0.37000
3866666;-0.38500
3869443;-0.40000
3872221;-0.41000
3874999;-0.41500
3877777;-0.40500
3880554;-0.42500
3883332;-0.47500
3886110;-0.50500
3888888;-0.53500
3891666;-0.56500
3894443;-0.60000
3897221;-0.60000
3899999;-0.53000
3902777;-0.39500
3905554;-0.23000
3908332;-0.02500
3911110;0.21000
3913888;0.49500
3916666;0.76000
3919443;0.91500
3922221;0.97000
3924999;0.87500
3927777;0.56500
3930554;0.13000
3933332;-0.28000
3936110;-0.50000
3938888;-0.53000
3941666;-0.48500
3944443;-0.42500
3947221;-0.40000
3949999;-0.41500
3952777;-0.42500
3955554;-0.43500
3958332;-0.43500
3961110;-0.42500
3963888;-0.41500
3966666;-0.41500
3969443;-0.43500
3972221;-0.45500
3974999;-0.45500
3977777;-0.44500
3980554;-0.43500
3983332;-0.44000
3986110;-0.45500
3988888;-0.45500
3991666;-0.47000
3994443;-0.47000
3997221;-0.44000
3999999;-0.45000
4002777;-0.45500
4005554;-0.47000
4008332;-0.47000
4011110;-0.46000
4013888;-0.44500
4016666;-0.43500
4019443;-0.44500
4022221;-0.45500
4024999;-0.45500
4027777;-0.44500
4030554;-0.44000
4033332;-0.44500
4036110;-0.45000
4038888;-0.45000
4041666;-0.45000
4044443;-0.44500
4047221;-0.44500
4049999;-0.44000
4052777;-0.45000
4055554;-0.46500
4058332;-0.46500
4061110;-0.45000
4063888;-0.44500
4066666;-0.44500
4069443;-0.46500
4072221;-0.47000
4074999;-0.47000
4077777;-0.44500
4080554;-0.44000
4083332;-0.44500
4086110;-0.44000
4088888;-0.46000
4091666;-0.45000
4094443;-0.45500
4097221;-0.44000
4099999;-0.43500
4102777;-0.42500
4105554;-0.44000
4108332;-0.45000
4111110;-0.45000
4113888;-0.43500
4116666;-0.44000
4119443;-0.44500
4122221;-0.45500
4124999;-0.45000
4127777;-0.45000
4130554;-0.43500
4133332;-0.45500
4136110;-0.46500
4138888;-0.46500
4141666;-0.47000
4144443;-0.46500
4147221;-0.45000
4149999;-0.46000
4152777;-0.47000
4155554;-0.47500
4158332;-0.47500
4161110;-0.45500
4163888;-0.44500
4166666;-0.45000
4169443;-0.44500
4172221;-0.46500
4174999;-0.47000
4177777;-0.45000
4180554;-0.44500
4183332;-0.44000
4186110;-0.45000
4188888;-0.45000
4191665;-0.44500
4194443;-0.44000
4197221;-0.42000
4199999;-0.42500
4202777;-0.41500
4205554;-0.41000
4208332;-0.40500
4211110;-0.39000
4213888;-0.37000
4216665;-0.37000
4219443;-0.37000
4222221;-0.36500
4224999;-0.34500
4227777;-0.34500
4230554;-0.33000
4233332;-0.31500
4236110;-0.32000
4238888;-0.32500
4241665;-0.34000
4244443;-0.32500
4247221;-0.30500
4249999;-0.32500
4252777;-0.32500
4255554;-0.33000
4258332;-0.32000
4261110;-0.32000
4263888;-0.30000
4266665;-0.31500
4269443;-0.31500
4272221;-0.34000
4274999;-0.34000
4277777;-0.33500
4280554;-0.32000
4283332;-0.33500
4286110;-0.34500
4288888;-0.35000
4291665;-0.35000
4294443;-0.34500
4297221;-0.33000
4299999;-0.33000
4302777;-0.34000
4305554;-0.33500
4308332;-0.34500
4311110;-0.34000
4313888;-0.33500
4316665;-0.34000
4319443;-0.35000
4322221;-0.35500
4324999;-0.36000
4327777;-0.35000
4330554;-0.34000
4333332;-0.35000
4336110;-0.35000
4338888;-0.36500
4341665;-0.36000
4344443;-0.37000
4347221;-0.36500
4349999;-0.37000
4352777;-0.37000
4355554;-0.37500
4358332;-0.38000
4361110;-0.36500
4363888;-0.36500
4366665;-0.37000
4369443;-0.36500
4372221;-0.38000
4374999;-0.37500
4377777;-0.38000
4380554;-0.37000
4383332;-0.37000
4386110;-0.37000
4388888;-0.39000
4391665;-0.39000
4394443;-0.38000
4397221;-0.36500
4399999;-0.38000
4402777;-0.38500
4405554;-0.39000
4408332;-0.39500
4411110;-0.38000
4413888;-0.38000
4416665;-0.39500
4419443;-0.38500
4422221;-0.39500
4424999;-0.39500
4427777;-0.38500
4430554;-0.38000
4433332;-0.38000
4436110;-0.37500
4438888;-0.39000
4441665;-0.38500
4444443;-0.38000
4447221;-0.36500
4449999;-0.37000
4452777;-0.37000
4455554;-0.38000
4458332;-0.38500
4461110;-0.36500
4463888;-0.36000
4466665;-0.36500
4469443;-0.37000
4472221;-0.37500
4474999;-0.36500
4477777;-0.37000
4480554;-0.35000
4483332;-0.35500
4486110;-0.35500
4488888;-0.35000
4491665;-0.34000
4494443;-0.31500
4497221;-0.29000
4499999;-0.30500
4502777;-0.30500
4505554;-0.31000
4508332;-0.31500
4511110;-0.28500
4513888;-0.26000
4516665;-0.26500
4519443;-0.26500
4522221;-0.28000
4524999;-0.26000
4527777;-0.24500
4530554;-0.23000
4533332;-0.24500
4536110;-0.25500
4538888;-0.26500
4541665;-0.27000
4544443;-0.27500
4547221;-0.26000
4549999;-0.27500
4552777;-0.27500
4555554;-0.28000
4558332;-0.28500
4561110;-0.29500
4563888;-0.25000
4566665;-0.25000
4569443;-0.24000
4572221;-0.27000
4574999;-0.31000
4577776;-0.32500
4580554;-0.33000
4583332;-0.35000
4586110;-0.37000
4588888;-0.39000
4591665;-0.39500
4594443;-0.39000
4597221;-0.38500
4599999;-0.38500
4602776;-0.38500
4605554;-0.39000
4608332;-0.39000
4611110;-0.38000
4613888;-0.38000
4616665;-0.38000
4619443;-0.39500
4622221;-0.40000
4624999;-0.40500
4627776;-0.40500
4630554;-0.38500
4633332;-0.38500
4636110;-0.39500
4638888;-0.40500
4641665;-0.41000
4644443;-0.40000
4647221;-0.39500
4649999;-0.41500
4652776;-0.43500
4655554;-0.48000
4658332;-0.52000
4661110;-0.54000
4663888;-0.54500
4666665;-0.59000
4669443;-0.61000
4672221;-0.59000
4674999;-0.47000
4677776;-0.30000
4680554;-0.13000
4683332;0.06000
4686110;0.29500
4688888;0.55000
4691665;0.79000
4694443;0.96500
4697221;1.05500
4699999;1.04000
4702776;0.89500
4705554;0.62500
4708332;0.28000
4711110;-0.03000
4713888;-0.29000
4716665;-0.47500
4719443;-0.58000
4722221;-0.59000
4724999;-0.55500
4727776;-0.49500
4730554;-0.44500
4733332;-0.43000
4736110;-0.44000
4738888;-0.44500
4741665;-0.44500
4744443;-0.44000
4747221;-0.44000
4749999;-0.44000
4752776;-0.44500
4755554;-0.45500
4758332;-0.46000
4761110;-0.46000
4763888;-0.44500
4766665;-0.45000
4769443;-0.45500
4772221;-0.45500
4774999;-0.46500
4777776;-0.46000
4780554;-0.45000
4783332;-0.43500
4786110;-0.45500
4788888;-0.46000
4791665;-0.46500
4794443;-0.44500
4797221;-0.44000
4799999;-0.44500
4802776;-0.44500
4805554;-0.44500
4808332;-0.44500
4811110;-0.44000
4813888;-0.43500
4816665;-0.44500
4819443;-0.45000
4822221;-0.45500
4824999;-0.46000
4827776;-0.44500
4830554;-0.43500
4833332;-0.44000
4836110;-0.44500
4838888;-0.45500
4841665;-0.45500
4844443;-0.44500
4847221;-0.44000
4849999;-0.44500
4852776;-0.45500
4855554;-0.46000
4858332;-0.45500
4861110;-0.46000
4863888;-0.45500
4866665;-0.45000
4869443;-0.46500
4872221;-0.46000
4874999;-0.44500
4877776;-0.45000
4880554;-0.44000
4883332;-0.44500
4886110;-0.44500
4888888;-0.45500
4891665;-0.46000
4894443;-0.44500
4897221;-0.43500
4899999;-0.44500
4902776;-0.44000
4905554;-0.43000
4908332;-0.44500
4911110;-0.44000
4913888;-0.42500
4916665;-0.42500
4919443;-0.44000
4922221;-0.45500
4924999;-0.46000
4927776;-0.45000
4930554;-0.44000
4933332;-0.46500
4936110;-0.47000
4938888;-0.47000
4941665;-0.48000
4944443;-0.47500
4947221;-0.46000
4949999;-0.47000
4952776;-0.46500
4955554;-0.47000
4958332;-0.47500
4961110;-0.46500
4963887;-0.45000
4966665;-0.45000
4969443;-0.47500
4972221;-0.46500
4974999;-0.45500
4977776;-0.43000
4980554;-0.42000
4983332;-0.42000
4986110;-0.41500
4988887;-0.41500
4991665;-0.40500
4994443;-0.38500
4997221;-0.38500
4999999;-0.39000
5002776;-0.38500
5005554;-0.39000
5008332;-0.38500
5011110;-0.36500
5013887;-0.34500
5016665;-0.36000
5019443;-0.35000
5022221;-0.35000
5024999;-0.35000
5027776;-0.33500
5030554;-0.33000
5033332;-0.34500
5036110;-0.34500
5038887;-0.35500
5041665;-0.35500
5044443;-0.34500
5047221;-0.33500
5049999;-0.33500
5052776;-0.35500
5055554;-0.36500
5058332;-0.38000
5061110;-0.39000
5063887;-0.37000
5066665;-0.37000
5069443;-0.37000
5072221;-0.37000
5074999;-0.38500
5077776;-0.38000
5080554;-0.37000
5083332;-0.37500
5086110;-0.38000
5088887;-0.37000
5091665;-0.37000
5094443;-0.36500
5097221;-0.35500
5099999;-0.36000
5102776;-0.37000
5105554;-0.37500
5108332;-0.38500
5111110;-0.37500
5113887;-0.37500
5116665;-0.38500
5119443;-0.39000
5122221;-0.40000
5124999;-0.40500
5127776;-0.40000
5130554;-0.38500
5133332;-0.40000
5136110;-0.40500
5138887;-0.41500
5141665;-0.42500
5144443;-0.42000
5147221;-0.41500
5149999;-0.40000
5152776;-0.41000
5155554;-0.41500
5158332;-0.41500
5161110;-0.41000
5163887;-0.40500
5166665;-0.40000
5169443;-0.41500
5172221;-0.42500
5174999;-0.43500
5177776;-0.42000
5180554;-0.42000
5183332;-0.43000
5186110;-0.43500
5188887;-0.43500
5191665;-0.43500
5194443;-0.42000
5197221;-0.41000
5199999;-0.42000
5202776;-0.43000
5205554;-0.42500
5208332;-0.43000
5211110;-0.41500
5213887;-0.42500
5216665;-0.40000
5219443;-0.41000
5222221;-0.41500
5224999;-0.42000
5227776;-0.40500
5230554;-0.40000
5233332;-0.40000
5236110;-0.41500
5238887;-0.41500
5241665;-0.41500
5244443;-0.40000
5247221;-0.39500
5249999;-0.39000
5252776;-0.40000
5255554;-0.41000
5258332;-0.41000
5261110;-0.40500
5263887;-0.39500
5266665;-0.40000
5269443;-0.41000
5272221;-0.40500
5274999;-0.40500
5277776;-0.38500
5280554;-0.36500
5283332;-0.34500
5286110;-0.35000
5288887;-0.35000
5291665;-0.36000
5294443;-0.35000
5297221;-0.32500
5299999;-0.32000
5302776;-0.32000
5305554;-0.33000
5308332;-0.31000
5311110;-0.29000
5313887;-0.28500
5316665;-0.30000
5319443;-0.31000
5322221;-0.32500
5324999;-0.33500
5327776;-0.32500
5330554;-0.32500
5333332;-0.33000
5336110;-0.34500
5338887;-0.36500
5341665;-0.38000
5344443;-0.36000
5347221;-0.33500
5349999;-0.32500
5352776;-0.32000
5355554;-0.32000
5358332;-0.33500
5361110;-0.34500
5363887;-0.34000
5366665;-0.36000
5369443;-0.41000
5372221;-0.41000
5374998;-0.44000
5377776;-0.43000
5380554;-0.42500
5383332;-0.43500
5386110;-0.43500
5388887;-0.45000
5391665;-0.45000
5394443;-0.44000
5397221;-0.44000
5399998;-0.44500
5402776;-0.45000
5405554;-0.46000
5408332;-0.46000
5411110;-0.46000
5413887;-0.45000
5416665;-0.46500
5419443;-0.46000
5422221;-0.47000
5424998;-0.47500
5427776;-0.46000
5430554;-0.45500
5433332;-0.44000
5436110;-0.45000
5438887;-0.47000
5441665;-0.47500
5444443;-0.48500
5447221;-0.50500
5449998;-0.53000
5452776;-0.56000
5455554;-0.61500
5458332;-0.66000
5461110;-0.66000
5463887;-0.57000
5466665;-0.46000
5469443;-0.33500
5472221;-0.22000
5474998;-0.09500
5477776;0.07000
5480554;0.27000
5483332;0.45000
5486110;0.59000
5488887;0.68500
5491665;0.78500
5494443;0.88500
5497221;0.94000
5499998;0.86500
5502776;0.68000
5505554;0.36500
5508332;-0.04000
5511110;-0.33000
5513887;-0.49500
5516665;-0.57000
5519443;-0.57500
5522221;-0.55000
5524998;-0.53500
5527776;-0.50000
5530554;-0.49500
5533332;-0.50000
5536110;-0.50500
5538887;-0.51000
5541665;-0.50500
5544443;-0.51000
5547221;-0.49000
5549998;-0.49500
5552776;-0.50500
5555554;-0.52000
5558332;-0.53500
5561110;-0.53500
5563887;-0.51500
5566665;-0.51500
5569443;-0.52000
5572221;-0.52500
5574998;-0.53000
5577776;-0.51500
5580554;-0.51500
5583332;-0.52500
5586110;-0.53500
5588887;-0.54000
5591665;-0.54500
5594443;-0.53000
5597221;-0.51500
5599998;-0.51000
5602776;-0.52000
5605554;-0.52500
5608332;-0.53000
5611110;-0.52500
5613887;-0.51500
5616665;-0.52000
5619443;-0.54000
5622221;-0.54000
5624998;-0.55500
5627776;-0.54500
5630554;-0.54000
5633332;-0.55000
5636110;-0.54500
5638887;-0.54000
5641665;-0.54000
5644443;-0.54000
5647221;-0.52500
5649998;-0.53500
5652776;-0.55000
5655554;-0.53500
5658332;-0.54500
5661110;-0.53000
5663887;-0.51500
5666665;-0.53000
5669443;-0.54000
5672221;-0.54500
5674998;-0.55000
5677776;-0.54500
5680554;-0.54000
5683332;-0.54000
5686110;-0.53500
5688887;-0.53000
5691665;-0.54000
5694443;-0.53000
5697221;-0.54000
5699998;-0.54500
5702776;-0.56500
5705554;-0.57000
5708332;-0.56500
5711110;-0.55500
5713887;-0.55000
5716665;-0.55000
5719443;-0.56000
5722221;-0.56000
5724998;-0.57000
5727776;-0.57000
5730554;-0.57000
5733332;-0.58000
5736110;-0.60000
5738887;-0.59500
5741665;-0.58500
5744443;-0.56500
5747221;-0.55500
5749998;-0.57000
5752776;-0.57500
5755554;-0.56000
5758332;-0.57500
5761109;-0.57500
5763887;-0.56000
5766665;-0.58500
5769443;-0.59500
5772221;-0.60500
5774998;-0.60000
5777776;-0.60500
5780554;-0.58500
5783332;-0.59500
5786109;-0.59500
5788887;-0.58000
5791665;-0.57000
5794443;-0.54500
5797221;-0.51500
5799998;-0.52000
5802776;-0.50500
5805554;-0.50000
5808332;-0.49000
5811109;-0.46000
5813887;-0.45000
5816665;-0.43500
5819443;-0.43500
5822221;-0.45500
5824998;-0.46500
5827776;-0.43000
5830554;-0.41000
5833332;-0.40500
5836109;-0.41000
5838887;-0.41500
5841665;-0.41000
5844443;-0.41000
5847221;-0.42000
5849998;-0.41500
5852776;-0.43000
5855554;-0.44000
5858332;-0.43500
5861109;-0.42500
5863887;-0.41500
5866665;-0.42500
5869443;-0.43000
5872221;-0.43500
5874998;-0.43000
5877776;-0.41500
5880554;-0.40500
5883332;-0.41000
5886109;-0.42000
5888887;-0.43500
5891665;-0.44500
5894443;-0.44000
5897221;-0.41000
5899998;-0.41500
5902776;-0.43000
5905554;-0.42500
5908332;-0.43500
5911109;-0.43000
5913887;-0.42500
5916665;-0.42000
5919443;-0.43000
5922221;-0.45000
5924998;-0.45000
5927776;-0.44500
5930554;-0.44000
5933332;-0.45000
5936109;-0.46500
5938887;-0.47000
5941665;-0.47500
5944443;-0.45500
5947221;-0.45000
5949998;-0.44500
5952776;-0.46000
5955554;-0.46500
5958332;-0.47500
5961109;-0.45500
5963887;-0.44500
5966665;-0.44500
5969443;-0.46000
5972221;-0.47000
5974998;-0.48000
5977776;-0.46500
5980554;-0.47000
5983332;-0.45500
5986109;-0.45500
5988887;-0.46000
5991665;-0.45500
5994443;-0.46000
5997221;-0.44500
5999998;-0.45000
6002776;-0.45500
6005554;-0.46000
6008332;-0.47000
6011109;-0.47000
6013887;-0.46000
6016665;-0.46000
6019443;-0.48000
6022221;-0.49000
6024998;-0.49500
6027776;-0.46500
6030554;-0.45500
6033332;-0.44000
6036109;-0.44500
6038887;-0.45500
6041665;-0.46500
6044443;-0.45000
6047221;-0.43500
6049998;-0.43000
6052776;-0.43500
6055554;-0.45000
6058332;-0.44500
6061109;-0.44000
6063887;-0.43000
6066665;-0.45000
6069443;-0.44500
6072221;-0.45000
6074998;-0.44500
6077776;-0.43500
6080554;-0.41000
6083332;-0.40500
6086109;-0.39500
6088887;-0.40500
6091665;-0.39500
6094443;-0.38000
6097221;-0.35500
6099998;-0.34500
6102776;-0.35000
6105554;-0.35500
6108332;-0.35000
6111109;-0.32500
6113887;-0.31500
6116665;-0.31500
6119443;-0.32500
6122221;-0.34000
6124998;-0.34500
6127776;-0.36000
6130554;-0.35000
6133332;-0.34500
6136109;-0.34500
6138887;-0.36000
6141665;-0.37500
6144443;-0.36500
6147221;-0.35500
6149998;-0.33500
6152776;-0.31000
6155554;-0.33500
6158332;-0.35000
6161109;-0.35000
6163887;-0.35500
6166665;-0.36000
6169443;-0.37500
6172220;-0.38500
6174998;-0.41000
6177776;-0.41000
6180554;-0.40500
6183332;-0.41500
6186109;-0.42000
6188887;-0.43000
6191665;-0.44000
6194443;-0.44000
6197220;-0.42500
6199998;-0.43500
6202776;-0.45000
6205554;-0.44500
6208332;-0.46000
6211109;-0.46000
6213887;-0.44000
6216665;-0.44500
6219443;-0.44500
6222220;-0.45000
6224998;-0.45500
6227776;-0.44500
6230554;-0.44000
6233332;-0.43500
6236109;-0.44500
6238887;-0.45000
6241665;-0.45000
6244443;-0.44000
6247220;-0.43500
6249998;-0.46000
6252776;-0.47500
6255554;-0.51000
6258332;-0.55000
6261109;-0.56000
6263887;-0.57000
6266665;-0.62500
6269443;-0.61500
6272220;-0.56500
6274998;-0.42000
6277776;-0.25500
6280554;-0.06500
6283332;0.15000
6286109;0.40000
6288887;0.65000
6291665;0.82000
6294443;0.92000
6297220;0.89500
6299998;0.68000
6302776;0.31000
6305554;-0.10500
6308332;-0.43000
6311109;-0.54500
6313887;-0.55000
6316665;-0.51500
6319443;-0.47500
6322220;-0.47500
6324998;-0.47000
6327776;-0.46500
6330554;-0.45500
6333332;-0.45000
6336109;-0.46000
6338887;-0.46500
6341665;-0.46500
6344443;-0.45500
6347220;-0.45000
6349998;-0.45500
6352776;-0.45500
6355554;-0.47000
6358332;-0.48500
6361109;-0.47500
6363887;-0.47000
6366665;-0.47000
6369443;-0.47000
6372220;-0.49000
6374998;-0.49500
6377776;-0.48500
6380554;-0.47000
6383332;-0.46500
6386109;-0.46500
6388887;-0.46500
6391665;-0.46500
6394443;-0.47500
6397220;-0.45500
6399998;-0.45500
6402776;-0.46000
6405554;-0.47500
6408332;-0.48500
6411109;-0.48000
6413887;-0.47000
6416665;-0.47000
6419443;-0.48000
6422220;-0.48500
6424998;-0.48000
6427776;-0.46500
6430554;-0.46000
6433332;-0.47000
6436109;-0.47500
6438887;-0.48000
6441665;-0.48000
6444443;-0.46500
6447220;-0.45000
6449998;-0.45500
6452776;-0.46000
6455554;-0.47000
6458332;-0.48000
6461109;-0.47000
6463887;-0.46500
6466665;-0.45500
6469443;-0.46500
6472220;-0.47500
6474998;-0.48000
6477776;-0.47000
6480554;-0.47500
6483332;-0.47000
6486109;-0.47500
6488887;-0.47500
6491665;-0.48500
6494443;-0.47000
6497220;-0.47000
6499998;-0.46500
6502776;-0.47500
6505554;-0.46500
6508332;-0.46500
6511109;-0.45500
6513887;-0.45500
6516665;-0.45500
6519443;-0.45500
6522220;-0.47000
6524998;-0.47500
6527776;-0.47000
6530554;-0.47000
6533332;-0.47500
6536109;-0.47500
6538887;-0.49000
6541665;-0.50000
6544443;-0.50000
6547220;-0.49000
6549998;-0.49000
6552776;-0.50500
6555554;-0.51000
6558331;-0.52500
6561109;-0.51500
6563887;-0.51000
6566665;-0.50500
6569443;-0.51500
6572220;-0.51500
6574998;-0.51000
6577776;-0.50000
6580554;-0.49500
6583331;-0.48500
6586109;-0.49000
6588887;-0.48500
6591665;-0.47500
6594443;-0.47000
6597220;-0.46000
6599998;-0.44500
6602776;-0.43000
6605554;-0.43000
6608331;-0.41500
6611109;-0.40000
6613887;-0.36500
6616665;-0.37000
6619443;-0.35000
6622220;-0.35000
6624998;-0.35500
6627776;-0.34000
6630554;-0.33000
6633331;-0.32500
6636109;-0.32500
6638887;-0.32000
6641665;-0.33500
6644443;-0.32000
6647220;-0.31000
6649998;-0.30500
6652776;-0.32000
6655554;-0.33000
6658331;-0.33000
6661109;-0.32500
6663887;-0.31000
6666665;-0.31500
6669443;-0.31000
6672220;-0.31500
6674998;-0.31500
6677776;-0.30500
6680554;-0.29500
6683331;-0.29500
6686109;-0.30500
6688887;-0.31500
6691665;-0.31500
6694443;-0.30500
6697220;-0.30500
6699998;-0.30000
6702776;-0.31000
6705554;-0.31500
6708331;-0.33000
6711109;-0.31500
6713887;-0.29500
6716665;-0.30500
6719443;-0.30500
6722220;-0.33500
6724998;-0.33500
6727776;-0.32000
6730554;-0.32500
6733331;-0.33000
6736109;-0.34000
6738887;-0.33000
6741665;-0.34000
6744443;-0.33000
6747220;-0.34000
6749998;-0.33000
6752776;-0.33000
6755554;-0.34000
6758331;-0.34000
6761109;-0.34000
6763887;-0.33500
6766665;-0.33500
6769443;-0.33500
6772220;-0.35000
6774998;-0.35000
6777776;-0.34000
6780554;-0.33000
6783331;-0.33500
6786109;-0.34500
6788887;-0.35000
6791665;-0.35000
6794443;-0.34500
6797220;-0.33500
6799998;-0.32500
6802776;-0.34500
6805554;-0.35000
6808331;-0.35500
6811109;-0.35500
6813887;-0.35000
6816665;-0.34000
6819443;-0.35500
6822220;-0.36000
6824998;-0.35000
6827776;-0.34500
6830554;-0.34000
6833331;-0.34000
6836109;-0.34000
6838887;-0.35000
6841665;-0.35000
6844443;-0.33000
6847220;-0.32500
6849998;-0.32500
6852776;-0.33000
6855554;-0.33500
6858331;-0.33500
6861109;-0.33000
6863887;-0.33500
6866665;-0.33500
6869443;-0.33500
6872220;-0.35500
6874998;-0.35000
6877776;-0.34000
6880554;-0.33500
6883331;-0.34000
6886109;-0.34000
6888887;-0.34000
6891665;-0.35500
6894443;-0.32000
6897220;-0.31500
6899998;-0.31500
6902776;-0.29500
6905554;-0.29500
6908331;-0.28500
6911109;-0.26500
6913887;-0.26000
6916665;-0.26000
6919443;-0.26000
6922220;-0.26500
6924998;-0.26000
6927776;-0.24500
6930554;-0.23000
6933331;-0.22500
6936109;-0.23000
6938887;-0.23500
6941665;-0.23000
6944442;-0.23000
6947220;-0.22000
6949998;-0.23500
6952776;-0.25500
6955554;-0.26000
6958331;-0.26500
6961109;-0.25500
6963887;-0.25500
6966665;-0.26500
6969442;-0.24500
6972220;-0.23500
6974998;-0.22000
6977776;-0.21500
6980554;-0.22500
6983331;-0.25500
6986109;-0.27000
6988887;-0.31000
6991665;-0.32000
6994442;-0.33500
6997220;-0.33000
6999998;-0.32500
7002776;-0.33500
7005554;-0.36000
7008331;-0.35500
7011109;-0.34500
7013887;-0.33000
7016665;-0.33500
7019442;-0.34500
7022220;-0.35000
7024998;-0.36500
7027776;-0.36000
7030554;-0.35500
7033331;-0.36000
7036109;-0.37000
7038887;-0.38000
7041665;-0.38000
7044442;-0.37000
7047220;-0.36000
7049998;-0.37000
7052776;-0.37000
7055554;-0.37000
7058331;-0.38500
7061109;-0.36500
7063887;-0.35500
7066665;-0.35500
7069442;-0.37500
7072220;-0.41000
7074998;-0.45500
7077776;-0.49000
7080554;-0.49500
7083331;-0.52500
7086109;-0.56500
7088887;-0.56000
7091665;-0.48000
7094442;-0.31000
7097220;-0.14000
7099998;0.03500
7102776;0.26000
7105554;0.52000
7108331;0.77500
7111109;0.98500
7113887;1.08000
7116665;1.00000
7119442;0.71000
7122220;0.25000
7124998;-0.19500
7127776;-0.44500
7130554;-0.50000
7133331;-0.43500
7136109;-0.41000
7138887;-0.38500
7141665;-0.38500
7144442;-0.37000
7147220;-0.37500
7149998;-0.37000
7152776;-0.39000
7155554;-0.39500
7158331;-0.40500
7161109;-0.40500
7163887;-0.39500
7166665;-0.39000
7169442;-0.40000
7172220;-0.41500
7174998;-0.42500
7177776;-0.40500
7180554;-0.39500
7183331;-0.40000
7186109;-0.40500
7188887;-0.42500
7191665;-0.42500
7194442;-0.42500
7197220;-0.40500
7199998;-0.41000
7202776;-0.41500
7205554;-0.41500
7208331;-0.43000
7211109;-0.42500
7213887;-0.41500
7216665;-0.40500
7219442;-0.42000
7222220;-0.41000
7224998;-0.41500
7227776;-0.40500
7230554;-0.40000
7233331;-0.41500
7236109;-0.39500
7238887;-0.41500
7241665;-0.42000
7244442;-0.41000
7247220;-0.40500
7249998;-0.41000
7252776;-0.41000
7255554;-0.40500
7258331;-0.41000
7261109;-0.40000
7263887;-0.39500
7266665;-0.39500
7269442;-0.39000
7272220;-0.41000
7274998;-0.42000
7277776;-0.41000
7280554;-0.40000
7283331;-0.41000
7286109;-0.42000
7288887;-0.42000
7291665;-0.42000
7294442;-0.42000
7297220;-0.42000
7299998;-0.41500
7302776;-0.41000
7305554;-0.42500
7308331;-0.43000
7311109;-0.42500
7313887;-0.40000
7316665;-0.40000
7319442;-0.40500
7322220;-0.42000
7324998;-0.42000
7327776;-0.41000
7330554;-0.40500
7333331;-0.40500
7336109;-0.41500
7338887;-0.41500
7341665;-0.42000
7344442;-0.42000
7347220;-0.41000
7349998;-0.40500
7352776;-0.41000
7355553;-0.42000
7358331;-0.42000
7361109;-0.41500
7363887;-0.42000
7366665;-0.42000
7369442;-0.43500
7372220;-0.43500
7374998;-0.43500
7377776;-0.43500
7380553;-0.42000
7383331;-0.41500
7386109;-0.43000
7388887;-0.42000
7391665;-0.42500
7394442;-0.41000
7397220;-0.40000
7399998;-0.40000
7402776;-0.39500
7405553;-0.40000
7408331;-0.41000
7411109;-0.40000
7413887;-0.37500
7416665;-0.37500
7419442;-0.35500
7422220;-0.36500
7424998;-0.36000
7427776;-0.34000
7430553;-0.32000
7433331;-0.32000
7436109;-0.31500
7438887;-0.32000
7441665;-0.30500
7444442;-0.31500
7447220;-0.29000
7449998;-0.28000
7452776;-0.28500
7455553;-0.29500
7458331;-0.29000
7461109;-0.27500
7463887;-0.26500
7466665;-0.26000
7469442;-0.27000
7472220;-0.28000
7474998;-0.27500
7477776;-0.27000
7480553;-0.25500
7483331;-0.26000
7486109;-0.26500
7488887;-0.27500
7491665;-0.28000
7494442;-0.25500
7497220;-0.25500
7499998;-0.26000
7502776;-0.25500
7505553;-0.27500
7508331;-0.27500
7511109;-0.26500
7513887;-0.26000
7516665;-0.26500
7519442;-0.28000
7522220;-0.27500
7524998;-0.28500
7527776;-0.27500
7530553;-0.26500
7533331;-0.27000
7536109;-0.29000
7538887;-0.29000
7541665;-0.29500
7544442;-0.29000
7547220;-0.28000
7549998;-0.28000
7552776;-0.29000
7555553;-0.29500
7558331;-0.29500
7561109;-0.29500
7563887;-0.28500
7566665;-0.29000
7569442;-0.29000
7572220;-0.30000
7574998;-0.30000
7577776;-0.30000
7580553;-0.29500
7583331;-0.29500
7586109;-0.30500
7588887;-0.31500
7591665;-0.31000
7594442;-0.31500
7597220;-0.30500
7599998;-0.31500
7602776;-0.32000
7605553;-0.33000
7608331;-0.34500
7611109;-0.33000
7613887;-0.32500
7616665;-0.32500
7619442;-0.33500
7622220;-0.33500
7624998;-0.33000
7627776;-0.32500
7630553;-0.32000
7633331;-0.31000
7636109;-0.31000
7638887;-0.31000
7641665;-0.31500
7644442;-0.31500
7647220;-0.30500
7649998;-0.30500
7652776;-0.31000
7655553;-0.31000
7658331;-0.32000
7661109;-0.31500
7663887;-0.31000
7666665;-0.30000
7669442;-0.31000
7672220;-0.31500
7674998;-0.32500
7677776;-0.31000
7680553;-0.30000
7683331;-0.30500
7686109;-0.31000
7688887;-0.31500
7691665;-0.32000
7694442;-0.31000
7697220;-0.31000
7699998;-0.31500
7702776;-0.31000
7705553;-0.32000
7708331;-0.32500
7711109;-0.30500
7713887;-0.30000
7716665;-0.29000
7719442;-0.30000
7722220;-0.29500
7724998;-0.30000
7727776;-0.29000
7730553;-0.28000
7733331;-0.27500
7736109;-0.26500
7738887;-0.28000
7741664;-0.25500
7744442;-0.24500
7747220;-0.21500
7749998;-0.20500
7752776;-0.21500
7755553;-0.23000
7758331;-0.23500
7761109;-0.22000
7763887;-0.19500
7766664;-0.19500
7769442;-0.19000
7772220;-0.19000
7774998;-0.20500
7777776;-0.19500
7780553;-0.19000
7783331;-0.19000
7786109;-0.20500
7788887;-0.21500
7791664;-0.22000
7794442;-0.21000
7797220;-0.20000
7799998;-0.20500
7802776;-0.22000
7805553;-0.23000
7808331;-0.22000
7811109;-0.17500
7813887;-0.17000
7816664;-0.19500
7819442;-0.22500
7822220;-0.25000
7824998;-0.26500
7827776;-0.27500
7830553;-0.29000
7833331;-0.29500
7836109;-0.31000
7838887;-0.33500
7841664;-0.33000
7844442;-0.34000
7847220;-0.32000
7849998;-0.32500
7852776;-0.31500
7855553;-0.32500
7858331;-0.32500
7861109;-0.32000
7863887;-0.31500
7866664;-0.31500
7869442;-0.32000
7872220;-0.32000
7874998;-0.33000
7877776;-0.32500
7880553;-0.31000
7883331;-0.31000
7886109;-0.32500
7888887;-0.32500
7891664;-0.32500
7894442;-0.32500
7897220;-0.31000
7899998;-0.32500
7902776;-0.32500
7905553;-0.33000
7908331;-0.34500
7911109;-0.34500
7913887;-0.34000
7916664;-0.36500
7919442;-0.41500
7922220;-0.45500
7924998;-0.48000
7927776;-0.50500
7930553;-0.52500
7933331;-0.51500
7936109;-0.45500
7938887;-0.33500
7941664;-0.18000
7944442;-0.00500
7947220;0.19000
7949998;0.44000
7952776;0.71500
7955553;0.92000
7958331;1.02000
7961109;1.01000
7963887;0.82000
7966664;0.46500
7969442;0.04000
7972220;-0.29000
7974998;-0.44000
7977776;-0.44500
7980553;-0.40500
7983331;-0.36000
7986109;-0.35000
7988887;-0.35500
7991664;-0.37000
7994442;-0.36500
7997220;-0.35500
7999998;-0.36000
8002776;-0.36500
8005553;-0.37000
8008331;-0.38500
8011109;-0.37500
8013887;-0.37000
8016664;-0.37500
8019442;-0.38000
8022220;-0.38000
8024998;-0.38000
8027776;-0.38000
8030553;-0.36000
8033331;-0.37000
8036109;-0.37500
8038887;-0.38000
8041664;-0.39000
8044442;-0.37500
8047220;-0.36500
8049998;-0.37000
8052776;-0.36500
8055553;-0.37500
8058331;-0.38000
8061109;-0.37500
8063887;-0.36000
8066664;-0.36500
8069442;-0.37000
8072220;-0.38000
8074998;-0.38500
8077776;-0.37500
8080553;-0.36500
8083331;-0.37000
8086109;-0.38000
8088887;-0.38500
8091664;-0.39500
8094442;-0.38500
8097220;-0.37000
8099998;-0.36000
8102776;-0.36500
8105553;-0.37000
8108331;-0.38000
8111109;-0.37000
8113887;-0.36500
8116664;-0.36000
8119442;-0.36500
8122220;-0.37500
8124998;-0.38500
8127776;-0.37500
8130553;-0.37000
8133331;-0.38000
8136109;-0.37000
8138887;-0.38000
8141664;-0.39000
8144442;-0.37500
8147220;-0.36500
8149998;-0.36000
8152775;-0.37500
8155553;-0.37500
8158331;-0.38500
8161109;-0.37500
8163887;-0.38000
8166664;-0.39000
8169442;-0.39500
8172220;-0.40500
8174998;-0.40500
8177775;-0.40000
8180553;-0.38500
8183331;-0.38500
8186109;-0.38500
8188887;-0.39000
8191664;-0.38500
8194442;-0.38000
8197220;-0.38000
8199998;-0.37500
8202775;-0.38500
8205553;-0.38500
8208331;-0.39500
8211109;-0.38500
8213887;-0.38500
8216664;-0.38000
8219442;-0.38000
8222220;-0.39000
8224998;-0.39500
8227775;-0.39500
8230553;-0.38500
8233331;-0.38000
8236109;-0.39000
8238887;-0.39500
8241664;-0.39000
8244442;-0.39500
8247220;-0.39000
8249998;-0.38500
8252775;-0.38000
8255553;-0.38000
8258331;-0.38000
8261109;-0.35500
8263887;-0.35500
8266664;-0.33000
8269442;-0.33500
8272220;-0.33000
8274998;-0.33000
8277775;-0.30500
8280553;-0.28000
8283331;-0.28000
8286109;-0.28000
8288887;-0.29000
8291664;-0.28500
8294442;-0.28500
8297220;-0.26500
8299998;-0.25500
8302775;-0.26500
8305553;-0.27500
8308331;-0.28000
8311109;-0.26500
8313887;-0.26000
8316664;-0.25500
8319442;-0.24500
8322220;-0.25500
8324998;-0.26000
8327775;-0.25000
8330553;-0.25000
8333331;-0.24000
8336109;-0.25000
8338887;-0.26000
8341664;-0.26500
8344442;-0.26000
8347220;-0.25500
8349998;-0.24500
8352775;-0.25500
8355553;-0.27000
8358331;-0.26500
8361109;-0.26000
8363887;-0.26000
8366664;-0.25500
8369442;-0.26500
8372220;-0.27500
8374998;-0.28000
8377775;-0.28000
8380553;-0.27000
8383331;-0.27500
8386109;-0.28000
8388887;-0.28500
8391664;-0.29500
8394442;-0.28500
8397220;-0.28000
8399998;-0.27000
8402775;-0.28000
8405553;-0.28500
8408331;-0.29000
8411109;-0.28000
8413887;-0.28000
8416664;-0.29000
8419442;-0.29000
8422220;-0.29500
8424998;-0.30500
8427775;-0.30000
8430553;-0.29000
8433331;-0.28500
8436109;-0.30500
8438887;-0.31000
8441664;-0.32000
8444442;-0.31500
8447220;-0.31000
8449998;-0.30500
8452775;-0.31500
8455553;-0.32500
8458331;-0.31500
8461109;-0.31500
8463887;-0.31500
8466664;-0.29500
8469442;-0.30500
8472220;-0.32000
8474998;-0.33000
8477775;-0.32500
8480553;-0.31000
8483331;-0.31000
8486109;-0.32000
8488887;-0.32000
8491664;-0.33000
8494442;-0.32000
8497220;-0.31500
8499998;-0.31500
8502775;-0.32500
8505553;-0.33500
8508331;-0.32500
8511109;-0.33000
8513887;-0.32000
8516664;-0.31000
8519442;-0.31000
8522220;-0.32000
8524998;-0.32500
8527775;-0.32000
8530553;-0.31500
8533331;-0.31000
8536109;-0.31000
8538886;-0.32000
8541664;-0.32000
8544442;-0.31000
8547220;-0.32000
8549998;-0.32500
8552775;-0.33000
8555553;-0.33000
8558331;-0.34000
8561109;-0.32500
8563886;-0.31500
8566664;-0.30500
8569442;-0.32000
8572220;-0.31500
8574998;-0.32000
8577775;-0.31500
8580553;-0.30500
8583331;-0.30000
8586109;-0.29500
8588886;-0.29500
8591664;-0.28500
8594442;-0.27500
8597220;-0.25500
8599998;-0.23500
8602775;-0.24000
8605553;-0.25000
8608331;-0.25000
8611109;-0.24500
8613886;-0.21500
8616664;-0.20000
8619442;-0.20500
8622220;-0.21000
8624998;-0.22000
8627775;-0.22000
8630553;-0.21500
8633331;-0.21500
8636109;-0.23000
8638886;-0.24500
8641664;-0.25000
8644442;-0.24000
8647220;-0.23000
8649998;-0.23000
8652775;-0.25000
8655553;-0.25500
8658331;-0.24000
8661109;-0.20500
8663886;-0.21000
8666664;-0.23000
8669442;-0.25500
8672220;-0.28000
8674998;-0.29000
8677775;-0.30000
8680553;-0.31500
8683331;-0.33500
8686109;-0.34500
8688886;-0.37000
8691664;-0.37000
8694442;-0.34500
8697220;-0.33500
8699998;-0.34500
8702775;-0.35500
8705553;-0.36000
8708331;-0.37500
8711109;-0.38000
8713886;-0.37500
8716664;-0.38000
8719442;-0.37500
8722220;-0.39000
8724998;-0.39000
8727775;-0.38000
8730553;-0.38500
8733331;-0.38000
8736109;-0.37500
8738886;-0.37500
8741664;-0.39000
8744442;-0.38500
8747220;-0.39000
8749998;-0.41000
8752775;-0.45000
8755553;-0.49000
8758331;-0.52000
8761109;-0.54000
8763886;-0.58000
8766664;-0.65000
8769442;-0.65500
8772220;-0.62500
8774998;-0.56500
8777775;-0.47000
8780553;-0.38000
8783331;-0.31000
8786109;-0.23500
8788886;-0.15500
8791664;-0.05000
8794442;0.11000
8797220;0.31500
8799998;0.52500
8802775;0.70000
8805553;0.80500
8808331;0.82500
8811109;0.69000
8813886;0.40000
8816664;0.02000
8819442;-0.28500
8822220;-0.47500
8824998;-0.51500
8827775;-0.49000
8830553;-0.44500
8833331;-0.43000
8836109;-0.44000
8838886;-0.43000
8841664;-0.42500
8844442;-0.42000
8847220;-0.40000
8849998;-0.40000
8852775;-0.41000
8855553;-0.41000
8858331;-0.41500
8861109;-0.42000
8863886;-0.40500
8866664;-0.40500
8869442;-0.42500
8872220;-0.41000
8874998;-0.42000
8877775;-0.43000
8880553;-0.41500
8883331;-0.43000
8886109;-0.43000
8888886;-0.44500
8891664;-0.44500
8894442;-0.44500
8897220;-0.43500
8899998;-0.42500
8902775;-0.42500
8905553;-0.43000
8908331;-0.43500
8911109;-0.43000
8913886;-0.42500
8916664;-0.40500
8919442;-0.42000
8922220;-0.43000
8924998;-0.42500
8927775;-0.42000
8930553;-0.42500
8933331;-0.42000
8936109;-0.42000
8938886;-0.42000
8941664;-0.44000
8944442;-0.44000
8947220;-0.43000
8949997;-0.43500
8952775;-0.42500
8955553;-0.42500
8958331;-0.44500
8961109;-0.42500
8963886;-0.43000
8966664;-0.42000
8969442;-0.41500
8972220;-0.44000
8974997;-0.45500
8977775;-0.45000
8980553;-0.44000
8983331;-0.44000
8986109;-0.43500
8988886;-0.43000
8991664;-0.43000
8994442;-0.42500
8997220;-0.43000
8999997;-0.43500
9002775;-0.43500
9005553;-0.44000
9008331;-0.44000
9011109;-0.42500
9013886;-0.42500
9016664;-0.42000
9019442;-0.43500
9022220;-0.43500
9024997;-0.44500
9027775;-0.43000
9030553;-0.42500
9033331;-0.44000
9036109;-0.44000
9038886;-0.45500
9041664;-0.45500
9044442;-0.46000
9047220;-0.46000
9049997;-0.47500
9052775;-0.47000
9055553;-0.49000
9058331;-0.48500
9061109;-0.47500
9063886;-0.46500
9066664;-0.46500
9069442;-0.46500
9072220;-0.47000
9074997;-0.48000
9077775;-0.46500
9080553;-0.46500
9083331;-0.44500
9086109;-0.45500
9088886;-0.44500
9091664;-0.44500
9094442;-0.42500
9097220;-0.42500
9099997;-0.41500
9102775;-0.41000
9105553;-0.41000
9108331;-0.40500
9111109;-0.38000
9113886;-0.38000
9116664;-0.37000
9119442;-0.37000
9122220;-0.35500
9124997;-0.34500
9127775;-0.34000
9130553;-0.33000
9133331;-0.32000
9136109;-0.31000
9138886;-0.32500
9141664;-0.32500
9144442;-0.32000
9147220;-0.32500
9149997;-0.32500
9152775;-0.32500
9155553;-0.32000
9158331;-0.33000
9161109;-0.32000
9163886;-0.31500
9166664;-0.31500
9169442;-0.33500
9172220;-0.34000
9174997;-0.34000
9177775;-0.33000
9180553;-0.32500
9183331;-0.31500
9186109;-0.32000
9188886;-0.33000
9191664;-0.34500
9194442;-0.34000
9197220;-0.33000
9199997;-0.32500
9202775;-0.33000
9205553;-0.32500
9208331;-0.34000
9211109;-0.33500
9213886;-0.33500
9216664;-0.32500
9219442;-0.33500
9222220;-0.33500
9224997;-0.35500
9227775;-0.34000
9230553;-0.33500
9233331;-0.33500
9236109;-0.34500
9238886;-0.35500
9241664;-0.37000
9244442;-0.35500
9247220;-0.35500
9249997;-0.35500
9252775;-0.38000
9255553;-0.37500
9258331;-0.38500
9261109;-0.37000
9263886;-0.36500
9266664;-0.37500
9269442;-0.38000
9272220;-0.38500
9274997;-0.39000
9277775;-0.38000
9280553;-0.36000
9283331;-0.37500
9286109;-0.38000
9288886;-0.38500
9291664;-0.39500
9294442;-0.38000
9297220;-0.38000
9299997;-0.37500
9302775;-0.37500
9305553;-0.38500
9308331;-0.38000
9311109;-0.38500
9313886;-0.38500
9316664;-0.38500
9319442;-0.40500
9322220;-0.42000
9324997;-0.40500
9327775;-0.40500
9330553;-0.38500
9333331;-0.39000
9336108;-0.38000
9338886;-0.39000
9341664;-0.38500
9344442;-0.37000
9347220;-0.37000
9349997;-0.37500
9352775;-0.37500
9355553;-0.39000
9358331;-0.39500
9361108;-0.38000
9363886;-0.37500
9366664;-0.35500
9369442;-0.37000
9372220;-0.37000
9374997;-0.38500
9377775;-0.39000
9380553;-0.38500
9383331;-0.38500
9386108;-0.38000
9388886;-0.38000
9391664;-0.40000
9394442;-0.38500
9397220;-0.37000
9399997;-0.36000
9402775;-0.33500
9405553;-0.33000
9408331;-0.34000
9411108;-0.32000
9413886;-0.33500
9416664;-0.30500
9419442;-0.31500
9422220;-0.31000
9424997;-0.31000
9427775;-0.30500
9430553;-0.28500
9433331;-0.26500
9436108;-0.26500
9438886;-0.26000
9441664;-0.28000
9444442;-0.28500
9447220;-0.29000
9449997;-0.29000
9452775;-0.29500
9455553;-0.31500
9458331;-0.32500
9461108;-0.32000
9463886;-0.31500
9466664;-0.28500
9469442;-0.30000
9472220;-0.32000
9474997;-0.33500
9477775;-0.33000
9480553;-0.31000
9483331;-0.27500
9486108;-0.27500
9488886;-0.29500
9491664;-0.32500
9494442;-0.35000
9497220;-0.36000
9499997;-0.37000
9502775;-0.38500
9505553;-0.40500
9508331;-0.42500
9511108;-0.43500
9513886;-0.44000
9516664;-0.42000
9519442;-0.42500
9522220;-0.43000
9524997;-0.43000
9527775;-0.41500
9530553;-0.41000
9533331;-0.41000
9536108;-0.41000
9538886;-0.41500
9541664;-0.43000
9544442;-0.42500
9547220;-0.43000
9549997;-0.43500
9552775;-0.43500
9555553;-0.43500
9558331;-0.42500
9561108;-0.41500
9563886;-0.42000
9566664;-0.41500
9569442;-0.43500
9572220;-0.46500
9574997;-0.51500
9577775;-0.54000
9580553;-0.54500
9583331;-0.58000
9586108;-0.61500
9588886;-0.59000
9591664;-0.47500
9594442;-0.32000
9597220;-0.15000
9599997;0.05500
9602775;0.30000
9605553;0.54000
9608331;0.73500
9611108;0.88000
9613886;0.84500
9616664;0.61500
9619442;0.24000
9622220;-0.15000
9624997;-0.42000
9627775;-0.52500
9630553;-0.54000
9633331;-0.55000
9636108;-0.55500
9638886;-0.54500
9641664;-0.52000
9644442;-0.48500
9647220;-0.46500
9649997;-0.47000
9652775;-0.47500
9655553;-0.47000
9658331;-0.47000
9661108;-0.47000
9663886;-0.45500
9666664;-0.46000
9669442;-0.47000
9672220;-0.47000
9674997;-0.48500
9677775;-0.48000
9680553;-0.47500
9683331;-0.47500
9686108;-0.48000
9688886;-0.47500
9691664;-0.48000
9694442;-0.48500
9697220;-0.48000
9699997;-0.46000
9702775;-0.47500
9705553;-0.47500
9708331;-0.47500
9711108;-0.48000
9713886;-0.47000
9716664;-0.45000
9719442;-0.45000
9722220;-0.46000
9724997;-0.46000
9727775;-0.46000
9730553;-0.45500
9733331;-0.46000
9736108;-0.47000
9738886;-0.48500
9741664;-0.49000
9744442;-0.47500
9747219;-0.46500
9749997;-0.45500
9752775;-0.47000
9755553;-0.47000
9758331;-0.48500
9761108;-0.47500
9763886;-0.47000
9766664;-0.47500
9769442;-0.46000
9772219;-0.46000
9774997;-0.48500
9777775;-0.46000
9780553;-0.46500
9783331;-0.46500
9786108;-0.47000
9788886;-0.47500
9791664;-0.48500
9794442;-0.47500
9797219;-0.47000
9799997;-0.47000
9802775;-0.47000
9805553;-0.46500
9808331;-0.47500
9811108;-0.47500
9813886;-0.47500
9816664;-0.46500
9819442;-0.47500
9822219;-0.48000
9824997;-0.48500
9827775;-0.48000
9830553;-0.48500
9833331;-0.48000
9836108;-0.49000
9838886;-0.50000
9841664;-0.50500
9844442;-0.49000
9847219;-0.48000
9849997;-0.47000
9852775;-0.48500
9855553;-0.50000
9858331;-0.51000
9861108;-0.51000
9863886;-0.50000
9866664;-0.50500
9869442;-0.52000
9872219;-0.53000
9874997;-0.52500
9877775;-0.52500
9880553;-0.52000
9883331;-0.52000
9886108;-0.52500
