time_ms;ecg_value
0;-0.04500
2778;-0.03500
5556;-0.03000
8333;-0.04000
11111;-0.04500
13889;-0.05000
16667;-0.05500
19444;-0.03500
22222;-0.04500
25000;-0.05000
27778;-0.06000
30556;-0.06500
33333;-0.07000
36111;-0.06000
38889;-0.05500
41667;-0.05000
44444;-0.06500
47222;-0.06500
50000;-0.06500
52778;-0.05500
55556;-0.06000
58333;-0.06000
61111;-0.07000
63889;-0.07500
66667;-0.06500
69444;-0.05000
72222;-0.06000
75000;-0.06000
77778;-0.06000
80556;-0.06500
83333;-0.06000
86111;-0.04000
88889;-0.04500
91667;-0.04500
94444;-0.05500
97222;-0.05500
100000;-0.05000
102778;-0.05000
105556;-0.06500
108333;-0.07000
111111;-0.08000
113889;-0.09500
116667;-0.08000
119444;-0.08000
122222;-0.08000
125000;-0.08000
127778;-0.09500
130556;-0.09000
133333;-0.09000
136111;-0.08000
138889;-0.08500
141667;-0.07500
144444;-0.07500
147222;-0.08500
150000;-0.08000
152778;-0.07500
155556;-0.07000
158333;-0.06500
161111;-0.07500
163889;-0.07500
166667;-0.06500
169444;-0.05000
172222;-0.05000
175000;-0.03500
177778;-0.04500
180556;-0.04500
183333;-0.02500
186111;-0.02500
188889;-0.01500
191667;-0.02000
194444;-0.03000
197222;-0.03000
200000;-0.03000
202778;-0.00500
205555;0.01000
208333;0.00500
211111;-0.00500
213889;-0.00500
216667;0.00000
219444;0.00000
222222;0.00500
225000;0.00000
227778;0.00000
230555;-0.00500
233333;0.01500
236111;0.01500
238889;0.01000
241667;-0.00500
244444;-0.00500
247222;-0.02000
250000;-0.01000
252778;-0.02000
255555;-0.01500
258333;-0.02000
261111;-0.04000
263889;-0.04000
266667;-0.03500
269444;-0.04500
272222;-0.03500
275000;-0.03500
277778;-0.05000
280555;-0.05500
283333;-0.06000
286111;-0.04000
288889;-0.03500
291667;-0.04000
294444;-0.05500
297222;-0.06000
300000;-0.05500
302778;-0.05000
305555;-0.06000
308333;-0.07000
311111;-0.08000
313889;-0.08500
316667;-0.09500
319444;-0.08500
322222;-0.08500
325000;-0.08500
327778;-0.08000
330555;-0.08000
333333;-0.08000
336111;-0.07000
338889;-0.07500
341667;-0.08500
344444;-0.09500
347222;-0.10000
350000;-0.09500
352778;-0.08000
355555;-0.08000
358333;-0.08000
361111;-0.09000
363889;-0.10000
366667;-0.09500
369444;-0.08000
372222;-0.08000
375000;-0.08500
377778;-0.09500
380555;-0.09500
383333;-0.09500
386111;-0.09500
388889;-0.07000
391667;-0.07500
394444;-0.08000
397222;-0.09000
400000;-0.09000
402778;-0.08000
405555;-0.09000
408333;-0.08500
411111;-0.09000
413889;-0.10000
416667;-0.09500
419444;-0.10000
422222;-0.08000
425000;-0.09000
427778;-0.10500
430555;-0.10500
433333;-0.09000
436111;-0.08000
438889;-0.07500
441667;-0.06500
444444;-0.07000
447222;-0.06000
450000;-0.04500
452778;-0.04000
455555;-0.02500
458333;-0.03000
461111;-0.03500
463889;-0.03500
466667;-0.02000
469444;-0.00500
472222;-0.01000
475000;-0.00500
477778;-0.01000
480555;-0.03000
483333;-0.02000
486111;-0.01500
488889;-0.02000
491667;-0.03000
494444;-0.03500
497222;-0.04500
500000;-0.03500
502778;-0.01500
505555;-0.03000
508333;-0.04000
511111;-0.04500
513889;-0.05500
516667;-0.02500
519444;-0.01000
522222;0.00500
525000;-0.01500
527778;-0.05500
530555;-0.09000
533333;-0.08500
536111;-0.09000
538889;-0.09000
541667;-0.11500
544444;-0.13500
547222;-0.14000
550000;-0.13500
552778;-0.13500
555555;-0.13000
558333;-0.14000
561111;-0.15000
563889;-0.16000
566667;-0.15000
569444;-0.14500
572222;-0.13000
575000;-0.14500
577778;-0.14500
580555;-0.16000
583333;-0.15500
586111;-0.15500
588889;-0.14500
591667;-0.15500
594444;-0.17000
597222;-0.18500
600000;-0.19000
602778;-0.17000
605555;-0.18000
608333;-0.18000
611111;-0.19500
613889;-0.21000
616666;-0.24500
619444;-0.26500
622222;-0.28500
625000;-0.32500
627778;-0.37500
630555;-0.42500
633333;-0.40000
636111;-0.30500
638889;-0.17000
641666;-0.03000
644444;0.12000
647222;0.33500
650000;0.61500
652778;0.84500
655555;0.98000
658333;1.00000
661111;0.86000
663889;0.51500
666666;0.12000
669444;-0.17500
672222;-0.29000
675000;-0.31000
677778;-0.28500
680555;-0.26000
683333;-0.23000
686111;-0.21500
688889;-0.23500
691666;-0.25500
694444;-0.23500
697222;-0.24500
700000;-0.23000
702778;-0.21500
705555;-0.20500
708333;-0.22000
711111;-0.21000
713889;-0.23500
716666;-0.22000
719444;-0.22000
722222;-0.22500
725000;-0.22000
727778;-0.23000
730555;-0.22500
733333;-0.22500
736111;-0.21500
738889;-0.22500
741666;-0.23500
744444;-0.24500
747222;-0.25000
750000;-0.24500
752778;-0.23000
755555;-0.23500
758333;-0.23500
761111;-0.23500
763889;-0.25500
766666;-0.24500
769444;-0.24000
772222;-0.23000
775000;-0.22500
777778;-0.24500
780555;-0.27500
783333;-0.26000
786111;-0.24000
788889;-0.23500
791666;-0.25000
794444;-0.27000
797222;-0.27500
800000;-0.25500
802778;-0.25000
805555;-0.24000
808333;-0.24000
811111;-0.25500
813889;-0.26500
816666;-0.26500
819444;-0.25000
822222;-0.24000
825000;-0.25500
827778;-0.26500
830555;-0.26500
833333;-0.25000
836111;-0.26000
838889;-0.25500
841666;-0.25500
844444;-0.25500
847222;-0.27500
850000;-0.28000
852778;-0.26500
855555;-0.25500
858333;-0.26500
861111;-0.28000
863889;-0.28000
866666;-0.28000
869444;-0.25000
872222;-0.24500
875000;-0.25000
877778;-0.27000
880555;-0.27500
883333;-0.26500
886111;-0.27000
888889;-0.26500
891666;-0.26500
894444;-0.27000
897222;-0.28000
900000;-0.28000
902778;-0.29000
905555;-0.28500
908333;-0.29000
911111;-0.29000
913889;-0.29500
916666;-0.31000
919444;-0.30000
922222;-0.28500
925000;-0.29000
927778;-0.29000
930555;-0.30500
933333;-0.28000
936111;-0.29000
938889;-0.28000
941666;-0.28000
944444;-0.28500
947222;-0.28000
950000;-0.26000
952778;-0.24000
955555;-0.25000
958333;-0.24000
961111;-0.24500
963889;-0.23500
966666;-0.22000
969444;-0.19500
972222;-0.19500
975000;-0.18000
977778;-0.19000
980555;-0.19500
983333;-0.19500
986111;-0.19500
988889;-0.19000
991666;-0.19500
994444;-0.18500
997222;-0.20500
1000000;-0.19500
1002777;-0.18500
1005555;-0.18500
1008333;-0.18500
1011111;-0.20000
1013889;-0.20500
1016666;-0.19500
1019444;-0.19500
1022222;-0.19000
1025000;-0.18000
1027777;-0.19000
1030555;-0.19500
1033333;-0.20500
1036111;-0.20000
1038889;-0.19000
1041666;-0.21000
1044444;-0.21000
1047222;-0.22000
1050000;-0.22500
1052777;-0.22500
1055555;-0.23500
1058333;-0.23500
1061111;-0.24500
1063889;-0.25500
1066666;-0.23500
1069444;-0.24000
1072222;-0.24000
1075000;-0.24500
1077777;-0.24500
1080555;-0.24000
1083333;-0.24000
1086111;-0.22500
1088889;-0.22500
1091666;-0.23500
1094444;-0.23000
1097222;-0.25000
1100000;-0.25000
1102777;-0.24500
1105555;-0.23500
1108333;-0.23000
1111111;-0.24500
1113889;-0.24500
1116666;-0.25500
1119444;-0.24500
1122222;-0.23500
1125000;-0.24500
1127777;-0.24500
1130555;-0.26000
1133333;-0.25500
1136111;-0.25500
1138889;-0.25000
1141666;-0.25500
1144444;-0.27000
1147222;-0.27000
1150000;-0.27000
1152777;-0.26500
1155555;-0.25500
1158333;-0.25000
1161111;-0.26000
1163889;-0.27500
1166666;-0.27000
1169444;-0.28000
1172222;-0.27000
1175000;-0.28000
1177777;-0.28000
1180555;-0.28000
1183333;-0.26500
1186111;-0.26500
1188889;-0.26500
1191666;-0.25500
1194444;-0.24500
1197222;-0.25000
1200000;-0.25000
1202777;-0.25000
1205555;-0.23500
1208333;-0.24500
1211111;-0.25000
1213889;-0.26500
1216666;-0.24000
1219444;-0.22000
1222222;-0.22500
1225000;-0.21500
1227777;-0.21000
1230555;-0.22000
1233333;-0.21000
1236111;-0.19500
1238889;-0.18000
1241666;-0.17000
1244444;-0.17500
1247222;-0.17500
1250000;-0.16000
1252777;-0.16000
1255555;-0.16500
1258333;-0.17000
1261111;-0.18000
1263889;-0.19000
1266666;-0.19500
1269444;-0.19000
1272222;-0.16500
1275000;-0.18000
1277777;-0.19500
1280555;-0.21500
1283333;-0.20000
1286111;-0.18000
1288889;-0.14500
1291666;-0.14000
1294444;-0.17000
1297222;-0.21000
1300000;-0.22500
1302777;-0.23500
1305555;-0.24000
1308333;-0.26000
1311111;-0.29000
1313889;-0.30000
1316666;-0.29500
1319444;-0.28500
1322222;-0.28500
1325000;-0.29000
1327777;-0.29500
1330555;-0.30500
1333333;-0.30000
1336111;-0.29500
1338889;-0.29000
1341666;-0.30500
1344444;-0.31000
1347222;-0.31500
1350000;-0.31000
1352777;-0.31000
1355555;-0.29500
1358333;-0.30500
1361111;-0.30500
1363889;-0.32000
1366666;-0.32000
1369444;-0.31000
1372222;-0.30000
1375000;-0.32000
1377777;-0.35000
1380555;-0.39500
1383333;-0.43500
1386111;-0.45000
1388888;-0.45000
1391666;-0.47500
1394444;-0.55000
1397222;-0.61000
1400000;-0.60000
1402777;-0.50000
1405555;-0.37000
1408333;-0.25000
1411111;-0.12000
1413888;0.05500
1416666;0.34500
1419444;0.61500
1422222;0.79500
1425000;0.82500
1427777;0.64000
1430555;0.24000
1433333;-0.15500
1436111;-0.38500
1438888;-0.45500
1441666;-0.41500
1444444;-0.36000
1447222;-0.34000
1450000;-0.33000
1452777;-0.33500
1455555;-0.33000
1458333;-0.32000
1461111;-0.34000
1463888;-0.34000
1466666;-0.34000
1469444;-0.33000
1472222;-0.32500
1475000;-0.32500
1477777;-0.34000
1480555;-0.34500
1483333;-0.33500
1486111;-0.32000
1488888;-0.32000
1491666;-0.33000
1494444;-0.34500
1497222;-0.34500
1500000;-0.34500
1502777;-0.34000
1505555;-0.32500
1508333;-0.32500
1511111;-0.34000
1513888;-0.33000
1516666;-0.33000
1519444;-0.32000
1522222;-0.32000
1525000;-0.33000
1527777;-0.34000
1530555;-0.34000
1533333;-0.34000
1536111;-0.33500
1538888;-0.33000
1541666;-0.33500
1544444;-0.33500
1547222;-0.34500
1550000;-0.34000
1552777;-0.33000
1555555;-0.32000
1558333;-0.33500
1561111;-0.34500
1563888;-0.34000
1566666;-0.33000
1569444;-0.32000
1572222;-0.32000
1575000;-0.32500
1577777;-0.34000
1580555;-0.36500
1583333;-0.34000
1586111;-0.34500
1588888;-0.34000
1591666;-0.33000
1594444;-0.34000
1597222;-0.35500
1600000;-0.34500
1602777;-0.33500
1605555;-0.34000
1608333;-0.34500
1611111;-0.36000
1613888;-0.36000
1616666;-0.36000
1619444;-0.35000
1622222;-0.32000
1625000;-0.32000
1627777;-0.33500
1630555;-0.35000
1633333;-0.35000
1636111;-0.34000
1638888;-0.33500
1641666;-0.34000
1644444;-0.35500
1647222;-0.35500
1650000;-0.36500
1652777;-0.35000
1655555;-0.35000
1658333;-0.35000
1661111;-0.36500
1663888;-0.38000
1666666;-0.37500
1669444;-0.36000
1672222;-0.36000
1675000;-0.36000
1677777;-0.37500
1680555;-0.37000
1683333;-0.35500
1686111;-0.35000
1688888;-0.33500
1691666;-0.34000
1694444;-0.34500
1697222;-0.35000
1700000;-0.35000
1702777;-0.32500
1705555;-0.32000
1708333;-0.32000
1711111;-0.31000
1713888;-0.30000
1716666;-0.30000
1719444;-0.28500
1722222;-0.27000
1725000;-0.26500
1727777;-0.27500
1730555;-0.28000
1733333;-0.27000
1736111;-0.26000
1738888;-0.26500
1741666;-0.27000
1744444;-0.28000
1747222;-0.28500
1750000;-0.27500
1752777;-0.27500
1755555;-0.25500
1758333;-0.26000
1761111;-0.27000
1763888;-0.28500
1766666;-0.28000
1769444;-0.27500
1772222;-0.27500
1775000;-0.28500
1777777;-0.28500
1780555;-0.30000
1783333;-0.30000
1786111;-0.28500
1788888;-0.28500
1791666;-0.28500
1794444;-0.28500
1797222;-0.29500
1799999;-0.29000
1802777;-0.28500
1805555;-0.29500
1808333;-0.29500
1811111;-0.29500
1813888;-0.31000
1816666;-0.31000
1819444;-0.31000
1822222;-0.31500
1824999;-0.31000
1827777;-0.32500
1830555;-0.34000
1833333;-0.32500
1836111;-0.32000
1838888;-0.32000
1841666;-0.32500
1844444;-0.33500
1847222;-0.34500
1849999;-0.36000
1852777;-0.34500
1855555;-0.34000
1858333;-0.32500
1861111;-0.34500
1863888;-0.34500
1866666;-0.34000
1869444;-0.34500
1872222;-0.33500
1874999;-0.34000
1877777;-0.35000
1880555;-0.35500
1883333;-0.34500
1886111;-0.34500
1888888;-0.34500
1891666;-0.33500
1894444;-0.34500
1897222;-0.35000
1899999;-0.35000
1902777;-0.34500
1905555;-0.34000
1908333;-0.34500
1911111;-0.35500
1913888;-0.36000
1916666;-0.35000
1919444;-0.34500
1922222;-0.33500
1924999;-0.34000
1927777;-0.34000
1930555;-0.35500
1933333;-0.35500
1936111;-0.33500
1938888;-0.33000
1941666;-0.32500
1944444;-0.33000
1947222;-0.35000
1949999;-0.34500
1952777;-0.32000
1955555;-0.30000
1958333;-0.30000
1961111;-0.29500
1963888;-0.29500
1966666;-0.28500
1969444;-0.27500
1972222;-0.28500
1974999;-0.27000
1977777;-0.28000
1980555;-0.28500
1983333;-0.26000
1986111;-0.25000
1988888;-0.26000
1991666;-0.24500
1994444;-0.28000
1997222;-0.28500
1999999;-0.27500
2002777;-0.27500
2005555;-0.28500
2008333;-0.29000
2011111;-0.29000
2013888;-0.30500
2016666;-0.30500
2019444;-0.29000
2022222;-0.26000
2024999;-0.25000
2027777;-0.26000
2030555;-0.30500
2033333;-0.32000
2036111;-0.33000
2038888;-0.32000
2041666;-0.35000
2044444;-0.36500
2047222;-0.38000
2049999;-0.38000
2052777;-0.38500
2055555;-0.39500
2058333;-0.40500
2061111;-0.41500
2063888;-0.42000
2066666;-0.40000
2069444;-0.39000
2072222;-0.38000
2074999;-0.38500
2077777;-0.38500
2080555;-0.40000
2083333;-0.40000
2086111;-0.38500
2088888;-0.38500
2091666;-0.39000
2094444;-0.41000
2097222;-0.41000
2099999;-0.40000
2102777;-0.39500
2105555;-0.38500
2108333;-0.39000
2111111;-0.41000
2113888;-0.42000
2116666;-0.41500
2119444;-0.41500
2122222;-0.42500
2124999;-0.46500
2127777;-0.51000
2130555;-0.55000
2133333;-0.59000
2136111;-0.63500
2138888;-0.65500
2141666;-0.57500
2144444;-0.47000
2147222;-0.34500
2149999;-0.17000
2152777;0.04500
2155555;0.32000
2158333;0.55000
2161111;0.66000
2163888;0.63500
2166666;0.42500
2169444;0.07000
2172222;-0.27000
2174999;-0.50000
2177777;-0.57000
2180555;-0.55000
2183333;-0.49000
2186110;-0.43000
2188888;-0.42000
2191666;-0.43000
2194444;-0.43000
2197222;-0.43500
2199999;-0.45000
2202777;-0.44500
2205555;-0.43500
2208333;-0.42500
2211110;-0.42500
2213888;-0.44000
2216666;-0.43500
2219444;-0.41500
2222222;-0.42500
2224999;-0.43500
2227777;-0.44000
2230555;-0.45500
2233333;-0.47000
2236110;-0.45500
2238888;-0.44500
2241666;-0.44500
2244444;-0.46500
2247222;-0.47500
2249999;-0.45000
2252777;-0.44000
2255555;-0.43000
2258333;-0.43000
2261110;-0.43500
2263888;-0.45500
2266666;-0.44000
2269444;-0.43000
2272222;-0.43500
2274999;-0.43500
2277777;-0.43500
2280555;-0.45000
2283333;-0.46000
2286110;-0.45000
2288888;-0.43500
2291666;-0.44000
2294444;-0.44000
2297222;-0.45500
2299999;-0.45000
2302777;-0.45000
2305555;-0.44000
2308333;-0.44000
2311110;-0.43500
2313888;-0.46000
2316666;-0.44500
2319444;-0.43000
2322222;-0.43000
2324999;-0.42500
2327777;-0.43500
2330555;-0.44500
2333333;-0.43000
2336110;-0.42500
2338888;-0.42500
2341666;-0.42000
2344444;-0.44000
2347222;-0.45000
2349999;-0.44500
2352777;-0.44000
2355555;-0.44000
2358333;-0.45500
2361110;-0.46000
2363888;-0.46500
2366666;-0.46000
2369444;-0.44500
2372222;-0.42500
2374999;-0.42000
2377777;-0.43500
2380555;-0.44500
2383333;-0.42500
2386110;-0.42500
2388888;-0.42000
2391666;-0.43000
2394444;-0.43000
2397222;-0.44000
2399999;-0.44500
2402777;-0.44000
2405555;-0.43500
2408333;-0.44000
2411110;-0.45500
2413888;-0.45500
2416666;-0.43500
2419444;-0.44000
2422222;-0.43000
2424999;-0.44000
2427777;-0.45000
2430555;-0.45000
2433333;-0.45500
2436110;-0.45500
2438888;-0.44000
2441666;-0.45000
2444444;-0.45500
2447222;-0.44500
2449999;-0.44000
2452777;-0.41000
2455555;-0.41000
2458333;-0.40500
2461110;-0.39500
2463888;-0.39500
2466666;-0.38500
2469444;-0.37500
2472222;-0.36500
2474999;-0.36500
2477777;-0.37500
2480555;-0.37500
2483333;-0.36500
2486110;-0.36000
2488888;-0.35500
2491666;-0.36500
2494444;-0.38000
2497222;-0.37000
2499999;-0.36500
2502777;-0.35000
2505555;-0.36500
2508333;-0.35500
2511110;-0.37000
2513888;-0.38500
2516666;-0.38500
2519444;-0.37000
2522222;-0.34500
2524999;-0.36500
2527777;-0.36500
2530555;-0.38500
2533333;-0.38500
2536110;-0.38000
2538888;-0.37500
2541666;-0.37000
2544444;-0.38500
2547222;-0.39500
2549999;-0.39000
2552777;-0.38000
2555555;-0.37500
2558333;-0.39000
2561110;-0.39000
2563888;-0.41000
2566666;-0.39000
2569444;-0.38500
2572222;-0.38000
2574999;-0.38000
2577777;-0.38500
2580555;-0.41500
2583333;-0.40500
2586110;-0.40000
2588888;-0.39000
2591666;-0.39500
2594444;-0.39500
2597221;-0.39500
2599999;-0.41500
2602777;-0.41000
2605555;-0.40000
2608333;-0.39000
2611110;-0.40500
2613888;-0.41500
2616666;-0.41000
2619444;-0.41000
2622221;-0.39500
2624999;-0.40500
2627777;-0.40500
2630555;-0.41000
2633333;-0.41000
2636110;-0.41000
2638888;-0.39500
2641666;-0.39000
2644444;-0.40500
2647221;-0.42000
2649999;-0.40500
2652777;-0.40500
2655555;-0.40000
2658333;-0.40500
2661110;-0.42000
2663888;-0.43000
2666666;-0.42000
2669444;-0.42500
2672221;-0.41000
2674999;-0.41500
2677777;-0.42000
2680555;-0.42500
2683333;-0.42000
2686110;-0.41000
2688888;-0.41000
2691666;-0.41500
2694444;-0.42000
2697221;-0.42500
2699999;-0.42500
2702777;-0.42000
2705555;-0.40500
2708333;-0.40000
2711110;-0.40500
2713888;-0.40000
2716666;-0.38500
2719444;-0.37000
2722221;-0.36000
2724999;-0.35500
2727777;-0.35000
2730555;-0.35000
2733333;-0.35500
2736110;-0.33500
2738888;-0.31500
2741666;-0.32000
2744444;-0.32500
2747221;-0.33500
2749999;-0.32500
2752777;-0.32500
2755555;-0.32000
2758333;-0.32500
2761110;-0.34500
2763888;-0.36000
2766666;-0.36500
2769444;-0.35000
2772221;-0.34500
2774999;-0.36000
2777777;-0.36500
2780555;-0.36500
2783333;-0.34000
2786110;-0.33500
2788888;-0.34500
2791666;-0.38000
2794444;-0.38500
2797221;-0.39500
2799999;-0.41500
2802777;-0.42500
2805555;-0.44000
2808333;-0.44500
2811110;-0.45500
2813888;-0.47000
2816666;-0.46500
2819444;-0.46500
2822221;-0.46500
2824999;-0.46500
2827777;-0.49000
2830555;-0.49500
2833333;-0.50000
2836110;-0.48500
2838888;-0.48500
2841666;-0.49000
2844444;-0.50000
2847221;-0.50000
2849999;-0.50500
2852777;-0.50000
2855555;-0.49000
2858333;-0.50000
2861110;-0.49000
2863888;-0.50000
2866666;-0.49000
2869444;-0.48500
2872221;-0.47500
2874999;-0.49500
2877777;-0.53000
2880555;-0.57500
2883333;-0.60000
2886110;-0.64000
2888888;-0.70000
2891666;-0.73000
2894444;-0.70500
2897221;-0.60000
2899999;-0.45500
2902777;-0.29500
2905555;-0.07000
2908333;0.20500
2911110;0.44000
2913888;0.60000
2916666;0.63000
2919444;0.48500
2922221;0.15000
2924999;-0.24000
2927777;-0.50000
2930555;-0.63500
2933333;-0.65500
2936110;-0.60500
2938888;-0.55000
2941666;-0.51500
2944444;-0.53000
2947221;-0.55000
2949999;-0.53000
2952777;-0.52500
2955555;-0.51500
2958333;-0.51500
2961110;-0.52500
2963888;-0.53500
2966666;-0.53500
2969444;-0.51500
2972221;-0.52000
2974999;-0.52500
2977777;-0.53500
2980555;-0.56000
2983332;-0.56000
2986110;-0.56000
2988888;-0.55000
2991666;-0.55000
2994444;-0.56500
2997221;-0.57000
2999999;-0.56000
3002777;-0.56000
3005555;-0.54500
3008332;-0.55500
3011110;-0.54500
3013888;-0.55500
3016666;-0.54000
3019444;-0.54500
3022221;-0.53500
3024999;-0.53500
3027777;-0.53500
3030555;-0.56000
3033332;-0.54500
3036110;-0.55000
3038888;-0.54500
3041666;-0.55000
3044444;-0.56000
3047221;-0.57000
3049999;-0.55500
3052777;-0.53500
3055555;-0.52500
3058332;-0.53500
3061110;-0.54000
3063888;-0.55000
3066666;-0.56000
3069444;-0.55500
3072221;-0.55000
3074999;-0.55000
3077777;-0.56500
3080555;-0.56500
3083332;-0.56000
3086110;-0.55000
3088888;-0.55000
3091666;-0.55500
3094444;-0.55500
3097221;-0.56000
3099999;-0.54000
3102777;-0.54000
3105555;-0.53000
3108332;-0.53500
3111110;-0.54500
3113888;-0.55000
3116666;-0.56000
3119444;-0.55000
3122221;-0.55000
3124999;-0.56500
3127777;-0.55000
3130555;-0.55000
3133332;-0.55500
3136110;-0.55500
3138888;-0.56500
3141666;-0.56000
3144444;-0.57000
3147221;-0.57500
3149999;-0.58500
3152777;-0.58500
3155555;-0.56500
3158332;-0.58000
3161110;-0.59500
3163888;-0.60500
3166666;-0.59500
3169444;-0.58500
3172221;-0.58500
3174999;-0.57000
3177777;-0.58000
3180555;-0.60000
3183332;-0.60000
3186110;-0.58500
3188888;-0.55500
3191666;-0.55500
3194444;-0.56000
3197221;-0.58000
3199999;-0.57000
3202777;-0.56500
3205555;-0.54500
3208332;-0.54000
3211110;-0.53000
3213888;-0.54000
3216666;-0.51500
3219444;-0.51500
3222221;-0.50000
3224999;-0.49000
3227777;-0.49500
3230555;-0.50000
3233332;-0.49500
3236110;-0.48000
3238888;-0.46500
3241666;-0.47500
3244444;-0.47000
3247221;-0.48000
3249999;-0.48000
3252777;-0.46500
3255555;-0.45500
3258332;-0.46500
3261110;-0.47000
3263888;-0.47000
3266666;-0.47500
3269444;-0.46000
3272221;-0.46000
3274999;-0.46500
3277777;-0.46500
3280555;-0.49000
3283332;-0.49500
3286110;-0.48000
3288888;-0.47500
3291666;-0.47000
3294444;-0.48500
3297221;-0.50500
3299999;-0.50500
3302777;-0.49000
3305555;-0.48500
3308332;-0.50000
3311110;-0.50500
3313888;-0.52000
3316666;-0.51500
3319444;-0.50500
3322221;-0.49500
3324999;-0.50500
3327777;-0.51000
3330555;-0.52500
3333332;-0.51000
3336110;-0.51000
3338888;-0.50000
3341666;-0.50000
3344444;-0.51000
3347221;-0.53000
3349999;-0.52500
3352777;-0.51500
3355555;-0.50500
3358332;-0.52000
3361110;-0.51500
3363888;-0.51500
3366666;-0.52000
3369444;-0.51000
3372221;-0.50500
3374999;-0.50000
3377777;-0.51500
3380555;-0.52500
3383332;-0.52500
3386110;-0.52500
3388888;-0.51000
3391666;-0.50500
3394443;-0.51500
3397221;-0.52500
3399999;-0.53000
3402777;-0.51500
3405555;-0.51500
3408332;-0.52000
3411110;-0.51500
3413888;-0.52500
3416666;-0.52000
3419443;-0.50500
3422221;-0.49500
3424999;-0.51000
3427777;-0.51500
3430555;-0.52000
3433332;-0.51500
3436110;-0.50500
3438888;-0.50500
3441666;-0.50500
3444443;-0.48500
3447221;-0.50000
3449999;-0.49000
3452777;-0.46500
3455555;-0.45000
3458332;-0.44500
3461110;-0.45500
3463888;-0.45000
3466666;-0.45000
3469443;-0.43000
3472221;-0.43000
3474999;-0.43000
3477777;-0.43000
3480555;-0.43000
3483332;-0.40500
3486110;-0.41000
3488888;-0.39500
3491666;-0.40000
3494443;-0.42500
3497221;-0.43500
3499999;-0.42000
3502777;-0.42500
3505555;-0.42000
3508332;-0.41500
3511110;-0.43500
3513888;-0.44500
3516666;-0.43500
3519443;-0.41000
3522221;-0.38000
3524999;-0.38500
3527777;-0.41000
3530555;-0.45000
3533332;-0.46000
3536110;-0.46000
3538888;-0.47000
3541666;-0.49500
3544443;-0.51500
3547221;-0.52500
3549999;-0.53000
3552777;-0.53500
3555555;-0.54000
3558332;-0.54000
3561110;-0.55500
3563888;-0.57000
3566666;-0.55500
3569443;-0.55000
3572221;-0.54000
3574999;-0.54000
3577777;-0.54500
3580555;-0.55500
3583332;-0.54500
3586110;-0.54500
3588888;-0.54000
3591666;-0.54000
3594443;-0.55000
3597221;-0.55000
3599999;-0.55500
3602777;-0.54500
3605555;-0.53500
3608332;-0.53500
3611110;-0.54500
3613888;-0.55500
3616666;-0.55500
3619443;-0.56500
3622221;-0.58500
3624999;-0.63500
3627777;-0.66000
3630555;-0.69000
3633332;-0.73500
3636110;-0.76500
3638888;-0.75500
3641666;-0.67000
3644443;-0.53500
3647221;-0.39500
3649999;-0.20500
3652777;0.04500
3655555;0.32000
3658332;0.53000
3661110;0.62500
3663888;0.57000
3666666;0.32000
3669443;-0.03000
3672221;-0.37000
3674999;-0.60000
3677777;-0.70000
3680555;-0.69500
3683332;-0.64500
3686110;-0.58500
3688888;-0.55500
3691666;-0.56500
3694443;-0.57000
3697221;-0.59500
3699999;-0.57500
3702777;-0.57500
3705555;-0.57000
3708332;-0.57000
3711110;-0.58000
3713888;-0.59000
3716666;-0.58000
3719443;-0.57500
3722221;-0.56500
3724999;-0.56500
3727777;-0.57500
3730555;-0.60000
3733332;-0.58000
3736110;-0.57500
3738888;-0.56500
3741666;-0.56500
3744443;-0.57000
