time_ms;ecg_value
0;-0.51000
2778;-0.51500
5556;-0.52000
8333;-0.52500
11111;-0.50500
13889;-0.50000
16667;-0.50000
19444;-0.51500
22222;-0.51000
25000;-0.49500
27778;-0.48500
30556;-0.48000
33333;-0.47500
36111;-0.46500
38889;-0.46000
41667;-0.43500
44444;-0.42500
47222;-0.42500
50000;-0.41500
52778;-0.40500
55556;-0.40000
58333;-0.39500
61111;-0.38000
63889;-0.38000
66667;-0.38000
69444;-0.38000
72222;-0.38500
75000;-0.36500
77778;-0.36000
80556;-0.36000
83333;-0.36000
86111;-0.37500
88889;-0.37000
91667;-0.37000
94444;-0.36000
97222;-0.35500
100000;-0.37000
102778;-0.37000
105556;-0.36500
108333;-0.35500
111111;-0.35000
113889;-0.35500
116667;-0.35500
119444;-0.36000
122222;-0.36500
125000;-0.37500
127778;-0.36500
130556;-0.36000
133333;-0.36500
136111;-0.38000
138889;-0.39000
141667;-0.38000
144444;-0.37500
147222;-0.38500
150000;-0.37500
152778;-0.39000
155556;-0.39000
158333;-0.39000
161111;-0.38000
163889;-0.38000
166667;-0.37000
169444;-0.38500
172222;-0.39000
175000;-0.39500
177778;-0.38500
180556;-0.38500
183333;-0.38500
186111;-0.39500
188889;-0.40000
191667;-0.39500
194444;-0.40000
197222;-0.40000
200000;-0.40500
202778;-0.42000
205555;-0.41500
208333;-0.40000
211111;-0.41000
213889;-0.41500
216667;-0.42000
219444;-0.42000
222222;-0.41500
225000;-0.41000
227778;-0.39500
230555;-0.39500
233333;-0.39500
236111;-0.41500
238889;-0.41500
241667;-0.40000
244444;-0.39500
247222;-0.40500
250000;-0.40000
252778;-0.40500
255555;-0.40500
258333;-0.40000
261111;-0.38000
263889;-0.39500
266667;-0.39500
269444;-0.40500
272222;-0.41000
275000;-0.39500
277778;-0.39000
280555;-0.38500
283333;-0.40000
286111;-0.39500
288889;-0.40000
291667;-0.39500
294444;-0.38500
297222;-0.39500
300000;-0.39000
302778;-0.39000
305555;-0.39000
308333;-0.37000
311111;-0.36000
313889;-0.34000
316667;-0.33500
319444;-0.33500
322222;-0.34500
325000;-0.32000
327778;-0.31500
330555;-0.31000
333333;-0.31500
336111;-0.31000
338889;-0.30500
341667;-0.28500
344444;-0.28000
347222;-0.27000
350000;-0.26500
352778;-0.27500
355555;-0.28000
358333;-0.28000
361111;-0.28000
363889;-0.28500
366667;-0.28500
369444;-0.29000
372222;-0.28500
375000;-0.28500
377778;-0.26500
380555;-0.25500
383333;-0.24000
386111;-0.24500
388889;-0.28000
391667;-0.29500
394444;-0.31500
397222;-0.32500
400000;-0.33000
402778;-0.34000
405555;-0.34500
408333;-0.34500
411111;-0.36500
413889;-0.37000
416667;-0.37500
419444;-0.40000
422222;-0.41500
425000;-0.41000
427778;-0.40500
430555;-0.40500
433333;-0.40500
436111;-0.42500
438889;-0.41500
441667;-0.42000
444444;-0.41000
447222;-0.40500
450000;-0.42000
452778;-0.42500
455555;-0.43500
458333;-0.42000
461111;-0.41000
463889;-0.42000
466667;-0.42500
469444;-0.42500
472222;-0.42500
475000;-0.42500
477778;-0.42500
480555;-0.42000
483333;-0.44000
486111;-0.47500
488889;-0.52000
491667;-0.53000
494444;-0.53500
497222;-0.57500
500000;-0.63000
502778;-0.63500
505555;-0.57500
508333;-0.45000
511111;-0.32000
513889;-0.15500
516667;0.04500
519444;0.29500
522222;0.53000
525000;0.70500
527778;0.76500
530555;0.67500
533333;0.39000
536111;-0.01000
538889;-0.36500
541667;-0.56000
544444;-0.59500
547222;-0.55500
550000;-0.52000
552778;-0.48000
555555;-0.48500
558333;-0.48500
561111;-0.45500
563889;-0.45500
566667;-0.46000
569444;-0.46500
572222;-0.47500
575000;-0.47500
577778;-0.46000
580555;-0.45500
583333;-0.47500
586111;-0.48000
588889;-0.48500
591667;-0.48000
594444;-0.47000
597222;-0.48000
600000;-0.47500
602778;-0.48000
605555;-0.47500
608333;-0.47000
611111;-0.46500
613889;-0.45500
616666;-0.45000
619444;-0.46500
622222;-0.46500
625000;-0.46000
627778;-0.44500
630555;-0.45000
633333;-0.46500
636111;-0.48000
638889;-0.46500
641666;-0.46500
644444;-0.46500
647222;-0.46500
650000;-0.47000
652778;-0.47000
655555;-0.47500
658333;-0.46500
661111;-0.47000
663889;-0.46000
666666;-0.47000
669444;-0.48000
672222;-0.48000
675000;-0.46500
677778;-0.46000
680555;-0.46000
683333;-0.46000
686111;-0.46500
688889;-0.47500
691666;-0.46500
694444;-0.45000
697222;-0.46000
700000;-0.46000
702778;-0.48000
705555;-0.47000
708333;-0.46500
711111;-0.45500
713889;-0.45500
716666;-0.46000
719444;-0.46000
722222;-0.46500
725000;-0.46000
727778;-0.45500
730555;-0.45000
733333;-0.46000
736111;-0.47500
738889;-0.47000
741666;-0.46500
744444;-0.45000
747222;-0.45000
750000;-0.44500
752778;-0.45500
755555;-0.47000
758333;-0.46500
761111;-0.45500
763889;-0.45000
766666;-0.45500
769444;-0.46500
772222;-0.46500
775000;-0.46500
777778;-0.45500
780555;-0.45000
783333;-0.46000
786111;-0.46500
788889;-0.46500
791666;-0.46500
794444;-0.45000
797222;-0.44000
800000;-0.45500
802778;-0.46000
805555;-0.45000
808333;-0.43500
811111;-0.42500
813889;-0.42000
816666;-0.42000
819444;-0.42500
822222;-0.40500
825000;-0.39500
827778;-0.38500
830555;-0.37000
833333;-0.37500
836111;-0.37500
838889;-0.36500
841666;-0.36000
844444;-0.35000
847222;-0.34500
850000;-0.34000
852778;-0.35000
855555;-0.35500
858333;-0.34000
861111;-0.32500
863889;-0.33000
866666;-0.33500
869444;-0.32500
872222;-0.34000
875000;-0.32000
877778;-0.31500
880555;-0.31000
883333;-0.31000
886111;-0.32500
888889;-0.33000
891666;-0.32500
894444;-0.30500
897222;-0.31500
900000;-0.31000
902778;-0.32500
905555;-0.33500
908333;-0.32500
911111;-0.32500
913889;-0.31000
916666;-0.31500
919444;-0.32500
922222;-0.33000
925000;-0.33000
927778;-0.32000
930555;-0.31500
933333;-0.32000
936111;-0.33000
938889;-0.33500
941666;-0.33000
944444;-0.32000
947222;-0.32500
950000;-0.33000
952778;-0.34000
955555;-0.34000
958333;-0.34000
961111;-0.33500
963889;-0.33000
966666;-0.34500
969444;-0.35500
972222;-0.36000
975000;-0.34500
977778;-0.34000
980555;-0.34000
983333;-0.34500
986111;-0.35000
988889;-0.36000
991666;-0.35500
994444;-0.34500
997222;-0.35000
1000000;-0.35500
1002777;-0.36000
1005555;-0.36000
1008333;-0.35000
1011111;-0.34500
1013889;-0.35000
1016666;-0.35000
1019444;-0.36500
1022222;-0.37000
1025000;-0.35500
1027777;-0.33500
1030555;-0.35500
1033333;-0.36000
1036111;-0.36000
1038889;-0.36500
1041666;-0.37000
1044444;-0.35500
1047222;-0.35500
1050000;-0.36000
1052777;-0.35500
1055555;-0.36500
1058333;-0.35500
1061111;-0.35000
1063889;-0.34000
1066666;-0.35500
1069444;-0.35500
1072222;-0.37500
1075000;-0.35000
1077777;-0.34000
1080555;-0.34000
1083333;-0.34000
1086111;-0.35000
1088889;-0.35000
1091666;-0.35000
1094444;-0.34000
1097222;-0.34500
1100000;-0.34000
1102777;-0.34000
1105555;-0.33500
1108333;-0.32000
1111111;-0.30000
1113889;-0.29500
1116666;-0.29500
1119444;-0.29500
1122222;-0.28000
1125000;-0.27000
1127777;-0.27000
1130555;-0.27000
1133333;-0.27500
1136111;-0.27500
1138889;-0.26500
1141666;-0.24500
1144444;-0.22000
1147222;-0.21500
1150000;-0.22500
1152777;-0.24000
1155555;-0.23500
1158333;-0.22500
1161111;-0.22500
1163889;-0.23500
1166666;-0.25500
1169444;-0.26000
1172222;-0.25500
1175000;-0.25500
1177777;-0.25000
1180555;-0.24000
1183333;-0.24500
1186111;-0.24500
1188889;-0.25000
1191666;-0.23500
1194444;-0.22000
1197222;-0.20500
1200000;-0.19500
1202777;-0.21500
1205555;-0.25000
1208333;-0.28000
1211111;-0.27500
1213889;-0.27500
1216666;-0.29000
1219444;-0.31000
1222222;-0.33000
1225000;-0.34000
1227777;-0.34500
1230555;-0.34500
1233333;-0.35000
1236111;-0.35000
1238889;-0.36000
1241666;-0.36000
1244444;-0.34500
1247222;-0.34000
1250000;-0.36000
1252777;-0.36500
1255555;-0.37000
1258333;-0.37000
1261111;-0.36000
1263889;-0.37500
1266666;-0.37500
1269444;-0.37500
1272222;-0.39500
1275000;-0.38000
1277777;-0.37000
1280555;-0.37500
1283333;-0.37000
1286111;-0.37500
1288889;-0.38000
1291666;-0.38500
1294444;-0.37000
1297222;-0.39000
1300000;-0.42500
1302777;-0.46500
1305555;-0.50000
1308333;-0.49500
1311111;-0.52000
1313889;-0.56000
1316666;-0.57500
1319444;-0.53500
1322222;-0.44500
1325000;-0.32500
1327777;-0.21000
1330555;-0.03500
1333333;0.18000
1336111;0.41500
1338889;0.61500
1341666;0.75500
1344444;0.81000
1347222;0.74500
1350000;0.50500
1352777;0.15500
1355555;-0.20000
1358333;-0.43500
1361111;-0.54500
1363889;-0.55500
1366666;-0.55000
1369444;-0.52000
1372222;-0.48000
1375000;-0.44500
1377777;-0.41000
1380555;-0.41500
1383333;-0.42500
1386111;-0.43000
1388888;-0.42000
1391666;-0.41500
1394444;-0.41500
1397222;-0.41000
1400000;-0.42500
1402777;-0.43000
1405555;-0.43000
1408333;-0.43500
1411111;-0.42500
1413888;-0.43000
1416666;-0.42500
1419444;-0.43000
1422222;-0.43500
1425000;-0.42000
1427777;-0.41500
1430555;-0.41500
1433333;-0.42000
1436111;-0.42500
1438888;-0.44000
1441666;-0.42500
1444444;-0.42000
1447222;-0.42000
1450000;-0.42000
1452777;-0.43500
1455555;-0.43500
1458333;-0.41000
1461111;-0.40500
1463888;-0.41500
1466666;-0.41500
1469444;-0.43000
1472222;-0.43000
1475000;-0.42500
1477777;-0.41000
1480555;-0.41000
1483333;-0.42000
1486111;-0.42500
1488888;-0.42500
1491666;-0.42000
1494444;-0.40500
1497222;-0.40000
1500000;-0.41500
1502777;-0.40500
1505555;-0.42500
1508333;-0.41000
1511111;-0.41500
1513888;-0.40500
1516666;-0.41500
1519444;-0.40500
1522222;-0.41500
1525000;-0.42000
1527777;-0.40000
1530555;-0.39500
1533333;-0.39000
1536111;-0.40000
1538888;-0.41000
1541666;-0.40500
1544444;-0.38000
1547222;-0.38500
1550000;-0.40000
1552777;-0.40500
1555555;-0.41000
1558333;-0.40500
1561111;-0.40000
1563888;-0.39000
1566666;-0.39000
1569444;-0.40500
1572222;-0.41500
1575000;-0.40500
1577777;-0.39000
1580555;-0.38500
1583333;-0.39500
1586111;-0.39000
1588888;-0.41000
1591666;-0.39500
1594444;-0.38500
1597222;-0.39500
1600000;-0.40000
1602777;-0.40000
1605555;-0.40500
1608333;-0.40000
1611111;-0.39500
1613888;-0.38500
1616666;-0.39500
1619444;-0.40500
1622222;-0.41500
1625000;-0.40500
1627777;-0.39000
1630555;-0.38500
1633333;-0.40000
1636111;-0.41500
1638888;-0.41000
1641666;-0.39500
1644444;-0.39500
1647222;-0.37500
1650000;-0.37000
1652777;-0.36500
1655555;-0.37500
1658333;-0.35500
1661111;-0.33000
1663888;-0.32000
1666666;-0.31500
1669444;-0.33000
1672222;-0.32000
1675000;-0.30500
1677777;-0.30000
1680555;-0.29000
1683333;-0.29000
1686111;-0.29000
1688888;-0.30000
1691666;-0.28500
1694444;-0.27500
1697222;-0.27000
1700000;-0.28000
1702777;-0.29500
1705555;-0.30500
1708333;-0.29000
1711111;-0.28500
1713888;-0.27500
1716666;-0.28000
1719444;-0.29000
1722222;-0.28500
1725000;-0.28000
1727777;-0.27500
1730555;-0.27500
1733333;-0.28500
1736111;-0.29500
1738888;-0.30500
1741666;-0.28000
1744444;-0.27500
1747222;-0.27500
1750000;-0.28000
1752777;-0.28500
1755555;-0.29500
1758333;-0.29000
1761111;-0.27500
1763888;-0.27500
1766666;-0.28500
1769444;-0.30000
1772222;-0.30500
1775000;-0.29500
1777777;-0.28500
1780555;-0.29000
1783333;-0.30500
1786111;-0.30000
1788888;-0.30500
1791666;-0.30000
1794444;-0.30500
1797222;-0.29000
1799999;-0.29500
1802777;-0.31000
1805555;-0.31500
1808333;-0.30000
1811111;-0.30500
1813888;-0.30000
1816666;-0.30000
1819444;-0.30500
1822222;-0.32500
1824999;-0.32000
1827777;-0.31000
1830555;-0.31500
1833333;-0.32000
1836111;-0.32500
1838888;-0.33000
1841666;-0.32500
1844444;-0.31500
1847222;-0.31500
1849999;-0.33000
1852777;-0.33500
1855555;-0.33500
1858333;-0.33000
1861111;-0.32000
1863888;-0.32000
1866666;-0.32500
1869444;-0.31500
1872222;-0.33000
1874999;-0.32500
1877777;-0.33000
1880555;-0.32000
1883333;-0.33500
1886111;-0.33000
1888888;-0.34000
1891666;-0.33000
1894444;-0.32500
1897222;-0.32000
1899999;-0.32500
1902777;-0.33500
1905555;-0.33500
1908333;-0.31500
1911111;-0.31000
1913888;-0.31000
1916666;-0.29500
1919444;-0.31000
1922222;-0.31500
1924999;-0.32000
1927777;-0.32000
1930555;-0.30500
1933333;-0.30000
1936111;-0.30500
1938888;-0.31000
1941666;-0.31000
1944444;-0.30000
1947222;-0.29000
1949999;-0.29000
1952777;-0.30000
1955555;-0.30000
1958333;-0.28500
1961111;-0.27500
1963888;-0.26500
1966666;-0.26000
1969444;-0.26000
1972222;-0.26000
1974999;-0.25000
1977777;-0.23000
1980555;-0.23000
1983333;-0.23000
1986111;-0.23000
1988888;-0.23000
1991666;-0.21000
1994444;-0.19500
1997222;-0.18000
1999999;-0.18500
2002777;-0.19500
2005555;-0.20000
2008333;-0.19000
2011111;-0.19000
2013888;-0.20000
2016666;-0.19500
2019444;-0.20500
2022222;-0.20000
2024999;-0.20000
2027777;-0.19500
2030555;-0.16000
2033333;-0.14500
2036111;-0.16500
2038888;-0.20000
2041666;-0.23000
2044444;-0.24500
2047222;-0.25000
2049999;-0.26500
2052777;-0.28500
2055555;-0.31500
2058333;-0.31500
2061111;-0.32000
2063888;-0.30500
2066666;-0.32500
2069444;-0.33000
2072222;-0.34000
2074999;-0.32500
2077777;-0.32500
2080555;-0.33000
2083333;-0.32000
2086111;-0.33000
2088888;-0.34500
2091666;-0.34000
2094444;-0.32500
2097222;-0.32000
2099999;-0.33000
2102777;-0.33500
2105555;-0.34000
2108333;-0.34500
2111111;-0.34000
2113888;-0.33500
2116666;-0.35000
2119444;-0.36000
2122222;-0.36500
2124999;-0.38000
2127777;-0.38500
2130555;-0.41500
2133333;-0.45000
2136111;-0.47500
2138888;-0.52000
2141666;-0.56000
2144444;-0.56500
2147222;-0.52000
2149999;-0.44500
2152777;-0.34000
2155555;-0.27500
2158333;-0.16000
2161111;-0.02500
2163888;0.18000
2166666;0.39000
2169444;0.58500
2172222;0.70500
2174999;0.81000
2177777;0.87000
2180555;0.86500
2183333;0.70000
2186110;0.38500
2188888;0.01000
2191666;-0.30000
2194444;-0.47000
2197222;-0.52500
2199999;-0.51500
2202777;-0.47000
2205555;-0.44000
2208333;-0.41000
2211110;-0.40500
2213888;-0.40500
2216666;-0.39500
2219444;-0.39500
2222222;-0.40500
2224999;-0.40000
2227777;-0.38500
2230555;-0.39000
2233333;-0.40000
2236110;-0.40500
2238888;-0.41500
2241666;-0.40000
2244444;-0.40000
2247222;-0.39500
2249999;-0.39500
2252777;-0.40000
2255555;-0.41000
2258333;-0.40500
2261110;-0.40000
2263888;-0.39000
2266666;-0.40000
2269444;-0.41000
2272222;-0.41500
2274999;-0.41500
2277777;-0.40000
2280555;-0.39500
2283333;-0.40500
2286110;-0.41500
2288888;-0.40500
2291666;-0.39500
2294444;-0.38500
2297222;-0.39000
2299999;-0.40500
2302777;-0.40500
2305555;-0.41500
2308333;-0.41500
2311110;-0.41000
2313888;-0.40500
2316666;-0.41000
2319444;-0.41000
2322222;-0.42500
2324999;-0.41000
2327777;-0.40500
2330555;-0.40000
2333333;-0.40500
2336110;-0.41000
2338888;-0.41000
2341666;-0.40500
2344444;-0.39500
2347222;-0.39000
2349999;-0.39000
2352777;-0.40000
2355555;-0.41500
2358333;-0.41500
2361110;-0.40500
2363888;-0.39500
2366666;-0.39000
2369444;-0.40000
2372222;-0.41500
2374999;-0.39500
2377777;-0.39000
2380555;-0.38000
2383333;-0.39000
2386110;-0.39000
2388888;-0.40000
2391666;-0.40500
2394444;-0.40500
2397222;-0.39000
2399999;-0.39500
2402777;-0.40000
2405555;-0.41500
2408333;-0.41000
2411110;-0.39500
2413888;-0.38500
2416666;-0.39000
2419444;-0.40000
2422222;-0.41000
2424999;-0.40500
2427777;-0.40000
2430555;-0.38500
2433333;-0.39000
2436110;-0.40000
2438888;-0.41000
2441666;-0.40000
2444444;-0.38500
2447222;-0.37500
2449999;-0.38000
2452777;-0.38500
2455555;-0.38500
2458333;-0.36000
2461110;-0.35000
2463888;-0.34500
2466666;-0.34000
2469444;-0.33500
2472222;-0.33500
2474999;-0.32500
2477777;-0.31000
2480555;-0.30500
2483333;-0.29500
2486110;-0.30000
2488888;-0.30000
2491666;-0.29000
2494444;-0.27500
2497222;-0.26500
2499999;-0.29000
2502777;-0.28500
2505555;-0.29000
2508333;-0.28500
2511110;-0.27000
2513888;-0.26500
2516666;-0.27500
2519444;-0.29500
2522222;-0.30500
2524999;-0.28500
2527777;-0.28000
2530555;-0.26000
2533333;-0.27500
2536110;-0.29500
2538888;-0.29500
2541666;-0.29500
2544444;-0.28500
2547222;-0.28000
2549999;-0.29000
2552777;-0.30500
2555555;-0.30500
2558333;-0.28500
2561110;-0.28500
2563888;-0.27500
2566666;-0.28000
2569444;-0.28000
2572222;-0.29500
2574999;-0.29500
2577777;-0.29000
2580555;-0.28000
2583333;-0.28000
2586110;-0.29000
2588888;-0.29500
2591666;-0.30000
2594444;-0.28000
2597221;-0.29000
2599999;-0.28500
2602777;-0.30000
2605555;-0.30500
2608333;-0.30500
2611110;-0.30000
2613888;-0.30000
2616666;-0.30000
2619444;-0.32000
2622221;-0.33000
2624999;-0.32000
2627777;-0.31000
2630555;-0.30500
2633333;-0.32000
2636110;-0.33000
2638888;-0.33500
2641666;-0.33500
2644444;-0.30500
2647221;-0.30500
2649999;-0.32000
2652777;-0.32500
2655555;-0.33000
2658333;-0.33000
2661110;-0.31500
2663888;-0.31000
2666666;-0.30500
2669444;-0.31500
2672221;-0.32500
2674999;-0.34500
2677777;-0.33000
2680555;-0.32500
2683333;-0.31500
2686110;-0.32500
2688888;-0.33000
2691666;-0.32000
2694444;-0.32000
2697221;-0.31500
2699999;-0.31500
2702777;-0.32500
2705555;-0.34000
2708333;-0.32000
2711110;-0.32000
2713888;-0.30500
2716666;-0.30000
2719444;-0.31000
2722221;-0.32000
2724999;-0.31500
2727777;-0.31000
2730555;-0.31000
2733333;-0.31500
2736110;-0.32500
2738888;-0.32500
2741666;-0.32000
2744444;-0.31500
2747221;-0.29000
2749999;-0.30000
2752777;-0.30500
2755555;-0.30500
2758333;-0.30500
2761110;-0.29500
2763888;-0.29000
2766666;-0.29000
2769444;-0.29000
2772221;-0.29000
2774999;-0.27500
2777777;-0.26500
2780555;-0.25000
2783333;-0.24000
2786110;-0.25000
2788888;-0.25500
2791666;-0.24000
2794444;-0.22000
2797221;-0.20000
2799999;-0.20500
2802777;-0.20000
2805555;-0.21000
2808333;-0.20000
2811110;-0.19500
2813888;-0.18500
2816666;-0.19500
2819444;-0.21000
2822221;-0.22500
2824999;-0.21000
2827777;-0.19500
2830555;-0.18500
2833333;-0.19000
2836110;-0.19000
2838888;-0.20000
2841666;-0.19500
2844444;-0.21500
2847221;-0.23500
2849999;-0.26000
2852777;-0.27000
2855555;-0.29000
2858333;-0.29500
2861110;-0.30500
2863888;-0.30500
2866666;-0.31500
2869444;-0.33500
2872221;-0.34500
2874999;-0.33500
2877777;-0.33500
2880555;-0.32500
2883333;-0.33000
2886110;-0.33000
2888888;-0.34000
2891666;-0.33000
2894444;-0.32500
2897221;-0.32500
2899999;-0.33000
2902777;-0.34000
2905555;-0.35500
2908333;-0.35000
2911110;-0.34000
2913888;-0.32500
2916666;-0.33500
2919444;-0.34500
2922221;-0.35500
2924999;-0.36000
2927777;-0.35000
2930555;-0.36000
2933333;-0.35000
2936110;-0.36000
2938888;-0.40000
2941666;-0.42000
2944444;-0.45500
2947221;-0.46000
2949999;-0.49500
2952777;-0.53500
2955555;-0.57500
2958333;-0.53500
2961110;-0.42000
2963888;-0.29000
2966666;-0.14000
2969444;0.04500
2972221;0.30500
2974999;0.58000
2977777;0.77000
2980555;0.84500
2983332;0.73500
2986110;0.44000
2988888;0.05000
2991666;-0.30500
2994444;-0.48500
2997221;-0.52500
2999999;-0.49000
3002777;-0.44500
3005555;-0.41500
3008332;-0.42000
3011110;-0.40000
3013888;-0.39500
3016666;-0.39000
3019444;-0.39500
3022221;-0.40500
3024999;-0.41000
3027777;-0.39500
3030555;-0.39500
3033332;-0.40000
3036110;-0.39500
3038888;-0.40500
3041666;-0.39500
3044444;-0.40000
3047221;-0.38000
3049999;-0.39500
3052777;-0.40000
3055555;-0.40500
3058332;-0.41000
3061110;-0.41500
3063888;-0.39000
3066666;-0.39500
3069444;-0.41000
3072221;-0.41000
3074999;-0.40500
3077777;-0.40500
3080555;-0.39500
3083332;-0.39500
3086110;-0.42000
3088888;-0.42500
3091666;-0.41000
3094444;-0.40500
3097221;-0.39000
3099999;-0.40500
3102777;-0.41000
3105555;-0.42000
3108332;-0.41000
3111110;-0.40500
3113888;-0.40000
3116666;-0.40500
3119444;-0.40000
3122221;-0.42000
3124999;-0.41000
3127777;-0.41000
3130555;-0.40000
3133332;-0.40500
3136110;-0.41500
3138888;-0.43000
3141666;-0.41500
3144444;-0.40500
3147221;-0.40500
3149999;-0.40500
3152777;-0.40500
3155555;-0.42000
3158332;-0.40500
3161110;-0.40000
3163888;-0.39500
3166666;-0.40500
3169444;-0.40000
3172221;-0.40500
3174999;-0.40000
3177777;-0.39500
3180555;-0.38500
3183332;-0.40000
3186110;-0.41000
3188888;-0.41500
3191666;-0.41000
3194444;-0.40500
3197221;-0.40500
3199999;-0.41500
3202777;-0.42000
3205555;-0.43500
3208332;-0.44000
3211110;-0.43000
3213888;-0.43000
3216666;-0.42500
3219444;-0.43500
3222221;-0.43500
3224999;-0.44000
3227777;-0.43000
3230555;-0.40500
3233332;-0.41000
3236110;-0.41500
3238888;-0.41000
3241666;-0.41000
3244444;-0.38500
3247221;-0.37500
3249999;-0.37500
3252777;-0.39000
3255555;-0.39500
3258332;-0.37000
3261110;-0.34000
3263888;-0.33500
3266666;-0.31000
3269444;-0.32000
3272221;-0.31000
3274999;-0.30500
3277777;-0.29500
3280555;-0.28500
3283332;-0.28500
3286110;-0.29000
3288888;-0.29500
3291666;-0.30000
3294444;-0.28500
3297221;-0.27500
3299999;-0.27500
3302777;-0.28000
3305555;-0.28000
3308332;-0.28500
3311110;-0.27000
3313888;-0.26000
3316666;-0.27000
3319444;-0.28500
3322221;-0.28000
3324999;-0.28500
3327777;-0.27000
3330555;-0.26000
3333332;-0.26500
3336110;-0.27000
3338888;-0.28000
3341666;-0.28500
3344444;-0.27500
3347221;-0.26000
3349999;-0.26500
3352777;-0.27500
3355555;-0.30500
3358332;-0.27500
3361110;-0.28000
3363888;-0.28000
3366666;-0.27500
3369444;-0.28000
3372221;-0.29500
3374999;-0.29000
3377777;-0.28500
3380555;-0.29000
3383332;-0.28500
3386110;-0.28500
3388888;-0.30500
3391666;-0.29500
3394443;-0.28500
3397221;-0.28500
3399999;-0.29500
3402777;-0.30000
3405555;-0.30500
3408332;-0.30000
3411110;-0.29500
3413888;-0.30500
3416666;-0.29500
3419443;-0.30500
3422221;-0.30500
3424999;-0.31500
3427777;-0.29500
3430555;-0.30000
3433332;-0.30000
3436110;-0.30500
3438888;-0.30500
3441666;-0.31000
3444443;-0.29000
3447221;-0.29000
3449999;-0.29500
3452777;-0.31000
3455555;-0.31500
3458332;-0.31500
3461110;-0.31500
3463888;-0.31000
3466666;-0.31000
3469443;-0.32000
3472221;-0.32000
3474999;-0.31000
3477777;-0.31000
3480555;-0.30500
3483332;-0.29500
3486110;-0.31500
3488888;-0.31000
3491666;-0.30500
3494443;-0.30000
3497221;-0.28500
3499999;-0.29500
3502777;-0.30500
3505555;-0.31000
3508332;-0.31500
3511110;-0.31000
3513888;-0.31000
3516666;-0.29500
3519443;-0.30500
3522221;-0.31000
3524999;-0.31000
3527777;-0.30000
3530555;-0.28500
3533332;-0.28000
3536110;-0.28500
3538888;-0.27500
3541666;-0.26500
3544443;-0.25500
3547221;-0.23500
3549999;-0.23000
3552777;-0.22500
3555555;-0.23500
3558332;-0.22500
3561110;-0.22500
3563888;-0.20500
3566666;-0.19500
3569443;-0.19500
3572221;-0.19500
3574999;-0.18500
3577777;-0.18000
3580555;-0.17000
3583332;-0.17500
3586110;-0.18500
3588888;-0.20500
3591666;-0.20500
3594443;-0.19000
3597221;-0.18000
3599999;-0.17500
3602777;-0.19000
3605555;-0.17000
3608332;-0.15000
3611110;-0.15000
3613888;-0.17500
3616666;-0.21500
3619443;-0.25000
3622221;-0.27000
3624999;-0.27000
3627777;-0.28000
3630555;-0.27500
3633332;-0.29000
3636110;-0.31500
3638888;-0.32000
3641666;-0.32000
3644443;-0.30000
3647221;-0.30000
3649999;-0.29500
3652777;-0.30000
3655555;-0.32000
3658332;-0.31500
3661110;-0.32000
3663888;-0.30500
3666666;-0.32000
3669443;-0.33500
3672221;-0.33000
3674999;-0.33500
3677777;-0.32000
3680555;-0.33000
3683332;-0.33000
3686110;-0.33500
3688888;-0.35000
3691666;-0.34000
3694443;-0.33500
3697221;-0.32500
3699999;-0.33000
3702777;-0.34500
3705555;-0.37500
3708332;-0.39500
3711110;-0.43000
3713888;-0.45000
3716666;-0.45500
3719443;-0.51000
3722221;-0.54000
3724999;-0.50500
3727777;-0.38500
3730555;-0.26000
3733332;-0.09500
3736110;0.12000
3738888;0.41000
3741666;0.67000
3744443;0.83500
3747221;0.83000
3749999;0.62500
3752777;0.24000
3755555;-0.16500
3758332;-0.45500
3761110;-0.52000
3763888;-0.47500
3766666;-0.41000
3769443;-0.38500
3772221;-0.39500
3774999;-0.38500
3777777;-0.38000
3780554;-0.37000
3783332;-0.37500
3786110;-0.37000
3788888;-0.38500
3791666;-0.39000
3794443;-0.38000
3797221;-0.36000
3799999;-0.36000
3802777;-0.38500
3805554;-0.39500
3808332;-0.39000
3811110;-0.38500
3813888;-0.37500
3816666;-0.37500
3819443;-0.39000
3822221;-0.39500
3824999;-0.38000
3827777;-0.37500
3830554;-0.36500
3833332;-0.37000
3836110;-0.38500
3838888;-0.39000
3841666;-0.38500
3844443;-0.38500
3847221;-0.37000
3849999;-0.38000
3852777;-0.37500
3855554;-0.38500
3858332;-0.37500
3861110;-0.37500
3863888;-0.36000
3866666;-0.36000
3869443;-0.36500
3872221;-0.37500
3874999;-0.38000
3877777;-0.37000
3880554;-0.37500
3883332;-0.38000
3886110;-0.37500
3888888;-0.38500
3891666;-0.38500
3894443;-0.37000
3897221;-0.36500
3899999;-0.37000
3902777;-0.36500
3905554;-0.38000
3908332;-0.37000
3911110;-0.36500
3913888;-0.36500
3916666;-0.36000
3919443;-0.36000
3922221;-0.37000
3924999;-0.36500
3927777;-0.36500
3930554;-0.35500
3933332;-0.34500
3936110;-0.34500
3938888;-0.36500
3941666;-0.36000
3944443;-0.35000
3947221;-0.36500
3949999;-0.36000
3952777;-0.38000
3955554;-0.37500
3958332;-0.36000
3961110;-0.37000
3963888;-0.36000
3966666;-0.36000
3969443;-0.36500
3972221;-0.38000
3974999;-0.37500
3977777;-0.35500
3980554;-0.35000
3983332;-0.35000
3986110;-0.36000
3988888;-0.37500
3991666;-0.38000
3994443;-0.37000
3997221;-0.34500
3999999;-0.35000
4002777;-0.36000
4005554;-0.36000
4008332;-0.37000
4011110;-0.35000
4013888;-0.35000
4016666;-0.34000
4019443;-0.33500
4022221;-0.33000
4024999;-0.33000
4027777;-0.31000
4030554;-0.28500
4033332;-0.27500
4036110;-0.28500
4038888;-0.29500
4041666;-0.27500
4044443;-0.26500
4047221;-0.24500
4049999;-0.25000
4052777;-0.24000
4055554;-0.25500
4058332;-0.24500
4061110;-0.23500
4063888;-0.23000
4066666;-0.23000
4069443;-0.24500
4072221;-0.24000
4074999;-0.23500
4077777;-0.24000
4080554;-0.22500
4083332;-0.24000
4086110;-0.24000
4088888;-0.25500
4091666;-0.25500
4094443;-0.25000
4097221;-0.24500
4099999;-0.24000
4102777;-0.26000
4105554;-0.26000
4108332;-0.25500
4111110;-0.26000
4113888;-0.24000
4116666;-0.24500
4119443;-0.25500
4122221;-0.25500
4124999;-0.25500
4127777;-0.25000
4130554;-0.24000
4133332;-0.23500
4136110;-0.25000
4138888;-0.26500
4141666;-0.25500
4144443;-0.26000
4147221;-0.25500
4149999;-0.24500
4152777;-0.25500
4155554;-0.27000
4158332;-0.27000
4161110;-0.27000
4163888;-0.26000
4166666;-0.26500
4169443;-0.28500
4172221;-0.29500
4174999;-0.29500
4177777;-0.27500
4180554;-0.27500
4183332;-0.28000
4186110;-0.28000
4188888;-0.29500
4191665;-0.29000
4194443;-0.27500
4197221;-0.27000
4199999;-0.28000
4202777;-0.29000
4205554;-0.29000
4208332;-0.28500
4211110;-0.28500
4213888;-0.27000
4216665;-0.28500
4219443;-0.27500
4222221;-0.29000
4224999;-0.28500
4227777;-0.28000
4230554;-0.28500
4233332;-0.28000
4236110;-0.28500
4238888;-0.30500
4241665;-0.29500
4244443;-0.29000
4247221;-0.28000
4249999;-0.28000
4252777;-0.30000
4255554;-0.29500
4258332;-0.28500
4261110;-0.28000
4263888;-0.27500
4266665;-0.26500
4269443;-0.27000
4272221;-0.28000
4274999;-0.28000
4277777;-0.27500
4280554;-0.26500
4283332;-0.27000
4286110;-0.27000
4288888;-0.28500
4291665;-0.28000
4294443;-0.27500
4297221;-0.25500
4299999;-0.26000
4302777;-0.25000
4305554;-0.25500
4308332;-0.24500
4311110;-0.23500
4313888;-0.23500
4316665;-0.22000
4319443;-0.22000
4322221;-0.23500
4324999;-0.23500
4327777;-0.21500
4330554;-0.20500
4333332;-0.20500
4336110;-0.20000
4338888;-0.21000
4341665;-0.20000
4344443;-0.18000
4347221;-0.17000
4349999;-0.15500
4352777;-0.16000
4355554;-0.16000
4358332;-0.16000
4361110;-0.15500
4363888;-0.15500
4366665;-0.16000
4369443;-0.17000
4372221;-0.17000
4374999;-0.16000
4377777;-0.16500
4380554;-0.14000
4383332;-0.14500
4386110;-0.15000
4388888;-0.15000
4391665;-0.18500
4394443;-0.20500
4397221;-0.21500
4399999;-0.23000
4402777;-0.24000
4405554;-0.28000
4408332;-0.29000
4411110;-0.28500
4413888;-0.28500
4416665;-0.28500
4419443;-0.32000
4422221;-0.31000
4424999;-0.31000
4427777;-0.30000
4430554;-0.29500
4433332;-0.29500
4436110;-0.31000
4438888;-0.32500
4441665;-0.32000
4444443;-0.31500
4447221;-0.31500
4449999;-0.30000
4452777;-0.32000
4455554;-0.34000
4458332;-0.32500
4461110;-0.32500
4463888;-0.32000
4466665;-0.31500
4469443;-0.33000
4472221;-0.36000
4474999;-0.37500
4477777;-0.39500
4480554;-0.43000
4483332;-0.44500
4486110;-0.47500
4488888;-0.54000
4491665;-0.59000
4494443;-0.57500
4497221;-0.51000
4499999;-0.43500
4502777;-0.34500
4505554;-0.28500
4508332;-0.18000
4511110;-0.01500
4513888;0.22000
4516665;0.48500
4519443;0.68000
4522221;0.78000
4524999;0.80000
4527777;0.64000
4530554;0.30000
4533332;-0.12000
4536110;-0.41500
4538888;-0.52500
4541665;-0.51000
4544443;-0.44000
4547221;-0.39500
4549999;-0.38500
4552777;-0.40000
4555554;-0.41000
4558332;-0.39500
4561110;-0.38500
4563888;-0.37000
4566665;-0.38000
4569443;-0.39500
4572221;-0.40000
4574999;-0.39500
4577776;-0.39000
4580554;-0.39500
4583332;-0.40000
4586110;-0.39000
4588888;-0.41000
4591665;-0.40500
4594443;-0.40000
4597221;-0.38000
4599999;-0.37500
4602776;-0.39500
4605554;-0.40000
4608332;-0.40000
4611110;-0.39000
4613888;-0.38500
4616665;-0.38500
4619443;-0.40500
4622221;-0.41500
4624999;-0.40500
4627776;-0.39500
4630554;-0.38500
4633332;-0.39500
4636110;-0.41000
4638888;-0.40500
4641665;-0.40000
4644443;-0.38500
4647221;-0.38500
4649999;-0.37000
4652776;-0.38500
4655554;-0.39000
4658332;-0.39000
4661110;-0.39500
4663888;-0.38000
4666665;-0.40000
4669443;-0.40000
4672221;-0.41500
4674999;-0.40000
4677776;-0.39500
4680554;-0.39000
4683332;-0.38500
4686110;-0.39000
4688888;-0.40500
4691665;-0.39000
4694443;-0.39000
4697221;-0.39000
4699999;-0.38000
4702776;-0.38500
4705554;-0.39500
4708332;-0.38500
4711110;-0.38500
4713888;-0.38500
4716665;-0.38000
4719443;-0.38500
4722221;-0.39000
4724999;-0.39000
4727776;-0.37500
4730554;-0.37500
4733332;-0.38500
4736110;-0.38500
4738888;-0.40500
4741665;-0.40500
4744443;-0.40500
4747221;-0.39500
4749999;-0.39500
4752776;-0.40000
4755554;-0.41000
4758332;-0.39500
4761110;-0.39500
4763888;-0.37500
4766665;-0.38500
4769443;-0.39000
4772221;-0.39000
4774999;-0.38500
4777776;-0.37000
4780554;-0.35000
4783332;-0.35500
4786110;-0.34500
4788888;-0.36000
4791665;-0.34000
4794443;-0.32500
4797221;-0.31500
4799999;-0.31000
4802776;-0.31000
4805554;-0.31000
4808332;-0.30000
4811110;-0.28500
4813888;-0.26500
4816665;-0.27000
4819443;-0.27000
4822221;-0.29000
4824999;-0.29000
4827776;-0.29000
4830554;-0.27500
4833332;-0.27000
4836110;-0.27000
4838888;-0.29000
4841665;-0.28500
4844443;-0.28000
4847221;-0.27000
4849999;-0.27000
4852776;-0.28500
4855554;-0.30500
4858332;-0.28000
4861110;-0.28000
4863888;-0.27500
4866665;-0.28000
4869443;-0.28000
4872221;-0.29500
4874999;-0.30000
4877776;-0.29000
4880554;-0.29000
4883332;-0.29000
4886110;-0.30000
4888888;-0.30500
4891665;-0.29500
4894443;-0.30000
4897221;-0.28500
4899999;-0.29500
4902776;-0.30500
4905554;-0.32000
4908332;-0.31500
4911110;-0.29500
4913888;-0.29500
4916665;-0.29000
4919443;-0.30000
4922221;-0.30500
4924999;-0.30500
4927776;-0.30500
4930554;-0.30000
4933332;-0.30500
4936110;-0.31500
4938888;-0.32500
4941665;-0.34000
4944443;-0.32500
4947221;-0.32000
4949999;-0.33000
4952776;-0.33500
4955554;-0.35500
4958332;-0.34000
4961110;-0.34000
4963887;-0.32500
4966665;-0.31500
4969443;-0.32500
4972221;-0.33000
4974999;-0.33000
4977776;-0.32000
4980554;-0.31500
4983332;-0.31500
4986110;-0.32000
4988887;-0.33500
4991665;-0.32000
4994443;-0.31500
4997221;-0.32000
4999999;-0.31500
5002776;-0.33500
5005554;-0.33500
5008332;-0.32500
5011110;-0.33000
5013887;-0.33500
5016665;-0.32500
5019443;-0.33000
5022221;-0.34000
5024999;-0.34000
5027776;-0.33500
5030554;-0.31500
5033332;-0.32000
5036110;-0.32500
5038887;-0.34000
5041665;-0.33500
5044443;-0.32500
5047221;-0.31000
5049999;-0.30000
5052776;-0.32000
5055554;-0.33000
5058332;-0.33000
5061110;-0.31000
5063887;-0.30500
5066665;-0.30000
5069443;-0.30500
5072221;-0.31000
5074999;-0.30500
5077776;-0.29000
5080554;-0.28000
5083332;-0.27000
5086110;-0.26500
5088887;-0.26500
5091665;-0.25500
5094443;-0.25500
5097221;-0.24500
5099999;-0.24000
5102776;-0.24000
5105554;-0.23500
5108332;-0.23000
5111110;-0.21000
5113887;-0.19000
5116665;-0.20000
5119443;-0.19000
5122221;-0.20500
5124999;-0.20500
5127776;-0.20000
5130554;-0.20500
5133332;-0.21500
5136110;-0.22000
5138887;-0.21500
5141665;-0.20500
5144443;-0.18500
5147221;-0.19500
5149999;-0.19000
5152776;-0.18500
5155554;-0.19000
5158332;-0.20000
5161110;-0.22000
5163887;-0.24000
5166665;-0.25500
5169443;-0.27000
5172221;-0.29500
5174999;-0.31000
5177776;-0.32000
5180554;-0.33000
5183332;-0.32000
5186110;-0.33000
5188887;-0.35000
5191665;-0.34000
5194443;-0.32500
5197221;-0.33500
5199999;-0.32500
5202776;-0.34000
5205554;-0.34500
5208332;-0.35500
5211110;-0.35000
5213887;-0.34500
5216665;-0.34500
5219443;-0.35500
5222221;-0.37500
5224999;-0.37000
5227776;-0.36000
5230554;-0.34000
5233332;-0.35500
5236110;-0.36500
5238887;-0.37500
5241665;-0.38500
5244443;-0.38000
5247221;-0.38500
5249999;-0.42500
5252776;-0.46000
5255554;-0.50000
5258332;-0.51000
5261110;-0.53500
5263887;-0.57000
5266665;-0.54000
5269443;-0.44000
5272221;-0.34000
5274999;-0.21000
5277776;-0.02500
5280554;0.20500
5283332;0.48000
5286110;0.71000
5288887;0.86500
5291665;0.97500
5294443;1.03000
5297221;1.00500
5299999;0.89000
5302776;0.68500
5305554;0.42500
5308332;0.14000
5311110;-0.10000
5313887;-0.27500
5316665;-0.42500
5319443;-0.52000
5322221;-0.55500
5324999;-0.53000
5327776;-0.46500
5330554;-0.41500
5333332;-0.41500
5336110;-0.42500
5338887;-0.42500
5341665;-0.42000
5344443;-0.42000
5347221;-0.39500
5349999;-0.41500
5352776;-0.41000
5355554;-0.42500
5358332;-0.42000
5361110;-0.41000
5363887;-0.41000
5366665;-0.40500
5369443;-0.41000
5372221;-0.42500
5374998;-0.42500
5377776;-0.41500
5380554;-0.40000
5383332;-0.41500
5386110;-0.42500
5388887;-0.43500
5391665;-0.43500
5394443;-0.42500
5397221;-0.42500
5399998;-0.42500
5402776;-0.43000
5405554;-0.44500
5408332;-0.44000
5411110;-0.43500
5413887;-0.43000
5416665;-0.43000
5419443;-0.44000
5422221;-0.43500
5424998;-0.45000
5427776;-0.44500
5430554;-0.42500
5433332;-0.42000
5436110;-0.43000
5438887;-0.43500
5441665;-0.43000
5444443;-0.42500
5447221;-0.41500
5449998;-0.42000
5452776;-0.42000
5455554;-0.45000
5458332;-0.44000
5461110;-0.43500
5463887;-0.42500
5466665;-0.42000
5469443;-0.43500
5472221;-0.44000
5474998;-0.44000
5477776;-0.42000
5480554;-0.42500
5483332;-0.42500
5486110;-0.42000
5488887;-0.43000
5491665;-0.42500
5494443;-0.42500
5497221;-0.41500
5499998;-0.41500
5502776;-0.42000
5505554;-0.43500
5508332;-0.44000
5511110;-0.43000
5513887;-0.41500
5516665;-0.41500
5519443;-0.42500
5522221;-0.44000
5524998;-0.45000
5527776;-0.44500
5530554;-0.43500
5533332;-0.43500
5536110;-0.44500
5538887;-0.46500
5541665;-0.46500
5544443;-0.47000
5547221;-0.45500
5549998;-0.46500
5552776;-0.47500
5555554;-0.48500
5558332;-0.48000
5561110;-0.46000
5563887;-0.46000
5566665;-0.45500
5569443;-0.46000
5572221;-0.45000
5574998;-0.43500
5577776;-0.42000
5580554;-0.40000
5583332;-0.39000
5586110;-0.39500
5588887;-0.38000
5591665;-0.36000
5594443;-0.34500
5597221;-0.32500
5599998;-0.32500
5602776;-0.32000
5605554;-0.32000
5608332;-0.32500
5611110;-0.31000
5613887;-0.29000
5616665;-0.30000
5619443;-0.31500
5622221;-0.31000
5624998;-0.30500
5627776;-0.30000
5630554;-0.29000
5633332;-0.28500
5636110;-0.30000
5638887;-0.31500
5641665;-0.29500
5644443;-0.29000
5647221;-0.28000
5649998;-0.27500
5652776;-0.28500
5655554;-0.29500
5658332;-0.29500
5661110;-0.29500
5663887;-0.27500
5666665;-0.28000
5669443;-0.28500
5672221;-0.30000
5674998;-0.29500
5677776;-0.29000
5680554;-0.29000
5683332;-0.30000
5686110;-0.31000
5688887;-0.30500
5691665;-0.30500
5694443;-0.30500
5697221;-0.29500
5699998;-0.30000
5702776;-0.30500
5705554;-0.30500
5708332;-0.32000
5711110;-0.32000
5713887;-0.31000
5716665;-0.31500
5719443;-0.32000
5722221;-0.33000
5724998;-0.33500
5727776;-0.32000
5730554;-0.30500
5733332;-0.32000
5736110;-0.32500
5738887;-0.33000
5741665;-0.33500
5744443;-0.33000
5747221;-0.31000
5749998;-0.31500
5752776;-0.33000
5755554;-0.32500
5758332;-0.33500
5761109;-0.33000
5763887;-0.32500
5766665;-0.32500
5769443;-0.33500
5772221;-0.35500
5774998;-0.33500
5777776;-0.32000
5780554;-0.31500
5783332;-0.32000
5786109;-0.33500
5788887;-0.33500
5791665;-0.33500
5794443;-0.32000
5797221;-0.33000
5799998;-0.32500
5802776;-0.34000
5805554;-0.34500
5808332;-0.34000
5811109;-0.33000
5813887;-0.32000
5816665;-0.32500
5819443;-0.33000
5822221;-0.33500
5824998;-0.32500
5827776;-0.32500
5830554;-0.32000
5833332;-0.32500
5836109;-0.33000
5838887;-0.34500
5841665;-0.35000
5844443;-0.33000
5847221;-0.32000
5849998;-0.32500
5852776;-0.32500
5855554;-0.34000
5858332;-0.33000
5861109;-0.33000
5863887;-0.31000
5866665;-0.30500
5869443;-0.31000
5872221;-0.32500
5874998;-0.31500
5877776;-0.31500
5880554;-0.30000
5883332;-0.29000
5886109;-0.29500
5888887;-0.28500
5891665;-0.28000
5894443;-0.26500
5897221;-0.25500
5899998;-0.26000
5902776;-0.24000
5905554;-0.25000
5908332;-0.25000
5911109;-0.24000
5913887;-0.21500
5916665;-0.21500
5919443;-0.21000
5922221;-0.21000
5924998;-0.19500
5927776;-0.19000
5930554;-0.17500
5933332;-0.19500
5936109;-0.20500
5938887;-0.21500
5941665;-0.22000
5944443;-0.19500
5947221;-0.18000
5949998;-0.20000
5952776;-0.19500
5955554;-0.20000
5958332;-0.17500
5961109;-0.17500
5963887;-0.18500
5966665;-0.22000
5969443;-0.26500
5972221;-0.26000
5974998;-0.27500
5977776;-0.29000
5980554;-0.28500
5983332;-0.30500
5986109;-0.31000
5988887;-0.33500
5991665;-0.34000
5994443;-0.33000
5997221;-0.30500
5999998;-0.32500
6002776;-0.33000
6005554;-0.34000
6008332;-0.33500
6011109;-0.32000
6013887;-0.30500
6016665;-0.32000
6019443;-0.32000
6022221;-0.34500
6024998;-0.35000
6027776;-0.33000
6030554;-0.32500
6033332;-0.33000
6036109;-0.34000
6038887;-0.34500
6041665;-0.36000
6044443;-0.35000
6047221;-0.34500
6049998;-0.35000
6052776;-0.35000
6055554;-0.36500
6058332;-0.37000
6061109;-0.36000
6063887;-0.36000
6066665;-0.37000
6069443;-0.40000
6072221;-0.44000
6074998;-0.46500
6077776;-0.48500
6080554;-0.49000
6083332;-0.53500
6086109;-0.57000
6088887;-0.55000
6091665;-0.47000
6094443;-0.36000
6097221;-0.23000
6099998;-0.09500
6102776;0.11500
6105554;0.36000
6108332;0.60500
6111109;0.77000
6113887;0.81000
6116665;0.67500
6119443;0.38000
6122221;0.02000
6124998;-0.30500
6127776;-0.47500
6130554;-0.52500
6133332;-0.49500
6136109;-0.45000
6138887;-0.42000
6141665;-0.43000
6144443;-0.41000
6147221;-0.39500
6149998;-0.41000
6152776;-0.40500
6155554;-0.40500
6158332;-0.41000
6161109;-0.40000
6163887;-0.40000
6166665;-0.40000
6169443;-0.40000
6172220;-0.39500
6174998;-0.40500
6177776;-0.40000
6180554;-0.38000
6183332;-0.38000
6186109;-0.39000
6188887;-0.38500
6191665;-0.40500
6194443;-0.39500
6197220;-0.39000
6199998;-0.40000
6202776;-0.39500
6205554;-0.40500
6208332;-0.40500
6211109;-0.40500
6213887;-0.39500
6216665;-0.39500
6219443;-0.40500
6222220;-0.40500
6224998;-0.40000
6227776;-0.39500
6230554;-0.38500
6233332;-0.40500
6236109;-0.38500
6238887;-0.41000
6241665;-0.41500
6244443;-0.40000
6247220;-0.38000
6249998;-0.39500
6252776;-0.40000
6255554;-0.41000
6258332;-0.41500
6261109;-0.38500
6263887;-0.38000
6266665;-0.38500
6269443;-0.39000
6272220;-0.38500
6274998;-0.40000
6277776;-0.39500
6280554;-0.38000
6283332;-0.38000
6286109;-0.39000
6288887;-0.40000
6291665;-0.40000
6294443;-0.39500
6297220;-0.38000
6299998;-0.38000
6302776;-0.39000
6305554;-0.38500
6308332;-0.38500
6311109;-0.37500
6313887;-0.37000
6316665;-0.37500
6319443;-0.38000
6322220;-0.38500
6324998;-0.39000
6327776;-0.39000
6330554;-0.38500
6333332;-0.39000
6336109;-0.40000
6338887;-0.40000
6341665;-0.40500
6344443;-0.39500
6347220;-0.39000
6349998;-0.38500
6352776;-0.38500
6355554;-0.40500
6358332;-0.41000
6361109;-0.40000
6363887;-0.40000
6366665;-0.40000
6369443;-0.40000
6372220;-0.40500
6374998;-0.40000
6377776;-0.39500
6380554;-0.40500
6383332;-0.40000
6386109;-0.39500
6388887;-0.40000
6391665;-0.39000
6394443;-0.38000
6397220;-0.36500
6399998;-0.36500
6402776;-0.35000
6405554;-0.35500
6408332;-0.35000
6411109;-0.32500
6413887;-0.31500
6416665;-0.32000
6419443;-0.30500
6422220;-0.31500
6424998;-0.29500
6427776;-0.29500
6430554;-0.27500
6433332;-0.27500
6436109;-0.29000
6438887;-0.29000
6441665;-0.29000
6444443;-0.27500
6447220;-0.26500
6449998;-0.26500
6452776;-0.27500
6455554;-0.28000
6458332;-0.29000
6461109;-0.27000
6463887;-0.26500
6466665;-0.27000
6469443;-0.27500
6472220;-0.27500
6474998;-0.27500
6477776;-0.26500
6480554;-0.25500
6483332;-0.27500
6486109;-0.28000
6488887;-0.28500
6491665;-0.28000
6494443;-0.27500
6497220;-0.27500
6499998;-0.27000
6502776;-0.29000
6505554;-0.30500
6508332;-0.30000
6511109;-0.29000
6513887;-0.28000
6516665;-0.28000
6519443;-0.28000
6522220;-0.29500
6524998;-0.29500
6527776;-0.29000
6530554;-0.27500
6533332;-0.28000
6536109;-0.28500
6538887;-0.30000
6541665;-0.29500
6544443;-0.28500
6547220;-0.30000
6549998;-0.28000
6552776;-0.30500
6555554;-0.31500
6558331;-0.32000
6561109;-0.31500
6563887;-0.30000
6566665;-0.31000
6569443;-0.31500
6572220;-0.32000
6574998;-0.33000
6577776;-0.32000
6580554;-0.30500
6583331;-0.31000
6586109;-0.31500
6588887;-0.33000
6591665;-0.33000
6594443;-0.32500
6597220;-0.31000
6599998;-0.30000
6602776;-0.32000
6605554;-0.32000
6608331;-0.31500
6611109;-0.31000
6613887;-0.32000
6616665;-0.30500
6619443;-0.30000
6622220;-0.31500
6624998;-0.31500
6627776;-0.30500
6630554;-0.29000
6633331;-0.30500
6636109;-0.31000
6638887;-0.31500
6641665;-0.32000
6644443;-0.30000
6647220;-0.28500
6649998;-0.30000
6652776;-0.30000
6655554;-0.31500
6658331;-0.31000
6661109;-0.30500
6663887;-0.30000
6666665;-0.30000
6669443;-0.30000
6672220;-0.30500
6674998;-0.31000
6677776;-0.30000
6680554;-0.29500
6683331;-0.27500
6686109;-0.28000
6688887;-0.27500
6691665;-0.27000
6694443;-0.26000
6697220;-0.26000
6699998;-0.25500
6702776;-0.26500
6705554;-0.27000
6708331;-0.27000
6711109;-0.25000
6713887;-0.22500
6716665;-0.21500
6719443;-0.23000
6722220;-0.23500
6724998;-0.22500
6727776;-0.22000
6730554;-0.19500
6733331;-0.19000
6736109;-0.19000
6738887;-0.19000
6741665;-0.19000
6744443;-0.17000
6747220;-0.15500
6749998;-0.16500
6752776;-0.17500
6755554;-0.19500
6758331;-0.20000
6761109;-0.18000
6763887;-0.17500
6766665;-0.17000
6769443;-0.17500
6772220;-0.17000
6774998;-0.16500
6777776;-0.15500
6780554;-0.16500
6783331;-0.20000
6786109;-0.23000
6788887;-0.25000
6791665;-0.26500
6794443;-0.28000
6797220;-0.27500
6799998;-0.29500
6802776;-0.31000
6805554;-0.34000
6808331;-0.33500
6811109;-0.31500
6813887;-0.30500
6816665;-0.30500
6819443;-0.30500
6822220;-0.32000
6824998;-0.33000
6827776;-0.32000
6830554;-0.31500
6833331;-0.33000
6836109;-0.32500
6838887;-0.34000
6841665;-0.36000
6844443;-0.34000
6847220;-0.32500
6849998;-0.33000
6852776;-0.33500
6855554;-0.34500
6858331;-0.35500
6861109;-0.35000
6863887;-0.33500
6866665;-0.34500
6869443;-0.35500
6872220;-0.39000
6874998;-0.43000
6877776;-0.45500
6880554;-0.46000
6883331;-0.49500
6886109;-0.54000
6888887;-0.59000
6891665;-0.59500
6894443;-0.53500
6897220;-0.44500
6899998;-0.38000
6902776;-0.34000
6905554;-0.30500
6908331;-0.25500
6911109;-0.17000
6913887;-0.06500
6916665;0.09500
6919443;0.29500
6922220;0.50000
6924998;0.68500
6927776;0.80000
6930554;0.82000
6933331;0.67000
6936109;0.33500
6938887;-0.05000
6941665;-0.36000
6944442;-0.50500
6947220;-0.49000
6949998;-0.44000
6952776;-0.39500
6955554;-0.38500
6958331;-0.39500
6961109;-0.38500
6963887;-0.37500
6966665;-0.37000
6969442;-0.38500
6972220;-0.39500
6974998;-0.39000
6977776;-0.37500
6980554;-0.36500
6983331;-0.37500
6986109;-0.37500
6988887;-0.36500
6991665;-0.38000
6994442;-0.37500
6997220;-0.36500
6999998;-0.37000
7002776;-0.36500
7005554;-0.38000
7008331;-0.38000
7011109;-0.37500
7013887;-0.37000
7016665;-0.37000
7019442;-0.37000
7022220;-0.38500
7024998;-0.38500
7027776;-0.37500
7030554;-0.37500
7033331;-0.38000
7036109;-0.39000
7038887;-0.39000
7041665;-0.39500
7044442;-0.38000
7047220;-0.38000
7049998;-0.37000
7052776;-0.37500
7055554;-0.38500
7058331;-0.38500
7061109;-0.37000
7063887;-0.36000
7066665;-0.36000
7069442;-0.36500
7072220;-0.36500
7074998;-0.38000
7077776;-0.35500
7080554;-0.36000
7083331;-0.34500
7086109;-0.36000
7088887;-0.37000
7091665;-0.37000
7094442;-0.37500
7097220;-0.35500
7099998;-0.35500
7102776;-0.36000
7105554;-0.37000
7108331;-0.37000
7111109;-0.36000
7113887;-0.35500
7116665;-0.36000
7119442;-0.37000
7122220;-0.37500
7124998;-0.37500
7127776;-0.37000
7130554;-0.35000
7133331;-0.35500
7136109;-0.35500
7138887;-0.36000
7141665;-0.37500
7144442;-0.35500
7147220;-0.34500
7149998;-0.34500
7152776;-0.35000
7155554;-0.35500
7158331;-0.35000
7161109;-0.35000
7163887;-0.34500
7166665;-0.36000
7169442;-0.36000
7172220;-0.37000
7174998;-0.38500
7177776;-0.37500
7180554;-0.35500
7183331;-0.36500
7186109;-0.35500
7188887;-0.36500
7191665;-0.37500
7194442;-0.35500
7197220;-0.34000
7199998;-0.36000
7202776;-0.36500
7205554;-0.35500
7208331;-0.34500
7211109;-0.33500
7213887;-0.31000
7216665;-0.30000
7219442;-0.29500
7222220;-0.29500
7224998;-0.29000
7227776;-0.27000
7230554;-0.25500
7233331;-0.25000
7236109;-0.24500
7238887;-0.25500
7241665;-0.24500
7244442;-0.24500
7247220;-0.23500
7249998;-0.23500
7252776;-0.24000
7255554;-0.25000
7258331;-0.25000
7261109;-0.25000
7263887;-0.24000
7266665;-0.23500
7269442;-0.25000
7272220;-0.25500
7274998;-0.25000
7277776;-0.24500
7280554;-0.23500
7283331;-0.24000
7286109;-0.25000
7288887;-0.26000
7291665;-0.26000
7294442;-0.26500
7297220;-0.25000
7299998;-0.25000
7302776;-0.25500
7305554;-0.26500
7308331;-0.26500
7311109;-0.25500
7313887;-0.24500
7316665;-0.24000
7319442;-0.24500
7322220;-0.24500
7324998;-0.25000
7327776;-0.24000
7330554;-0.23000
7333331;-0.23500
7336109;-0.23500
7338887;-0.24500
7341665;-0.24500
7344442;-0.23000
7347220;-0.21500
7349998;-0.21000
7352776;-0.20000
7355553;-0.19500
7358331;-0.20000
7361109;-0.19000
7363887;-0.18000
7366665;-0.19500
7369442;-0.18000
7372220;-0.19500
7374998;-0.21000
7377776;-0.20500
7380553;-0.19000
7383331;-0.17500
7386109;-0.16500
7388887;-0.17500
7391665;-0.18000
7394442;-0.18000
7397220;-0.18000
7399998;-0.19000
7402776;-0.19500
7405553;-0.23000
7408331;-0.24500
7411109;-0.25000
7413887;-0.26000
7416665;-0.26500
7419442;-0.27500
7422220;-0.29000
7424998;-0.30000
7427776;-0.29500
7430553;-0.29500
7433331;-0.30500
7436109;-0.31500
7438887;-0.33000
7441665;-0.33500
7444442;-0.33000
7447220;-0.32000
7449998;-0.32500
7452776;-0.33500
7455553;-0.34000
7458331;-0.33500
7461109;-0.33000
7463887;-0.31000
7466665;-0.32000
7469442;-0.32500
7472220;-0.32500
7474998;-0.33000
7477776;-0.32000
7480553;-0.30500
7483331;-0.30500
7486109;-0.32000
7488887;-0.33000
7491665;-0.33000
7494442;-0.32500
7497220;-0.31000
7499998;-0.33000
7502776;-0.36500
7505553;-0.40000
7508331;-0.44500
7511109;-0.44000
7513887;-0.44000
7516665;-0.46500
7519442;-0.53000
7522220;-0.57500
7524998;-0.58000
7527776;-0.52500
7530553;-0.41500
7533331;-0.27500
7536109;-0.12000
7538887;0.04000
7541665;0.27000
7544442;0.53500
7547220;0.73500
7549998;0.84000
7552776;0.80000
7555553;0.60000
7558331;0.25500
7561109;-0.12000
7563887;-0.38000
7566665;-0.46500
7569442;-0.45500
7572220;-0.41000
7574998;-0.38000
7577776;-0.37000
7580553;-0.35500
7583331;-0.36000
7586109;-0.34500
7588887;-0.34500
7591665;-0.34500
7594442;-0.35000
7597220;-0.34500
7599998;-0.34500
7602776;-0.34500
7605553;-0.36000
7608331;-0.35500
7611109;-0.34500
7613887;-0.32500
7616665;-0.33500
7619442;-0.34000
7622220;-0.35500
7624998;-0.35500
7627776;-0.33500
7630553;-0.33000
7633331;-0.34000
7636109;-0.34000
7638887;-0.36000
7641665;-0.36500
7644442;-0.35500
7647220;-0.34000
7649998;-0.35000
7652776;-0.36500
7655553;-0.36000
7658331;-0.36500
7661109;-0.35500
7663887;-0.35000
7666665;-0.35000
7669442;-0.35500
7672220;-0.35500
7674998;-0.35000
7677776;-0.34500
7680553;-0.34500
7683331;-0.34000
7686109;-0.34500
7688887;-0.35500
7691665;-0.35000
7694442;-0.35500
7697220;-0.34500
7699998;-0.34000
7702776;-0.34000
7705553;-0.35000
7708331;-0.35500
7711109;-0.33000
7713887;-0.33000
7716665;-0.33500
7719442;-0.34500
7722220;-0.35000
7724998;-0.35000
7727776;-0.35000
7730553;-0.33500
7733331;-0.34500
7736109;-0.35500
7738887;-0.36500
7741664;-0.36000
7744442;-0.34000
7747220;-0.33500
7749998;-0.33500
7752776;-0.34000
7755553;-0.35000
7758331;-0.36000
7761109;-0.34000
7763887;-0.34000
7766664;-0.33000
7769442;-0.35000
7772220;-0.34500
7774998;-0.36000
7777776;-0.35500
7780553;-0.34500
7783331;-0.36500
7786109;-0.36500
7788887;-0.38000
7791664;-0.38000
7794442;-0.38000
7797220;-0.36500
7799998;-0.36000
7802776;-0.36500
7805553;-0.38000
7808331;-0.38500
7811109;-0.37000
7813887;-0.34000
7816664;-0.34500
7819442;-0.33000
7822220;-0.33500
7824998;-0.34000
7827776;-0.31500
7830553;-0.30500
7833331;-0.29500
7836109;-0.30000
7838887;-0.30500
7841664;-0.31000
7844442;-0.28000
7847220;-0.28000
7849998;-0.26500
7852776;-0.26000
7855553;-0.26000
7858331;-0.26500
7861109;-0.26000
7863887;-0.25500
7866664;-0.25000
7869442;-0.25500
7872220;-0.26500
7874998;-0.26000
7877776;-0.25500
7880553;-0.25000
7883331;-0.25000
7886109;-0.26000
7888887;-0.27000
7891664;-0.27500
7894442;-0.27000
7897220;-0.26000
7899998;-0.26000
7902776;-0.26000
7905553;-0.26500
7908331;-0.26500
7911109;-0.25500
7913887;-0.23500
7916664;-0.25500
7919442;-0.24500
7922220;-0.25500
7924998;-0.27000
7927776;-0.25500
7930553;-0.25000
7933331;-0.26000
7936109;-0.26500
7938887;-0.28500
7941664;-0.29000
7944442;-0.27500
7947220;-0.27000
7949998;-0.27000
7952776;-0.28500
7955553;-0.29000
7958331;-0.31000
7961109;-0.30000
7963887;-0.28000
7966664;-0.28500
7969442;-0.28000
7972220;-0.30000
7974998;-0.30500
7977776;-0.30000
7980553;-0.28500
7983331;-0.29000
7986109;-0.28500
7988887;-0.30000
7991664;-0.29500
7994442;-0.29000
7997220;-0.29000
7999998;-0.28000
8002776;-0.30000
8005553;-0.31000
8008331;-0.31500
8011109;-0.31000
8013887;-0.31000
8016664;-0.30500
8019442;-0.31000
8022220;-0.32500
8024998;-0.31500
8027776;-0.30000
8030553;-0.30000
8033331;-0.29500
8036109;-0.29500
8038887;-0.30500
8041664;-0.30500
8044442;-0.29500
8047220;-0.30000
8049998;-0.29500
8052776;-0.30500
8055553;-0.32000
8058331;-0.32000
8061109;-0.31000
8063887;-0.30000
8066664;-0.30000
8069442;-0.29000
8072220;-0.29500
8074998;-0.31000
8077776;-0.29500
8080553;-0.29000
8083331;-0.29000
8086109;-0.29500
8088887;-0.30000
8091664;-0.30500
8094442;-0.30500
8097220;-0.29500
8099998;-0.29500
8102776;-0.30000
8105553;-0.31000
8108331;-0.32000
8111109;-0.30000
8113887;-0.29000
8116664;-0.29000
8119442;-0.30000
8122220;-0.31000
8124998;-0.31000
8127776;-0.30500
8130553;-0.29000
8133331;-0.27500
8136109;-0.29500
8138887;-0.30000
8141664;-0.30500
8144442;-0.29500
8147220;-0.29500
8149998;-0.30000
8152775;-0.31500
8155553;-0.31000
8158331;-0.32000
8161109;-0.31000
8163887;-0.30500
8166664;-0.29500
8169442;-0.30000
8172220;-0.29000
8174998;-0.30000
8177775;-0.29500
8180553;-0.29000
8183331;-0.28000
8186109;-0.29500
8188887;-0.29000
8191664;-0.30000
8194442;-0.31000
8197220;-0.31500
8199998;-0.28500
8202775;-0.30000
8205553;-0.30500
8208331;-0.31500
8211109;-0.30500
8213887;-0.29500
8216664;-0.29500
8219442;-0.30000
8222220;-0.31500
8224998;-0.31500
8227775;-0.31000
8230553;-0.30500
8233331;-0.30500
8236109;-0.30500
8238887;-0.30500
8241664;-0.31500
8244442;-0.31000
8247220;-0.30000
8249998;-0.30500
8252775;-0.29500
8255553;-0.30500
8258331;-0.30000
8261109;-0.29500
8263887;-0.28000
8266664;-0.28000
8269442;-0.28500
8272220;-0.28500
8274998;-0.28000
8277775;-0.28000
8280553;-0.29000
8283331;-0.29000
8286109;-0.30500
8288887;-0.31500
8291664;-0.31000
8294442;-0.29500
8297220;-0.28500
8299998;-0.29500
8302775;-0.30500
8305553;-0.31000
8308331;-0.31500
8311109;-0.30500
8313887;-0.29500
8316664;-0.28500
8319442;-0.26500
8322220;-0.26000
8324998;-0.25000
8327775;-0.23500
8330553;-0.23500
8333331;-0.22500
8336109;-0.23000
8338887;-0.23000
8341664;-0.23000
8344442;-0.22000
8347220;-0.22000
8349998;-0.21000
8352775;-0.20500
8355553;-0.21000
8358331;-0.22500
8361109;-0.21000
8363887;-0.21000
8366664;-0.22000
8369442;-0.21500
8372220;-0.23500
8374998;-0.24000
8377775;-0.23500
8380553;-0.24000
8383331;-0.23500
8386109;-0.23500
8388887;-0.23000
8391664;-0.23000
8394442;-0.23000
8397220;-0.24000
8399998;-0.25500
8402775;-0.26500
8405553;-0.29500
8408331;-0.31000
8411109;-0.32000
8413887;-0.32000
8416664;-0.32500
8419442;-0.34000
8422220;-0.34500
8424998;-0.35000
8427775;-0.33500
8430553;-0.33000
8433331;-0.33500
8436109;-0.34000
8438887;-0.34500
8441664;-0.35500
8444442;-0.35000
8447220;-0.35500
8449998;-0.34500
8452775;-0.35500
8455553;-0.36500
8458331;-0.37000
8461109;-0.35500
8463887;-0.34000
8466664;-0.34500
8469442;-0.36000
8472220;-0.37000
8474998;-0.37500
8477775;-0.37000
8480553;-0.34500
8483331;-0.34500
8486109;-0.34000
8488887;-0.36000
8491664;-0.37000
8494442;-0.39500
8497220;-0.42000
8499998;-0.44000
8502775;-0.47000
8505553;-0.51000
8508331;-0.55500
8511109;-0.56500
8513887;-0.51500
8516664;-0.41000
8519442;-0.30000
8522220;-0.16500
8524998;0.01000
8527775;0.25500
8530553;0.50500
8533331;0.71500
8536109;0.84000
8538886;0.83000
8541664;0.63000
8544442;0.30500
8547220;-0.04500
8549998;-0.32500
8552775;-0.48500
8555553;-0.53000
8558331;-0.51000
8561109;-0.45000
8563886;-0.40500
8566664;-0.41000
8569442;-0.40500
8572220;-0.40500
8574998;-0.40500
8577775;-0.40000
8580553;-0.39000
8583331;-0.39000
8586109;-0.41000
8588886;-0.40000
8591664;-0.40500
8594442;-0.41500
8597220;-0.40500
8599998;-0.40500
8602775;-0.42500
8605553;-0.43500
8608331;-0.43000
8611109;-0.42500
8613886;-0.42000
8616664;-0.42000
8619442;-0.42000
8622220;-0.43000
8624998;-0.43000
8627775;-0.42000
8630553;-0.42000
8633331;-0.41500
8636109;-0.42000
8638886;-0.42000
8641664;-0.42500
8644442;-0.41000
8647220;-0.40000
8649998;-0.39500
8652775;-0.40500
8655553;-0.42500
8658331;-0.43000
8661109;-0.42500
8663886;-0.41500
8666664;-0.41500
8669442;-0.42500
8672220;-0.42000
8674998;-0.43500
8677775;-0.42000
8680553;-0.42500
8683331;-0.42000
8686109;-0.43000
8688886;-0.41500
8691664;-0.44500
8694442;-0.43000
8697220;-0.41500
8699998;-0.42500
8702775;-0.42500
8705553;-0.43000
8708331;-0.43000
8711109;-0.42500
8713886;-0.42000
8716664;-0.41500
8719442;-0.41000
8722220;-0.42000
8724998;-0.42000
8727775;-0.41500
8730553;-0.40500
8733331;-0.39500
8736109;-0.40500
8738886;-0.41500
8741664;-0.42000
8744442;-0.41000
8747220;-0.40000
8749998;-0.40000
8752775;-0.40500
8755553;-0.42000
8758331;-0.42500
8761109;-0.42000
8763886;-0.41500
8766664;-0.41500
8769442;-0.42000
8772220;-0.43500
8774998;-0.44000
8777775;-0.45000
8780553;-0.43500
8783331;-0.43500
8786109;-0.44000
8788886;-0.45000
8791664;-0.46500
8794442;-0.46500
8797220;-0.45500
8799998;-0.46000
8802775;-0.46500
8805553;-0.47500
8808331;-0.47000
8811109;-0.45500
8813886;-0.43500
8816664;-0.43500
8819442;-0.44500
8822220;-0.43500
8824998;-0.44000
8827775;-0.43000
8830553;-0.40500
8833331;-0.38500
8836109;-0.38500
8838886;-0.38500
8841664;-0.38000
8844442;-0.37000
8847220;-0.36000
8849998;-0.35500
8852775;-0.34500
8855553;-0.35000
8858331;-0.35000
8861109;-0.33000
8863886;-0.31000
8866664;-0.30000
8869442;-0.28500
8872220;-0.29500
8874998;-0.30000
8877775;-0.29000
8880553;-0.27000
8883331;-0.26000
8886109;-0.26000
8888886;-0.27500
8891664;-0.28000
8894442;-0.28500
8897220;-0.28500
8899998;-0.27000
8902775;-0.27000
8905553;-0.28000
8908331;-0.28000
8911109;-0.27000
8913886;-0.26500
8916664;-0.26000
8919442;-0.28000
8922220;-0.27500
8924998;-0.28000
8927775;-0.27000
8930553;-0.26500
8933331;-0.27000
8936109;-0.27000
8938886;-0.27500
8941664;-0.28500
8944442;-0.28000
8947220;-0.27000
8949997;-0.26000
8952775;-0.26500
8955553;-0.27500
8958331;-0.28000
8961109;-0.25500
8963886;-0.26000
8966664;-0.26000
8969442;-0.28000
8972220;-0.28500
8974997;-0.28000
8977775;-0.28000
8980553;-0.27500
8983331;-0.27500
8986109;-0.27500
8988886;-0.28500
8991664;-0.29000
8994442;-0.28500
8997220;-0.27500
8999997;-0.28000
9002775;-0.29500
9005553;-0.30000
9008331;-0.31000
9011109;-0.29000
9013886;-0.28500
9016664;-0.28500
9019442;-0.29000
9022220;-0.30000
9024997;-0.30500
9027775;-0.29500
9030553;-0.28500
9033331;-0.27500
9036109;-0.28500
9038886;-0.29000
9041664;-0.30000
9044442;-0.29500
9047220;-0.29000
9049997;-0.28000
9052775;-0.28500
9055553;-0.30000
9058331;-0.30500
9061109;-0.30500
9063886;-0.30000
9066664;-0.28500
9069442;-0.28500
9072220;-0.30000
9074997;-0.30500
9077775;-0.30500
9080553;-0.29500
9083331;-0.28500
9086109;-0.28500
9088886;-0.29500
9091664;-0.30500
9094442;-0.31000
9097220;-0.28500
9099997;-0.28500
9102775;-0.29000
9105553;-0.29000
9108331;-0.30000
9111109;-0.30500
9113886;-0.29000
9116664;-0.28000
9119442;-0.28000
9122220;-0.29000
9124997;-0.30000
9127775;-0.28500
9130553;-0.28000
9133331;-0.28500
9136109;-0.29000
9138886;-0.29500
9141664;-0.30000
9144442;-0.29500
9147220;-0.27500
9149997;-0.26000
9152775;-0.24500
9155553;-0.24000
9158331;-0.24500
9161109;-0.25000
9163886;-0.23000
9166664;-0.21000
9169442;-0.20500
9172220;-0.20500
9174997;-0.20500
9177775;-0.19500
9180553;-0.18000
9183331;-0.17500
9186109;-0.17500
9188886;-0.16500
9191664;-0.17500
9194442;-0.17500
9197220;-0.17000
9199997;-0.17500
9202775;-0.19500
9205553;-0.20000
9208331;-0.21500
9211109;-0.20500
9213886;-0.19500
9216664;-0.19000
9219442;-0.21000
9222220;-0.21500
9224997;-0.21500
9227775;-0.19000
9230553;-0.16000
9233331;-0.16000
9236109;-0.20500
9238886;-0.23000
9241664;-0.24500
9244442;-0.26000
9247220;-0.26500
9249997;-0.27000
9252775;-0.28500
9255553;-0.29000
9258331;-0.30500
9261109;-0.30000
9263886;-0.28500
9266664;-0.30000
9269442;-0.31000
9272220;-0.31000
9274997;-0.32000
9277775;-0.31500
9280553;-0.31000
9283331;-0.31000
9286109;-0.32500
9288886;-0.31500
9291664;-0.33500
9294442;-0.33000
9297220;-0.33000
9299997;-0.32000
9302775;-0.32000
9305553;-0.31500
9308331;-0.32000
9311109;-0.31500
9313886;-0.33000
9316664;-0.36500
9319442;-0.40500
9322220;-0.45000
9324997;-0.47000
9327775;-0.50000
9330553;-0.54000
9333331;-0.52500
9336108;-0.45500
9338886;-0.35000
9341664;-0.22500
9344442;-0.09500
9347220;0.04500
9349997;0.24000
9352775;0.43000
9355553;0.57500
9358331;0.70000
9361108;0.83000
9363886;0.92500
9366664;0.96500
9369442;0.88000
9372220;0.63000
9374997;0.23500
9377775;-0.14000
9380553;-0.40500
9383331;-0.47500
9386108;-0.44500
9388886;-0.39000
9391664;-0.35500
9394442;-0.35000
9397220;-0.34500
9399997;-0.33500
9402775;-0.33500
9405553;-0.34500
9408331;-0.35000
9411108;-0.36000
9413886;-0.35500
9416664;-0.35500
9419442;-0.36000
9422220;-0.37000
9424997;-0.37500
9427775;-0.36500
9430553;-0.36000
9433331;-0.36000
9436108;-0.36000
9438886;-0.36500
9441664;-0.37500
9444442;-0.37000
9447220;-0.35000
9449997;-0.34500
9452775;-0.36000
9455553;-0.37500
9458331;-0.36000
9461108;-0.35000
9463886;-0.34500
9466664;-0.35500
9469442;-0.34500
9472220;-0.34000
9474997;-0.35500
9477775;-0.35000
9480553;-0.34000
9483331;-0.34000
9486108;-0.35000
9488886;-0.35500
9491664;-0.36500
9494442;-0.36500
9497220;-0.34500
9499997;-0.34500
9502775;-0.35000
9505553;-0.37000
9508331;-0.36500
9511108;-0.37000
9513886;-0.35500
9516664;-0.35000
9519442;-0.35500
9522220;-0.36500
9524997;-0.36000
9527775;-0.35000
9530553;-0.35000
9533331;-0.35000
9536108;-0.34500
9538886;-0.35000
9541664;-0.36000
9544442;-0.36000
9547220;-0.33500
9549997;-0.34500
9552775;-0.34500
9555553;-0.36500
9558331;-0.36500
9561108;-0.36500
9563886;-0.34500
9566664;-0.34000
9569442;-0.34000
9572220;-0.35500
9574997;-0.37000
9577775;-0.36000
9580553;-0.36500
9583331;-0.35000
9586108;-0.35500
9588886;-0.37000
9591664;-0.38000
9594442;-0.36000
9597220;-0.36000
9599997;-0.35500
9602775;-0.35500
9605553;-0.36500
9608331;-0.36000
9611108;-0.36500
9613886;-0.34000
9616664;-0.34000
9619442;-0.35000
9622220;-0.36000
9624997;-0.36000
9627775;-0.35000
9630553;-0.33500
9633331;-0.32000
9636108;-0.31500
9638886;-0.31000
9641664;-0.32000
9644442;-0.29000
9647220;-0.29000
9649997;-0.27500
9652775;-0.26000
9655553;-0.25500
9658331;-0.25500
9661108;-0.25000
9663886;-0.24500
9666664;-0.23000
9669442;-0.23000
9672220;-0.24000
9674997;-0.23500
9677775;-0.24000
9680553;-0.23000
9683331;-0.22000
9686108;-0.22500
9688886;-0.24500
9691664;-0.25000
9694442;-0.23500
9697220;-0.23000
9699997;-0.23500
9702775;-0.23000
9705553;-0.24000
9708331;-0.24500
9711108;-0.25000
9713886;-0.24000
9716664;-0.23500
9719442;-0.24500
9722220;-0.25500
9724997;-0.26500
9727775;-0.25500
9730553;-0.25000
9733331;-0.24000
9736108;-0.24000
9738886;-0.25500
9741664;-0.26000
9744442;-0.25000
9747219;-0.23500
9749997;-0.24000
9752775;-0.24500
9755553;-0.24500
9758331;-0.27000
9761108;-0.26000
9763886;-0.25500
9766664;-0.25000
9769442;-0.26500
9772219;-0.27500
9774997;-0.29000
9777775;-0.27000
9780553;-0.28500
9783331;-0.26500
9786108;-0.27000
9788886;-0.28500
9791664;-0.28500
9794442;-0.28000
9797219;-0.27000
9799997;-0.27500
9802775;-0.28000
9805553;-0.29000
9808331;-0.29000
9811108;-0.28500
9813886;-0.27000
9816664;-0.27500
9819442;-0.26500
9822219;-0.28500
9824997;-0.30000
9827775;-0.29000
9830553;-0.28500
9833331;-0.28500
9836108;-0.29000
9838886;-0.29000
9841664;-0.30500
9844442;-0.28500
9847219;-0.28500
9849997;-0.28000
9852775;-0.28500
9855553;-0.28500
9858331;-0.30000
9861108;-0.29000
9863886;-0.28000
9866664;-0.27500
9869442;-0.27500
9872219;-0.28500
9874997;-0.29500
9877775;-0.28000
9880553;-0.26000
9883331;-0.25500
9886108;-0.26500
9888886;-0.28500
9891664;-0.28000
9894442;-0.28000
9897219;-0.26500
9899997;-0.26500
9902775;-0.27000
9905553;-0.27500
9908331;-0.28500
9911108;-0.28000
9913886;-0.26000
9916664;-0.25500
9919442;-0.26500
9922219;-0.26000
9924997;-0.26500
9927775;-0.24000
9930553;-0.21000
9933331;-0.21000
9936108;-0.20000
9938886;-0.21500
9941664;-0.22500
9944442;-0.21000
9947219;-0.18000
9949997;-0.17500
9952775;-0.16500
9955553;-0.17000
9958331;-0.17000
9961108;-0.15500
9963886;-0.14500
9966664;-0.15500
9969442;-0.15000
9972219;-0.16500
9974997;-0.17000
9977775;-0.17000
9980553;-0.17000
9983331;-0.17500
9986108;-0.17500
9988886;-0.17500
9991664;-0.19500
9994442;-0.19500
9997219;-0.19500
9999997;-0.17000
10002775;-0.15500
10005553;-0.16000
10008331;-0.18500
10011108;-0.20500
10013886;-0.23500
10016664;-0.23000
10019442;-0.25000
10022219;-0.26000
10024997;-0.28500
10027775;-0.27500
10030553;-0.27000
10033331;-0.28000
10036108;-0.28000
10038886;-0.29000
10041664;-0.30000
10044442;-0.31000
10047219;-0.29500
10049997;-0.29500
10052775;-0.31500
10055553;-0.31000
10058331;-0.32000
10061108;-0.31000
10063886;-0.31000
10066664;-0.31500
10069442;-0.31500
10072219;-0.32000
10074997;-0.32500
10077775;-0.30500
10080553;-0.30000
10083331;-0.29500
10086108;-0.30500
10088886;-0.32500
10091664;-0.36000
10094442;-0.40500
10097219;-0.42000
10099997;-0.44000
10102775;-0.48000
10105553;-0.53000
10108331;-0.55500
10111108;-0.51000
10113886;-0.41500
10116664;-0.32000
10119442;-0.23500
10122219;-0.17500
10124997;-0.09500
10127775;0.03500
10130553;0.19500
10133330;0.38000
10136108;0.54000
10138886;0.65000
10141664;0.74500
10144442;0.81500
10147219;0.76000
10149997;0.48000
10152775;0.07500
10155553;-0.26000
10158330;-0.44500
10161108;-0.46500
10163886;-0.41500
10166664;-0.36000
10169442;-0.35000
10172219;-0.34500
10174997;-0.36000
10177775;-0.35000
10180553;-0.32500
10183330;-0.32500
10186108;-0.33500
10188886;-0.36000
10191664;-0.36000
10194442;-0.36500
10197219;-0.35500
10199997;-0.35000
10202775;-0.35000
10205553;-0.35000
10208330;-0.36000
10211108;-0.34000
10213886;-0.33500
10216664;-0.33000
10219442;-0.33000
10222219;-0.34500
10224997;-0.35500
10227775;-0.34500
10230553;-0.33000
10233330;-0.33000
10236108;-0.33500
10238886;-0.34000
10241664;-0.34500
10244442;-0.35500
10247219;-0.34000
10249997;-0.33500
10252775;-0.34000
10255553;-0.34500
10258330;-0.35500
10261108;-0.35000
10263886;-0.34500
10266664;-0.33500
10269442;-0.33500
10272219;-0.34500
10274997;-0.35000
10277775;-0.35000
10280553;-0.33500
10283330;-0.33000
10286108;-0.33500
10288886;-0.34000
10291664;-0.35000
10294442;-0.34500
10297219;-0.35000
10299997;-0.33500
10302775;-0.33500
10305553;-0.34500
10308330;-0.34000
10311108;-0.33000
10313886;-0.32500
10316664;-0.34000
10319442;-0.34000
10322219;-0.34500
10324997;-0.35500
10327775;-0.35000
10330553;-0.33500
10333330;-0.33500
10336108;-0.33000
10338886;-0.33000
10341664;-0.34500
10344442;-0.33000
10347219;-0.32500
10349997;-0.31000
10352775;-0.32500
10355553;-0.32500
10358330;-0.34500
10361108;-0.33500
10363886;-0.34000
10366664;-0.33500
10369442;-0.34000
10372219;-0.35000
10374997;-0.37000
10377775;-0.36500
10380553;-0.34500
10383330;-0.33000
10386108;-0.33000
10388886;-0.34500
10391664;-0.34000
10394442;-0.34500
10397219;-0.32000
10399997;-0.30500
10402775;-0.30000
10405553;-0.30500
10408330;-0.31500
10411108;-0.32000
10413886;-0.30000
10416664;-0.28000
10419442;-0.27500
10422219;-0.27000
10424997;-0.27500
10427775;-0.26000
10430553;-0.25500
10433330;-0.23500
10436108;-0.22500
10438886;-0.24000
10441664;-0.24000
10444442;-0.24000
10447219;-0.25000
10449997;-0.22500
10452775;-0.22000
10455553;-0.22500
10458330;-0.23500
10461108;-0.22500
10463886;-0.23500
10466664;-0.22500
10469442;-0.22500
10472219;-0.23500
10474997;-0.23500
10477775;-0.23500
10480553;-0.23000
10483330;-0.21500
10486108;-0.22000
10488886;-0.22500
10491664;-0.23500
10494442;-0.23500
10497219;-0.24500
10499997;-0.24500
10502775;-0.25500
10505553;-0.25000
10508330;-0.26000
10511108;-0.26000
10513886;-0.25500
10516664;-0.25000
10519441;-0.26000
10522219;-0.27000
10524997;-0.27000
10527775;-0.26500
10530553;-0.26000
10533330;-0.26500
10536108;-0.26000
10538886;-0.27500
10541664;-0.28000
10544441;-0.29000
10547219;-0.27000
10549997;-0.27500
10552775;-0.27500
10555553;-0.28000
10558330;-0.29000
10561108;-0.29000
10563886;-0.28500
10566664;-0.27500
10569441;-0.27000
10572219;-0.29000
10574997;-0.29000
10577775;-0.30000
10580553;-0.29500
10583330;-0.27500
10586108;-0.28500
10588886;-0.28000
10591664;-0.30000
10594441;-0.30000
10597219;-0.30500
10599997;-0.29500
10602775;-0.31000
10605553;-0.30500
10608330;-0.31500
10611108;-0.30500
10613886;-0.30000
10616664;-0.30000
10619441;-0.29500
10622219;-0.30000
10624997;-0.30000
10627775;-0.29500
10630553;-0.29000
10633330;-0.29000
10636108;-0.28500
10638886;-0.29000
10641664;-0.31000
10644441;-0.29500
10647219;-0.29000
10649997;-0.30000
10652775;-0.30000
10655553;-0.30000
10658330;-0.30000
10661108;-0.30500
10663886;-0.30000
10666664;-0.29500
10669441;-0.29000
10672219;-0.29000
10674997;-0.29000
10677775;-0.28500
10680553;-0.25500
10683330;-0.24000
10686108;-0.23500
10688886;-0.24000
10691664;-0.24000
10694441;-0.23000
10697219;-0.22500
10699997;-0.20500
10702775;-0.20000
10705553;-0.20000
10708330;-0.21500
10711108;-0.19500
10713886;-0.19000
10716664;-0.20000
10719441;-0.21000
10722219;-0.21000
10724997;-0.22500
10727775;-0.22500
10730553;-0.24000
10733330;-0.21500
10736108;-0.22500
10738886;-0.23500
10741664;-0.25500
10744441;-0.25500
10747219;-0.22500
10749997;-0.19500
10752775;-0.17000
10755553;-0.19000
10758330;-0.22000
10761108;-0.24500
10763886;-0.24500
10766664;-0.26500
10769441;-0.29000
10772219;-0.30000
10774997;-0.32500
10777775;-0.33000
10780553;-0.32500
10783330;-0.33000
10786108;-0.33000
10788886;-0.33500
10791664;-0.34000
10794441;-0.34000
10797219;-0.34000
10799997;-0.32000
10802775;-0.33500
10805553;-0.33500
10808330;-0.34500
10811108;-0.33500
10813886;-0.31000
10816664;-0.31500
10819441;-0.32500
10822219;-0.34500
10824997;-0.35000
10827775;-0.34500
10830553;-0.34000
10833330;-0.33500
10836108;-0.32000
10838886;-0.34000
10841664;-0.34500
10844441;-0.36000
10847219;-0.37000
10849997;-0.40500
10852775;-0.43500
10855553;-0.46000
10858330;-0.49500
10861108;-0.54500
10863886;-0.56500
10866664;-0.51000
10869441;-0.42000
10872219;-0.30500
10874997;-0.15000
10877775;0.07000
10880553;0.34000
10883330;0.59000
10886108;0.78500
10888886;0.84500
10891664;0.75500
10894441;0.49000
10897219;0.11500
10899997;-0.21500
10902775;-0.43500
10905553;-0.52000
10908330;-0.52000
10911108;-0.46000
10913886;-0.41500
10916664;-0.39000
10919441;-0.39000
10922219;-0.40000
10924997;-0.40000
10927775;-0.38500
10930552;-0.38500
10933330;-0.38000
10936108;-0.38500
10938886;-0.39000
10941664;-0.40000
10944441;-0.39500
10947219;-0.39500
10949997;-0.39000
10952775;-0.38000
10955552;-0.40500
10958330;-0.41500
10961108;-0.40500
10963886;-0.40000
10966664;-0.39500
10969441;-0.40500
10972219;-0.39500
10974997;-0.41000
10977775;-0.40500
10980552;-0.40500
10983330;-0.39500
10986108;-0.40000
10988886;-0.40000
10991664;-0.41500
10994441;-0.41000
10997219;-0.39000
10999997;-0.38000
11002775;-0.37500
11005552;-0.38000
11008330;-0.40000
11011108;-0.38500
11013886;-0.38500
11016664;-0.39000
11019441;-0.39000
11022219;-0.39500
11024997;-0.40500
11027775;-0.40500
11030552;-0.41000
11033330;-0.40000
11036108;-0.41000
11038886;-0.43000
11041664;-0.43000
11044441;-0.42500
11047219;-0.41000
11049997;-0.39500
11052775;-0.39500
11055552;-0.40500
11058330;-0.40500
11061108;-0.40500
11063886;-0.39500
11066664;-0.38500
11069441;-0.39500
11072219;-0.40500
11074997;-0.42500
11077775;-0.41000
11080552;-0.41000
11083330;-0.40000
11086108;-0.41000
11088886;-0.41000
11091664;-0.42500
11094441;-0.41500
11097219;-0.41500
11099997;-0.42000
11102775;-0.41500
11105552;-0.43000
11108330;-0.44000
11111108;-0.44500
11113886;-0.42500
11116664;-0.42500
11119441;-0.43000
11122219;-0.43500
11124997;-0.44500
11127775;-0.45500
11130552;-0.44000
11133330;-0.44000
11136108;-0.44500
11138886;-0.45500
11141664;-0.47000
11144441;-0.46500
11147219;-0.46000
11149997;-0.45000
11152775;-0.44000
11155552;-0.43000
11158330;-0.43500
11161108;-0.41500
11163886;-0.40000
11166664;-0.38500
11169441;-0.37000
11172219;-0.37000
11174997;-0.36500
11177775;-0.35000
11180552;-0.31500
11183330;-0.31000
11186108;-0.29500
11188886;-0.29500
11191664;-0.31000
11194441;-0.31000
11197219;-0.28500
11199997;-0.28000
11202775;-0.28000
11205552;-0.29500
11208330;-0.31000
11211108;-0.31500
11213886;-0.29000
11216664;-0.28500
11219441;-0.29000
11222219;-0.30000
11224997;-0.30500
11227775;-0.29500
11230552;-0.28500
11233330;-0.28500
11236108;-0.28500
11238886;-0.30000
11241664;-0.31000
11244441;-0.31000
11247219;-0.29500
11249997;-0.28000
11252775;-0.30000
11255552;-0.29000
11258330;-0.32000
11261108;-0.30000
11263886;-0.29500
11266664;-0.28500
11269441;-0.29000
11272219;-0.29500
11274997;-0.31000
11277775;-0.30500
11280552;-0.29000
11283330;-0.28000
11286108;-0.30000
11288886;-0.31000
11291664;-0.31500
11294441;-0.31500
11297219;-0.31000
11299997;-0.30500
11302775;-0.31500
11305552;-0.32000
11308330;-0.33500
11311108;-0.32500
11313886;-0.32000
11316663;-0.31500
11319441;-0.31500
11322219;-0.32000
11324997;-0.34000
11327775;-0.32500
11330552;-0.33000
11333330;-0.32000
11336108;-0.32000
11338886;-0.32500
11341663;-0.32500
11344441;-0.31500
11347219;-0.32000
11349997;-0.31500
11352775;-0.32000
11355552;-0.33000
11358330;-0.34000
11361108;-0.33000
11363886;-0.33500
11366663;-0.31500
11369441;-0.31500
11372219;-0.32000
11374997;-0.33500
11377775;-0.33000
11380552;-0.32000
11383330;-0.31000
11386108;-0.32000
11388886;-0.34000
11391663;-0.33500
11394441;-0.33500
11397219;-0.32500
11399997;-0.31500
11402775;-0.32000
11405552;-0.32000
11408330;-0.33500
11411108;-0.33000
11413886;-0.31500
11416663;-0.30500
11419441;-0.31000
11422219;-0.31000
11424997;-0.32000
11427775;-0.31000
11430552;-0.30000
11433330;-0.30000
11436108;-0.29000
11438886;-0.30000
11441663;-0.32000
11444441;-0.30000
11447219;-0.28000
11449997;-0.26500
11452775;-0.24500
11455552;-0.25500
11458330;-0.25500
11461108;-0.25500
11463886;-0.23000
11466663;-0.23000
11469441;-0.22500
11472219;-0.22000
11474997;-0.24000
11477775;-0.22000
11480552;-0.20500
11483330;-0.19500
11486108;-0.20500
11488886;-0.21000
11491663;-0.22500
11494441;-0.22500
11497219;-0.22000
11499997;-0.21500
11502775;-0.20500
11505552;-0.21500
11508330;-0.24000
11511108;-0.24500
11513886;-0.23000
11516663;-0.21500
11519441;-0.20000
11522219;-0.18000
11524997;-0.20000
11527775;-0.22000
11530552;-0.23500
11533330;-0.24500
11536108;-0.25000
11538886;-0.27500
11541663;-0.29000
11544441;-0.29000
11547219;-0.29000
11549997;-0.29000
11552775;-0.32000
11555552;-0.32500
11558330;-0.34000
11561108;-0.35500
11563886;-0.34000
11566663;-0.34000
11569441;-0.34000
11572219;-0.34000
11574997;-0.35500
11577775;-0.35500
11580552;-0.34500
11583330;-0.34000
11586108;-0.35000
11588886;-0.35500
11591663;-0.36000
11594441;-0.36000
11597219;-0.34500
11599997;-0.34500
11602775;-0.34500
11605552;-0.36000
11608330;-0.37000
11611108;-0.37000
11613886;-0.36000
11616663;-0.35000
11619441;-0.36500
11622219;-0.40000
11624997;-0.44000
11627775;-0.48000
11630552;-0.48500
11633330;-0.51500
11636108;-0.55000
11638886;-0.57500
11641663;-0.52000
11644441;-0.41000
11647219;-0.26000
11649997;-0.08500
11652775;0.14000
11655552;0.40000
11658330;0.64000
11661108;0.79500
11663886;0.81500
11666663;0.67000
11669441;0.34000
11672219;-0.07000
11674997;-0.39000
11677775;-0.53000
11680552;-0.52500
11683330;-0.46500
11686108;-0.41500
11688886;-0.39500
11691663;-0.41000
11694441;-0.41000
11697219;-0.40000
11699997;-0.38500
11702775;-0.38500
11705552;-0.39000
11708330;-0.40000
11711108;-0.40500
11713886;-0.41000
11716663;-0.39000
11719441;-0.38500
11722219;-0.39500
11724997;-0.41000
11727774;-0.40500
11730552;-0.39500
11733330;-0.38500
11736108;-0.38000
11738886;-0.39500
11741663;-0.40000
11744441;-0.39000
11747219;-0.37500
11749997;-0.39000
11752774;-0.38500
11755552;-0.39000
11758330;-0.40000
11761108;-0.39500
11763886;-0.39500
11766663;-0.39000
11769441;-0.39500
11772219;-0.39000
11774997;-0.41500
11777774;-0.40000
11780552;-0.39500
11783330;-0.39000
11786108;-0.39000
11788886;-0.40000
11791663;-0.41500
11794441;-0.40500
11797219;-0.40500
11799997;-0.40500
11802774;-0.39500
11805552;-0.40000
11808330;-0.41000
11811108;-0.39500
11813886;-0.38000
11816663;-0.38500
11819441;-0.38000
11822219;-0.38500
11824997;-0.39500
11827774;-0.38500
11830552;-0.37500
11833330;-0.38000
11836108;-0.38500
11838886;-0.38500
11841663;-0.40000
11844441;-0.39500
11847219;-0.38500
11849997;-0.38000
11852774;-0.38000
11855552;-0.38500
11858330;-0.40500
11861108;-0.39500
11863886;-0.38500
11866663;-0.38500
11869441;-0.39500
11872219;-0.41000
11874997;-0.40500
11877774;-0.40000
11880552;-0.39000
11883330;-0.38500
11886108;-0.38000
11888886;-0.38500
11891663;-0.40500
11894441;-0.41500
11897219;-0.40500
11899997;-0.40500
11902774;-0.41000
11905552;-0.41500
11908330;-0.42000
11911108;-0.40500
11913886;-0.40500
11916663;-0.40000
11919441;-0.40500
11922219;-0.40000
11924997;-0.41000
11927774;-0.40500
11930552;-0.39500
11933330;-0.38000
11936108;-0.37000
11938886;-0.38000
11941663;-0.37500
11944441;-0.36500
11947219;-0.33500
11949997;-0.32000
11952774;-0.31000
11955552;-0.31000
11958330;-0.31000
11961108;-0.30500
11963886;-0.29500
11966663;-0.29000
11969441;-0.27500
11972219;-0.28500
11974997;-0.30000
11977774;-0.29500
11980552;-0.28000
11983330;-0.27500
11986108;-0.27500
11988886;-0.28500
11991663;-0.29000
11994441;-0.29500
11997219;-0.29000
11999997;-0.28500
12002774;-0.27500
12005552;-0.29000
12008330;-0.29500
12011108;-0.30000
12013886;-0.29000
12016663;-0.27500
12019441;-0.28000
12022219;-0.28500
12024997;-0.29500
12027774;-0.29000
12030552;-0.28500
12033330;-0.27500
12036108;-0.27500
12038886;-0.28000
12041663;-0.29000
12044441;-0.29000
12047219;-0.29000
12049997;-0.28000
12052774;-0.29000
12055552;-0.29000
12058330;-0.30500
12061108;-0.31500
12063886;-0.30500
12066663;-0.29500
12069441;-0.30000
12072219;-0.30000
12074997;-0.31000
12077774;-0.31000
12080552;-0.31000
12083330;-0.30000
12086108;-0.30000
12088886;-0.30500
12091663;-0.31500
12094441;-0.31500
12097219;-0.32000
12099997;-0.30500
12102774;-0.30000
12105552;-0.30500
12108330;-0.32500
12111108;-0.31500
12113885;-0.31500
12116663;-0.31000
12119441;-0.32000
12122219;-0.33000
12124997;-0.33500
12127774;-0.33000
12130552;-0.33500
12133330;-0.33000
12136108;-0.32000
12138885;-0.32000
12141663;-0.34500
12144441;-0.33500
12147219;-0.33500
12149997;-0.30500
12152774;-0.31500
12155552;-0.32000
12158330;-0.32000
12161108;-0.31500
12163885;-0.31500
12166663;-0.31000
12169441;-0.30500
12172219;-0.31500
12174997;-0.33000
12177774;-0.33000
12180552;-0.33500
12183330;-0.31500
12186108;-0.32000
12188885;-0.32000
12191663;-0.33000
12194441;-0.32000
12197219;-0.31000
12199997;-0.30500
12202774;-0.30500
12205552;-0.32000
12208330;-0.33000
12211108;-0.32000
12213885;-0.31500
12216663;-0.29000
12219441;-0.27000
12222219;-0.27500
12224997;-0.27500
12227774;-0.26000
12230552;-0.24500
12233330;-0.23500
12236108;-0.23000
12238885;-0.25000
12241663;-0.25000
12244441;-0.25000
12247219;-0.22500
12249997;-0.21500
12252774;-0.20500
12255552;-0.21000
12258330;-0.21000
12261108;-0.20000
12263885;-0.18500
12266663;-0.18500
12269441;-0.18000
12272219;-0.20000
12274997;-0.21500
12277774;-0.21000
12280552;-0.21000
12283330;-0.21500
12286108;-0.20500
12288885;-0.21000
12291663;-0.23500
12294441;-0.24000
12297219;-0.22500
12299997;-0.21500
12302774;-0.19500
12305552;-0.19500
12308330;-0.21000
12311108;-0.23500
12313885;-0.25000
12316663;-0.25500
12319441;-0.27000
12322219;-0.28500
12324997;-0.30500
12327774;-0.31000
12330552;-0.32000
12333330;-0.32500
12336108;-0.32500
12338885;-0.33000
12341663;-0.33000
12344441;-0.34000
12347219;-0.33000
12349997;-0.32500
12352774;-0.32500
12355552;-0.33000
12358330;-0.35500
12361108;-0.34500
12363885;-0.35000
12366663;-0.32500
12369441;-0.33500
12372219;-0.34000
12374997;-0.35000
12377774;-0.35500
12380552;-0.34500
12383330;-0.33000
12386108;-0.33500
12388885;-0.34000
12391663;-0.35000
12394441;-0.36000
12397219;-0.35000
12399997;-0.36500
12402774;-0.40000
12405552;-0.43500
12408330;-0.47500
12411108;-0.49000
12413885;-0.51500
12416663;-0.54000
12419441;-0.52500
12422219;-0.46500
12424997;-0.37000
12427774;-0.22500
12430552;-0.07500
12433330;0.14000
12436108;0.41000
12438885;0.65000
12441663;0.81000
12444441;0.89000
12447219;0.90000
12449997;0.81000
12452774;0.61000
12455552;0.35000
12458330;0.07000
12461108;-0.18000
12463885;-0.37000
12466663;-0.48500
12469441;-0.53500
12472219;-0.56000
12474997;-0.54000
12477774;-0.50000
12480552;-0.42500
12483330;-0.39500
12486108;-0.38500
12488885;-0.38500
12491663;-0.40000
12494441;-0.38500
12497219;-0.36500
12499996;-0.36500
12502774;-0.36500
12505552;-0.37000
12508330;-0.39000
12511108;-0.39500
12513885;-0.39000
12516663;-0.38000
12519441;-0.38000
12522219;-0.39000
12524996;-0.39500
12527774;-0.40500
12530552;-0.39000
12533330;-0.38500
12536108;-0.39000
12538885;-0.39000
12541663;-0.39500
12544441;-0.38500
12547219;-0.38000
12549996;-0.37000
12552774;-0.37000
12555552;-0.38500
12558330;-0.39500
12561108;-0.38500
12563885;-0.37500
12566663;-0.37000
12569441;-0.38000
12572219;-0.38000
12574996;-0.39000
12577774;-0.39000
12580552;-0.39000
12583330;-0.39000
12586108;-0.38500
12588885;-0.38500
12591663;-0.39500
12594441;-0.39500
12597219;-0.39000
12599996;-0.38500
12602774;-0.39500
12605552;-0.38500
12608330;-0.40000
12611108;-0.39500
12613885;-0.37500
12616663;-0.36500
12619441;-0.37000
12622219;-0.38000
12624996;-0.38000
12627774;-0.40000
12630552;-0.38500
12633330;-0.37500
12636108;-0.37500
12638885;-0.37500
12641663;-0.38000
12644441;-0.39500
12647219;-0.37500
12649996;-0.38000
12652774;-0.37000
12655552;-0.37000
12658330;-0.38500
12661108;-0.37500
12663885;-0.38500
12666663;-0.37500
12669441;-0.37500
12672219;-0.36500
12674996;-0.38000
12677774;-0.38500
12680552;-0.38000
12683330;-0.38000
12686108;-0.38000
12688885;-0.39500
12691663;-0.40000
12694441;-0.39000
12697219;-0.38500
12699996;-0.37000
12702774;-0.38000
12705552;-0.38500
12708330;-0.39500
12711108;-0.39000
12713885;-0.38500
12716663;-0.38000
12719441;-0.37500
12722219;-0.40000
12724996;-0.40500
12727774;-0.41000
12730552;-0.38500
12733330;-0.37500
12736108;-0.37000
12738885;-0.38500
12741663;-0.37500
12744441;-0.37000
12747219;-0.35500
12749996;-0.33000
12752774;-0.32000
12755552;-0.32000
12758330;-0.33000
12761108;-0.31500
12763885;-0.30500
12766663;-0.28500
12769441;-0.28500
12772219;-0.28000
12774996;-0.28500
12777774;-0.28500
12780552;-0.27000
12783330;-0.26500
12786108;-0.27000
12788885;-0.28000
12791663;-0.29000
12794441;-0.28000
12797219;-0.26500
12799996;-0.26500
12802774;-0.27000
12805552;-0.27500
12808330;-0.28000
12811108;-0.28500
12813885;-0.28000
12816663;-0.28000
12819441;-0.27000
12822219;-0.28000
12824996;-0.29000
12827774;-0.27500
12830552;-0.27000
12833330;-0.26500
12836108;-0.27500
12838885;-0.26500
12841663;-0.29000
12844441;-0.29500
12847219;-0.28000
12849996;-0.28500
12852774;-0.28500
12855552;-0.29000
12858330;-0.28500
12861108;-0.29000
12863885;-0.28000
12866663;-0.27000
12869441;-0.27500
12872219;-0.28500
12874996;-0.30500
12877774;-0.31000
12880552;-0.31000
12883330;-0.30000
12886108;-0.30000
12888885;-0.31000
12891663;-0.31500
12894441;-0.31500
12897219;-0.31500
12899996;-0.30000
12902774;-0.31500
12905552;-0.32500
12908330;-0.34000
12911107;-0.33000
12913885;-0.32500
12916663;-0.31500
12919441;-0.31500
12922219;-0.32500
12924996;-0.32000
12927774;-0.32500
12930552;-0.31500
12933330;-0.31500
12936107;-0.32000
12938885;-0.32500
12941663;-0.33500
12944441;-0.33500
12947219;-0.33500
12949996;-0.33500
12952774;-0.34500
12955552;-0.36500
12958330;-0.35000
12961107;-0.34500
12963885;-0.34500
12966663;-0.34500
12969441;-0.33500
12972219;-0.34000
12974996;-0.35000
12977774;-0.35500
12980552;-0.34000
12983330;-0.34500
12986107;-0.34000
12988885;-0.35000
12991663;-0.35500
12994441;-0.34500
12997219;-0.34500
12999996;-0.34000
13002774;-0.33500
13005552;-0.34000
13008330;-0.35000
13011107;-0.35000
13013885;-0.33500
13016663;-0.32000
13019441;-0.32000
13022219;-0.34000
13024996;-0.35500
13027774;-0.35000
13030552;-0.33000
13033330;-0.32000
13036107;-0.30500
13038885;-0.30500
13041663;-0.29500
13044441;-0.29000
13047219;-0.27500
13049996;-0.26500
13052774;-0.27000
13055552;-0.27000
13058330;-0.27000
13061107;-0.25500
13063885;-0.25000
13066663;-0.23000
13069441;-0.22000
13072219;-0.21000
13074996;-0.22000
13077774;-0.21500
13080552;-0.22000
13083330;-0.21500
13086107;-0.22000
13088885;-0.24500
13091663;-0.26000
13094441;-0.25500
13097219;-0.24500
13099996;-0.24000
13102774;-0.26500
13105552;-0.26000
13108330;-0.26000
13111107;-0.24500
13113885;-0.22500
13116663;-0.22000
13119441;-0.24500
13122219;-0.28000
13124996;-0.29500
13127774;-0.30500
13130552;-0.31500
13133330;-0.32000
13136107;-0.33000
13138885;-0.34000
13141663;-0.35000
13144441;-0.37500
13147219;-0.34500
13149996;-0.34500
13152774;-0.34500
13155552;-0.35500
13158330;-0.36000
13161107;-0.36000
13163885;-0.35500
13166663;-0.35500
13169441;-0.36000
13172219;-0.36000
13174996;-0.38000
13177774;-0.38500
13180552;-0.38000
13183330;-0.37500
13186107;-0.37000
13188885;-0.38500
13191663;-0.38500
13194441;-0.39000
13197219;-0.37000
13199996;-0.36500
13202774;-0.36000
13205552;-0.36500
13208330;-0.36500
13211107;-0.36500
13213885;-0.36500
13216663;-0.36000
13219441;-0.39000
13222219;-0.42000
13224996;-0.46500
13227774;-0.49000
13230552;-0.49500
13233330;-0.53000
13236107;-0.57000
13238885;-0.58500
13241663;-0.53500
13244441;-0.43000
13247219;-0.29000
13249996;-0.14500
13252774;0.04500
13255552;0.31500
13258330;0.54500
13261107;0.72000
13263885;0.79500
13266663;0.74000
13269441;0.50500
13272219;0.16500
13274996;-0.15500
13277774;-0.40500
13280552;-0.51500
13283330;-0.52500
13286107;-0.50500
13288885;-0.46500
13291663;-0.43500
13294441;-0.43500
13297218;-0.42000
13299996;-0.42000
13302774;-0.40500
13305552;-0.40500
13308330;-0.42000
13311107;-0.43000
13313885;-0.41500
13316663;-0.40000
13319441;-0.39500
13322218;-0.42000
13324996;-0.42000
13327774;-0.42500
13330552;-0.42000
13333330;-0.41000
13336107;-0.41500
13338885;-0.40500
13341663;-0.42000
13344441;-0.40500
13347218;-0.41500
13349996;-0.40000
13352774;-0.39500
13355552;-0.41500
13358330;-0.42000
13361107;-0.42500
13363885;-0.40500
13366663;-0.41000
13369441;-0.42500
13372218;-0.42500
13374996;-0.42500
13377774;-0.42500
13380552;-0.41000
13383330;-0.41000
13386107;-0.41000
13388885;-0.42500
13391663;-0.44000
13394441;-0.43500
13397218;-0.42500
13399996;-0.41000
13402774;-0.42500
13405552;-0.43500
13408330;-0.44500
13411107;-0.46000
13413885;-0.43500
13416663;-0.41500
13419441;-0.41500
13422218;-0.42500
13424996;-0.43500
13427774;-0.43000
13430552;-0.42000
13433330;-0.41000
13436107;-0.43000
13438885;-0.43000
13441663;-0.44000
13444441;-0.43500
13447218;-0.42500
13449996;-0.42000
13452774;-0.41000
13455552;-0.42000
13458330;-0.43000
13461107;-0.43000
13463885;-0.43000
13466663;-0.41500
13469441;-0.41000
13472218;-0.42500
13474996;-0.42000
13477774;-0.43000
13480552;-0.43000
13483330;-0.41500
13486107;-0.41500
13488885;-0.44000
13491663;-0.43500
13494441;-0.43000
13497218;-0.42000
13499996;-0.42000
13502774;-0.42500
13505552;-0.44000
13508330;-0.45500
13511107;-0.45000
13513885;-0.44500
13516663;-0.42500
13519441;-0.43500
13522218;-0.44500
13524996;-0.44500
13527774;-0.45500
13530552;-0.46000
13533330;-0.45500
13536107;-0.46500
13538885;-0.47500
13541663;-0.48000
13544441;-0.49000
13547218;-0.48000
13549996;-0.47000
13552774;-0.46000
13555552;-0.47000
13558330;-0.47500
13561107;-0.47500
13563885;-0.46500
13566663;-0.45000
13569441;-0.43000
13572218;-0.42500
13574996;-0.42000
13577774;-0.41500
13580552;-0.39000
13583330;-0.37500
13586107;-0.37000
13588885;-0.37000
13591663;-0.36000
13594441;-0.36000
13597218;-0.34500
13599996;-0.33000
13602774;-0.33000
13605552;-0.31000
13608330;-0.31500
13611107;-0.31500
13613885;-0.30500
13616663;-0.30500
13619441;-0.31000
13622218;-0.31000
13624996;-0.30500
13627774;-0.30000
13630552;-0.30500
13633330;-0.31000
13636107;-0.30500
13638885;-0.30500
13641663;-0.32500
13644441;-0.31500
13647218;-0.30500
13649996;-0.29500
13652774;-0.30000
13655552;-0.30500
13658330;-0.31500
13661107;-0.31500
13663885;-0.31500
13666663;-0.30500
13669441;-0.31000
13672218;-0.31000
13674996;-0.31500
13677774;-0.31500
13680552;-0.32000
13683330;-0.31500
13686107;-0.32000
13688885;-0.32000
13691663;-0.32500
13694441;-0.33000
13697218;-0.33000
13699996;-0.31000
13702774;-0.33000
13705552;-0.32000
13708329;-0.33000
13711107;-0.33000
13713885;-0.32500
13716663;-0.31000
13719441;-0.31500
13722218;-0.32500
13724996;-0.33500
13727774;-0.34500
13730552;-0.33500
13733329;-0.33000
13736107;-0.33500
13738885;-0.34000
13741663;-0.34500
13744441;-0.35500
13747218;-0.35500
13749996;-0.33500
13752774;-0.34500
13755552;-0.34500
13758329;-0.35500
13761107;-0.35000
13763885;-0.34500
13766663;-0.33500
13769441;-0.33500
13772218;-0.33000
13774996;-0.34500
13777774;-0.34000
13780552;-0.35000
13783329;-0.34000
13786107;-0.35500
13788885;-0.35000
13791663;-0.37000
13794441;-0.36000
13797218;-0.34000
13799996;-0.33500
13802774;-0.34000
13805552;-0.33500
13808329;-0.34500
13811107;-0.36000
13813885;-0.34000
13816663;-0.32500
13819441;-0.33500
13822218;-0.34000
13824996;-0.35000
13827774;-0.34500
13830552;-0.34500
13833329;-0.33500
13836107;-0.34500
13838885;-0.35500
13841663;-0.35000
13844441;-0.35500
13847218;-0.34500
13849996;-0.32500
13852774;-0.31500
13855552;-0.31000
13858329;-0.30500
13861107;-0.30000
13863885;-0.28500
13866663;-0.27000
13869441;-0.27500
13872218;-0.28000
13874996;-0.28500
13877774;-0.26000
13880552;-0.25000
13883329;-0.24500
13886107;-0.23500
13888885;-0.24000
13891663;-0.24000
13894441;-0.25500
13897218;-0.24500
13899996;-0.23000
13902774;-0.24500
13905552;-0.24000
13908329;-0.26000
13911107;-0.25500
13913885;-0.26000
13916663;-0.25500
13919441;-0.26000
13922218;-0.24500
13924996;-0.23500
13927774;-0.25000
13930552;-0.26500
13933329;-0.27500
13936107;-0.29000
13938885;-0.32500
13941663;-0.34000
13944441;-0.35500
13947218;-0.35500
13949996;-0.35500
13952774;-0.35500
13955552;-0.36000
13958329;-0.36500
13961107;-0.35500
13963885;-0.34000
13966663;-0.34000
13969441;-0.34500
13972218;-0.36500
13974996;-0.37000
13977774;-0.36000
13980552;-0.35500
13983329;-0.33500
13986107;-0.35000
13988885;-0.35500
13991663;-0.36000
13994441;-0.37000
13997218;-0.35500
13999996;-0.34500
14002774;-0.35500
14005552;-0.36500
14008329;-0.37500
14011107;-0.38500
14013885;-0.36000
14016663;-0.35000
14019441;-0.36500
14022218;-0.37000
14024996;-0.37000
14027774;-0.38500
14030552;-0.40000
14033329;-0.43500
14036107;-0.46500
14038885;-0.50000
14041663;-0.52000
14044441;-0.56500
14047218;-0.57000
14049996;-0.51000
14052774;-0.41500
14055552;-0.29000
14058329;-0.15000
14061107;0.03500
14063885;0.30000
14066663;0.56000
14069441;0.76500
14072218;0.86000
14074996;0.81000
14077774;0.57500
14080552;0.22000
14083329;-0.12000
14086107;-0.35500
14088885;-0.50000
14091663;-0.52500
14094440;-0.49000
14097218;-0.45000
14099996;-0.41500
14102774;-0.41000
14105552;-0.42500
14108329;-0.41500
14111107;-0.42000
14113885;-0.40500
14116663;-0.38500
14119440;-0.40000
14122218;-0.40500
14124996;-0.41000
14127774;-0.41000
14130552;-0.40000
14133329;-0.39000
14136107;-0.39500
14138885;-0.39500
14141663;-0.40500
14144440;-0.40500
14147218;-0.40000
14149996;-0.39500
14152774;-0.40000
14155552;-0.40000
14158329;-0.41500
14161107;-0.42000
14163885;-0.40000
14166663;-0.39000
14169440;-0.40500
14172218;-0.41000
14174996;-0.40500
14177774;-0.42500
14180552;-0.42000
14183329;-0.40000
14186107;-0.40500
14188885;-0.39500
14191663;-0.40500
14194440;-0.41000
14197218;-0.40500
14199996;-0.39500
14202774;-0.39000
14205552;-0.40500
14208329;-0.40500
14211107;-0.40500
14213885;-0.40000
14216663;-0.40000
14219440;-0.39500
14222218;-0.41000
14224996;-0.42000
14227774;-0.41000
14230552;-0.41000
14233329;-0.39500
14236107;-0.39500
14238885;-0.40500
14241663;-0.40000
14244440;-0.41000
14247218;-0.40000
14249996;-0.39500
14252774;-0.39500
14255552;-0.40000
14258329;-0.41000
14261107;-0.40500
14263885;-0.41000
14266663;-0.38000
14269440;-0.40000
14272218;-0.39000
14274996;-0.39500
14277774;-0.41000
14280552;-0.40000
14283329;-0.39500
14286107;-0.40000
14288885;-0.40000
14291663;-0.42000
14294440;-0.42500
14297218;-0.41000
14299996;-0.41500
14302774;-0.41500
14305552;-0.43500
14308329;-0.44500
14311107;-0.44500
14313885;-0.43500
14316663;-0.43000
14319440;-0.44000
14322218;-0.43000
14324996;-0.45000
14327774;-0.45500
14330552;-0.45000
14333329;-0.44500
14336107;-0.43500
14338885;-0.43000
14341663;-0.44500
14344440;-0.43500
14347218;-0.41500
14349996;-0.41500
14352774;-0.40000
14355552;-0.38000
14358329;-0.39000
14361107;-0.40000
14363885;-0.38500
14366663;-0.36000
14369440;-0.36500
14372218;-0.38000
14374996;-0.37500
14377774;-0.36000
14380552;-0.34000
14383329;-0.32000
14386107;-0.32000
14388885;-0.30500
14391663;-0.32000
14394440;-0.31000
14397218;-0.29500
14399996;-0.28000
14402774;-0.28500
14405552;-0.28500
14408329;-0.29500
14411107;-0.31000
14413885;-0.28500
14416663;-0.28500
14419440;-0.28000
14422218;-0.27500
14424996;-0.28500
14427774;-0.28500
14430552;-0.28000
14433329;-0.26500
14436107;-0.27000
14438885;-0.26000
14441663;-0.27500
14444440;-0.28000
14447218;-0.27500
14449996;-0.27000
14452774;-0.27500
14455552;-0.27500
14458329;-0.28500
14461107;-0.30000
14463885;-0.29000
14466663;-0.28500
14469440;-0.29000
14472218;-0.29500
14474996;-0.30000
14477774;-0.30000
14480552;-0.29500
14483329;-0.28000
14486107;-0.28000
14488885;-0.29500
14491663;-0.29000
14494440;-0.30500
14497218;-0.29500
14499996;-0.28500
14502774;-0.29000
14505551;-0.31000
14508329;-0.31000
14511107;-0.29500
14513885;-0.30500
14516663;-0.29000
14519440;-0.29000
14522218;-0.29500
14524996;-0.30500
14527774;-0.31000
14530551;-0.30500
14533329;-0.29500
14536107;-0.29000
14538885;-0.30000
14541663;-0.31500
14544440;-0.32000
14547218;-0.31000
14549996;-0.30500
14552774;-0.30000
14555551;-0.31000
14558329;-0.32000
14561107;-0.32500
14563885;-0.30500
14566663;-0.30000
14569440;-0.31000
14572218;-0.30500
14574996;-0.31500
14577774;-0.30500
14580551;-0.30000
14583329;-0.30500
14586107;-0.29000
14588885;-0.30000
14591663;-0.30500
14594440;-0.30500
14597218;-0.29500
14599996;-0.29000
14602774;-0.29500
14605551;-0.29500
14608329;-0.30000
14611107;-0.30500
14613885;-0.31000
14616663;-0.29000
14619440;-0.29500
14622218;-0.29500
14624996;-0.30500
14627774;-0.32000
14630551;-0.29500
14633329;-0.29000
14636107;-0.29000
14638885;-0.29000
14641663;-0.30000
14644440;-0.30000
14647218;-0.26500
14649996;-0.24000
14652774;-0.23000
14655551;-0.23000
14658329;-0.24000
14661107;-0.23000
14663885;-0.22000
14666663;-0.21000
14669440;-0.20000
14672218;-0.19500
14674996;-0.19500
14677774;-0.19500
14680551;-0.18000
14683329;-0.16000
14686107;-0.16000
14688885;-0.17500
14691663;-0.19500
14694440;-0.19500
14697218;-0.20000
14699996;-0.20500
14702774;-0.22000
14705551;-0.20500
14708329;-0.20500
14711107;-0.21000
14713885;-0.21500
14716663;-0.22000
14719440;-0.21500
14722218;-0.19500
14724996;-0.18500
14727774;-0.18000
14730551;-0.19500
14733329;-0.22000
14736107;-0.24000
14738885;-0.25000
14741663;-0.26000
14744440;-0.28500
14747218;-0.29500
14749996;-0.29000
14752774;-0.28500
14755551;-0.30500
14758329;-0.31500
14761107;-0.32500
14763885;-0.32000
14766663;-0.31500
14769440;-0.30500
14772218;-0.33000
14774996;-0.32500
14777774;-0.33000
14780551;-0.33500
14783329;-0.32000
14786107;-0.32500
14788885;-0.32000
14791663;-0.33000
14794440;-0.33500
14797218;-0.32000
14799996;-0.32000
14802774;-0.32500
14805551;-0.33000
14808329;-0.33000
14811107;-0.33500
14813885;-0.34500
14816663;-0.36500
14819440;-0.41000
14822218;-0.44500
14824996;-0.46500
14827774;-0.51000
14830551;-0.53000
14833329;-0.51500
14836107;-0.47000
14838885;-0.34500
14841663;-0.24500
14844440;-0.14000
14847218;-0.01000
14849996;0.18000
14852774;0.41000
14855551;0.62500
14858329;0.78000
14861107;0.89000
14863885;0.97500
14866663;0.97000
14869440;0.82500
14872218;0.52000
14874996;0.15500
14877774;-0.20000
14880551;-0.41500
14883329;-0.49500
14886107;-0.46000
14888885;-0.39500
14891662;-0.37000
14894440;-0.37500
14897218;-0.38000
14899996;-0.36500
14902774;-0.36500
14905551;-0.37500
14908329;-0.38500
14911107;-0.38500
14913885;-0.38000
14916662;-0.37500
14919440;-0.37500
14922218;-0.39500
14924996;-0.38500
14927774;-0.38500
14930551;-0.37500
14933329;-0.36000
14936107;-0.38000
14938885;-0.38500
14941662;-0.39000
14944440;-0.38500
14947218;-0.37000
14949996;-0.37000
14952774;-0.35500
14955551;-0.37000
14958329;-0.37500
14961107;-0.38000
14963885;-0.37500
14966662;-0.36500
14969440;-0.37000
14972218;-0.37000
14974996;-0.39000
14977774;-0.38500
14980551;-0.38000
14983329;-0.37500
14986107;-0.37500
14988885;-0.37000
14991662;-0.37500
14994440;-0.38000
14997218;-0.37500
14999996;-0.36500
15002774;-0.37500
15005551;-0.38500
15008329;-0.38500
15011107;-0.39000
15013885;-0.37000
15016662;-0.37000
15019440;-0.36000
15022218;-0.36000
15024996;-0.36000
15027774;-0.37000
15030551;-0.35000
15033329;-0.33500
15036107;-0.34500
15038885;-0.35000
15041662;-0.36000
15044440;-0.36500
15047218;-0.36500
15049996;-0.35500
15052774;-0.35000
15055551;-0.36000
15058329;-0.36500
15061107;-0.37500
15063885;-0.37000
15066662;-0.37000
15069440;-0.36500
15072218;-0.37000
15074996;-0.38000
15077774;-0.37500
15080551;-0.37500
15083329;-0.36500
15086107;-0.36500
15088885;-0.38500
15091662;-0.38500
15094440;-0.39500
15097218;-0.38000
15099996;-0.37000
15102774;-0.37000
15105551;-0.38000
15108329;-0.38500
15111107;-0.38500
15113885;-0.38000
15116662;-0.37500
15119440;-0.36500
15122218;-0.37500
15124996;-0.38500
15127774;-0.38000
15130551;-0.36500
15133329;-0.36500
15136107;-0.36000
15138885;-0.36000
15141662;-0.36000
15144440;-0.34500
15147218;-0.32500
15149996;-0.30500
15152774;-0.30500
15155551;-0.30000
15158329;-0.30000
15161107;-0.30000
15163885;-0.28000
15166662;-0.27500
15169440;-0.26500
15172218;-0.27500
15174996;-0.27500
15177774;-0.26500
15180551;-0.26000
15183329;-0.25000
15186107;-0.24500
15188885;-0.27000
15191662;-0.26500
15194440;-0.27000
15197218;-0.26000
15199996;-0.25500
15202774;-0.25000
15205551;-0.26000
15208329;-0.27000
15211107;-0.28000
15213885;-0.26500
15216662;-0.25500
15219440;-0.26500
15222218;-0.27000
15224996;-0.27000
15227774;-0.28500
15230551;-0.27000
15233329;-0.26500
15236107;-0.27000
15238885;-0.27500
15241662;-0.29500
15244440;-0.28500
15247218;-0.28000
15249996;-0.26500
15252774;-0.26000
15255551;-0.26500
15258329;-0.27500
15261107;-0.28500
15263885;-0.27000
15266662;-0.26000
15269440;-0.27000
15272218;-0.27500
15274996;-0.29000
15277774;-0.29500
15280551;-0.29000
15283329;-0.28500
15286107;-0.28000
15288885;-0.29500
15291662;-0.31000
15294440;-0.31500
15297218;-0.30500
15299996;-0.29000
15302773;-0.28500
15305551;-0.30000
15308329;-0.31500
15311107;-0.32000
15313885;-0.31000
15316662;-0.29000
15319440;-0.30000
15322218;-0.29500
15324996;-0.31500
15327773;-0.30000
15330551;-0.30000
15333329;-0.28500
15336107;-0.29500
15338885;-0.29500
15341662;-0.31000
15344440;-0.31000
15347218;-0.29500
15349996;-0.29000
15352773;-0.28500
15355551;-0.29500
15358329;-0.31000
15361107;-0.30000
15363885;-0.30000
15366662;-0.29000
15369440;-0.29500
15372218;-0.30500
15374996;-0.30500
15377773;-0.31000
15380551;-0.29500
15383329;-0.29500
15386107;-0.29500
15388885;-0.30000
15391662;-0.30000
15394440;-0.31500
15397218;-0.30000
15399996;-0.29000
15402773;-0.28500
15405551;-0.29000
15408329;-0.30000
15411107;-0.31000
15413885;-0.28500
15416662;-0.26500
15419440;-0.26000
15422218;-0.24500
15424996;-0.25000
15427773;-0.24000
15430551;-0.22500
15433329;-0.22000
15436107;-0.22000
15438885;-0.23500
15441662;-0.23000
15444440;-0.22000
15447218;-0.20500
15449996;-0.19500
15452773;-0.18000
15455551;-0.19000
15458329;-0.19500
15461107;-0.20500
15463885;-0.19500
15466662;-0.19500
15469440;-0.21500
15472218;-0.21000
15474996;-0.22000
15477773;-0.22500
15480551;-0.22500
15483329;-0.22500
15486107;-0.23000
15488885;-0.21500
15491662;-0.20000
15494440;-0.19500
15497218;-0.16500
15499996;-0.16000
15502773;-0.19500
15505551;-0.23500
15508329;-0.24500
15511107;-0.27500
15513885;-0.27500
15516662;-0.29000
15519440;-0.30000
15522218;-0.31000
15524996;-0.32000
15527773;-0.33000
15530551;-0.32500
15533329;-0.32000
15536107;-0.32000
15538885;-0.33000
15541662;-0.32500
15544440;-0.34000
15547218;-0.34500
15549996;-0.33000
15552773;-0.32000
15555551;-0.31500
15558329;-0.33500
15561107;-0.33000
15563885;-0.31500
15566662;-0.31500
15569440;-0.31500
15572218;-0.33000
15574996;-0.33500
15577773;-0.35500
15580551;-0.34500
15583329;-0.32500
15586107;-0.33000
15588885;-0.37000
15591662;-0.41000
15594440;-0.44500
15597218;-0.44000
15599996;-0.45000
15602773;-0.50000
15605551;-0.52000
15608329;-0.50000
15611107;-0.41500
15613885;-0.30000
15616662;-0.15500
15619440;0.03000
15622218;0.26500
15624996;0.51000
15627773;0.71500
15630551;0.84500
15633329;0.92000
15636107;0.90000
15638885;0.77000
15641662;0.51500
15644440;0.21500
15647218;-0.05500
15649996;-0.26000
15652773;-0.39000
15655551;-0.50000
15658329;-0.53500
15661107;-0.52000
15663885;-0.45500
15666662;-0.39000
15669440;-0.38500
15672218;-0.39500
15674996;-0.40000
15677773;-0.39500
15680551;-0.38000
15683329;-0.37500
15686107;-0.37000
15688884;-0.38000
15691662;-0.38000
15694440;-0.38000
15697218;-0.36500
15699996;-0.34500
15702773;-0.36000
15705551;-0.37000
15708329;-0.37500
15711107;-0.37500
15713884;-0.36500
15716662;-0.37000
15719440;-0.37500
15722218;-0.36500
15724996;-0.37500
15727773;-0.38000
15730551;-0.37000
15733329;-0.36500
15736107;-0.36500
15738884;-0.36500
15741662;-0.37000
15744440;-0.38000
15747218;-0.36500
15749996;-0.35500
15752773;-0.35000
15755551;-0.35500
15758329;-0.37000
15761107;-0.39000
15763884;-0.37000
15766662;-0.38000
15769440;-0.35500
15772218;-0.36500
15774996;-0.37500
15777773;-0.38500
15780551;-0.37500
15783329;-0.36500
15786107;-0.37000
15788884;-0.36000
15791662;-0.37000
15794440;-0.37500
15797218;-0.35500
15799996;-0.35500
15802773;-0.34500
15805551;-0.37000
15808329;-0.36500
15811107;-0.37000
15813884;-0.38000
15816662;-0.36000
15819440;-0.36000
15822218;-0.36500
15824996;-0.38000
15827773;-0.38000
15830551;-0.37500
15833329;-0.36500
15836107;-0.36000
15838884;-0.38000
15841662;-0.39000
15844440;-0.39500
15847218;-0.37000
15849996;-0.36000
15852773;-0.36500
15855551;-0.36000
15858329;-0.37500
15861107;-0.37000
15863884;-0.37000
15866662;-0.36500
15869440;-0.37000
15872218;-0.37000
15874996;-0.38500
15877773;-0.39500
15880551;-0.39500
15883329;-0.38500
15886107;-0.38000
15888884;-0.39500
15891662;-0.39500
15894440;-0.40000
15897218;-0.39500
15899996;-0.38500
15902773;-0.38500
15905551;-0.39000
15908329;-0.38000
15911107;-0.39000
15913884;-0.38500
15916662;-0.36500
15919440;-0.35000
15922218;-0.34500
15924996;-0.33500
15927773;-0.32000
15930551;-0.31000
15933329;-0.29500
15936107;-0.28500
15938884;-0.30000
15941662;-0.31000
15944440;-0.31500
15947218;-0.30000
15949996;-0.28500
15952773;-0.27000
15955551;-0.27500
15958329;-0.27500
15961107;-0.27500
15963884;-0.27000
15966662;-0.27000
15969440;-0.26500
15972218;-0.27500
15974996;-0.28000
15977773;-0.28500
15980551;-0.28500
15983329;-0.26500
15986107;-0.26500
15988884;-0.27500
15991662;-0.29500
15994440;-0.29500
15997218;-0.28500
15999996;-0.27500
16002773;-0.27000
16005551;-0.28000
16008329;-0.28500
16011107;-0.29000
16013884;-0.28500
16016662;-0.28500
16019440;-0.28500
16022218;-0.28500
16024996;-0.30000
16027773;-0.30000
16030551;-0.30500
16033329;-0.30500
16036107;-0.30000
16038884;-0.29500
16041662;-0.31500
16044440;-0.32500
16047218;-0.31500
16049996;-0.32000
16052773;-0.30500
16055551;-0.32000
16058329;-0.32000
16061107;-0.32000
16063884;-0.32500
16066662;-0.31500
16069440;-0.31500
16072218;-0.32500
16074995;-0.33000
16077773;-0.34000
16080551;-0.32500
16083329;-0.31500
16086107;-0.31500
16088884;-0.32500
16091662;-0.34500
16094440;-0.36500
16097218;-0.35000
16099995;-0.34000
16102773;-0.34000
16105551;-0.34000
16108329;-0.34500
16111107;-0.36000
16113884;-0.35000
16116662;-0.34000
16119440;-0.35000
16122218;-0.35000
16124995;-0.36000
16127773;-0.36500
16130551;-0.34500
16133329;-0.34000
16136107;-0.34000
16138884;-0.34000
16141662;-0.35000
16144440;-0.36000
16147218;-0.36000
16149995;-0.34500
16152773;-0.33500
16155551;-0.34000
16158329;-0.34500
16161107;-0.35500
16163884;-0.35000
16166662;-0.35000
16169440;-0.35000
16172218;-0.35500
16174995;-0.36000
16177773;-0.35500
16180551;-0.34500
16183329;-0.33500
16186107;-0.34000
16188884;-0.34000
16191662;-0.33000
16194440;-0.32500
16197218;-0.31500
16199995;-0.29000
16202773;-0.28000
16205551;-0.28500
16208329;-0.31500
16211107;-0.29500
16213884;-0.29500
16216662;-0.27500
16219440;-0.28000
16222218;-0.27500
16224995;-0.25500
16227773;-0.25000
16230551;-0.24000
16233329;-0.23500
16236107;-0.23500
16238884;-0.24000
16241662;-0.25500
16244440;-0.26000
16247218;-0.25000
16249995;-0.24500
16252773;-0.24000
16255551;-0.25000
16258329;-0.26000
16261107;-0.28000
16263884;-0.28000
16266662;-0.27000
16269440;-0.25000
16272218;-0.25000
16274995;-0.27000
16277773;-0.30500
16280551;-0.32000
16283329;-0.32000
16286107;-0.33000
16288884;-0.36000
16291662;-0.37500
16294440;-0.39000
16297218;-0.38500
16299995;-0.36500
16302773;-0.36000
16305551;-0.37500
16308329;-0.37000
16311107;-0.37000
16313884;-0.37000
16316662;-0.36500
16319440;-0.38000
16322218;-0.38500
16324995;-0.40000
16327773;-0.39000
16330551;-0.39000
16333329;-0.39000
16336107;-0.39000
16338884;-0.38500
16341662;-0.40000
16344440;-0.40000
16347218;-0.39500
16349995;-0.38000
16352773;-0.37500
16355551;-0.38000
16358329;-0.38500
16361107;-0.39500
16363884;-0.40500
16366662;-0.43500
16369440;-0.47000
16372218;-0.49500
16374995;-0.52500
16377773;-0.58000
16380551;-0.59000
16383329;-0.54000
16386107;-0.44500
16388884;-0.32500
16391662;-0.18500
16394440;0.00500
16397218;0.29500
16399995;0.55500
16402773;0.74500
16405551;0.81500
16408329;0.70500
16411107;0.40500
16413884;0.02000
16416662;-0.29500
16419440;-0.48500
16422218;-0.55500
16424995;-0.55000
16427773;-0.50000
16430551;-0.45000
16433329;-0.43500
16436107;-0.43500
16438884;-0.44000
16441662;-0.46000
16444440;-0.46500
16447218;-0.45000
16449995;-0.44000
16452773;-0.44500
16455551;-0.44000
16458329;-0.44500
16461107;-0.45500
16463884;-0.44500
16466662;-0.43500
16469440;-0.44000
16472218;-0.43500
16474995;-0.44500
16477773;-0.43500
16480551;-0.43000
16483329;-0.42500
16486106;-0.43000
16488884;-0.42000
16491662;-0.43000
16494440;-0.43500
16497218;-0.44000
16499995;-0.43500
16502773;-0.43500
16505551;-0.44000
16508329;-0.45500
16511106;-0.45500
16513884;-0.46000
16516662;-0.45000
16519440;-0.45000
16522218;-0.45000
16524995;-0.45500
16527773;-0.46500
16530551;-0.46000
16533329;-0.45000
16536106;-0.45500
16538884;-0.45500
16541662;-0.46000
16544440;-0.46500
16547218;-0.46000
16549995;-0.45000
16552773;-0.44500
16555551;-0.44500
16558329;-0.44000
16561106;-0.45000
16563884;-0.45000
16566662;-0.44500
16569440;-0.43500
16572218;-0.44500
16574995;-0.44500
16577773;-0.46500
16580551;-0.47000
16583329;-0.46500
16586106;-0.47000
16588884;-0.45500
16591662;-0.45000
16594440;-0.45000
16597218;-0.44500
16599995;-0.45500
16602773;-0.44500
16605551;-0.46500
16608329;-0.48000
16611106;-0.48000
16613884;-0.49000
16616662;-0.47500
16619440;-0.47500
16622218;-0.48500
16624995;-0.49500
16627773;-0.49000
16630551;-0.49500
16633329;-0.49000
16636106;-0.49000
16638884;-0.50000
16641662;-0.49500
16644440;-0.51000
16647218;-0.51000
16649995;-0.50500
16652773;-0.50000
16655551;-0.51000
16658329;-0.51500
16661106;-0.52000
16663884;-0.51000
16666662;-0.51000
16669440;-0.49000
16672218;-0.49000
16674995;-0.49000
16677773;-0.48000
16680551;-0.45500
16683329;-0.45500
16686106;-0.42500
16688884;-0.41500
16691662;-0.41000
16694440;-0.41000
16697218;-0.38500
16699995;-0.37000
16702773;-0.36000
16705551;-0.36500
16708329;-0.37000
16711106;-0.37000
16713884;-0.35000
16716662;-0.34500
16719440;-0.34000
16722218;-0.34500
16724995;-0.34500
16727773;-0.34000
16730551;-0.34000
16733329;-0.32000
16736106;-0.32000
16738884;-0.32000
16741662;-0.33500
16744440;-0.34000
16747218;-0.33000
16749995;-0.32000
16752773;-0.33000
16755551;-0.33500
16758329;-0.34000
16761106;-0.36000
16763884;-0.34000
16766662;-0.33500
16769440;-0.32500
16772218;-0.33500
16774995;-0.34000
16777773;-0.34500
16780551;-0.35000
16783329;-0.32500
16786106;-0.34000
16788884;-0.33000
16791662;-0.33500
16794440;-0.35000
16797218;-0.35000
16799995;-0.33000
16802773;-0.33500
16805551;-0.35500
16808329;-0.36000
16811106;-0.35500
16813884;-0.36000
16816662;-0.35500
16819440;-0.35500
16822218;-0.36000
16824995;-0.36000
16827773;-0.37500
16830551;-0.37500
16833329;-0.35500
16836106;-0.36500
16838884;-0.37000
16841662;-0.37000
16844440;-0.38500
16847218;-0.38000
16849995;-0.36500
16852773;-0.37000
16855551;-0.37500
16858329;-0.38500
16861106;-0.38000
16863884;-0.37000
16866662;-0.37000
16869440;-0.35500
16872217;-0.36000
16874995;-0.36000
16877773;-0.36500
16880551;-0.36000
16883329;-0.35500
16886106;-0.34500
16888884;-0.35500
16891662;-0.36000
16894440;-0.37500
16897217;-0.37500
16899995;-0.37000
16902773;-0.35500
16905551;-0.37000
16908329;-0.37000
16911106;-0.37000
16913884;-0.35500
16916662;-0.36000
16919440;-0.36000
16922217;-0.36000
16924995;-0.37000
16927773;-0.37000
16930551;-0.36000
16933329;-0.35000
16936106;-0.35500
16938884;-0.34000
16941662;-0.34000
16944440;-0.34000
16947217;-0.32500
16949995;-0.30000
16952773;-0.29500
16955551;-0.28500
16958329;-0.29500
16961106;-0.31500
16963884;-0.30000
16966662;-0.27000
16969440;-0.26500
16972217;-0.26500
16974995;-0.26500
16977773;-0.26500
16980551;-0.25000
16983329;-0.25500
16986106;-0.25000
16988884;-0.25500
16991662;-0.26000
16994440;-0.26500
16997217;-0.26500
16999995;-0.25000
17002773;-0.26000
17005551;-0.27500
17008329;-0.29000
17011106;-0.28500
17013884;-0.27500
17016662;-0.23500
17019440;-0.23500
17022217;-0.27500
17024995;-0.30500
17027773;-0.32500
17030551;-0.32500
17033329;-0.34000
17036106;-0.34500
17038884;-0.36500
17041662;-0.37500
17044440;-0.39000
17047217;-0.38500
17049995;-0.38000
17052773;-0.36500
17055551;-0.37000
17058329;-0.38500
17061106;-0.39500
17063884;-0.38500
17066662;-0.37500
17069440;-0.37500
17072217;-0.37500
17074995;-0.38500
17077773;-0.39000
17080551;-0.37500
17083329;-0.37000
17086106;-0.37500
17088884;-0.36500
17091662;-0.38000
17094440;-0.39500
17097217;-0.39000
17099995;-0.38500
17102773;-0.38500
17105551;-0.38500
17108329;-0.40000
17111106;-0.42000
17113884;-0.45000
17116662;-0.48000
17119440;-0.49000
17122217;-0.52000
17124995;-0.58000
17127773;-0.59500
17130551;-0.54500
17133329;-0.43000
17136106;-0.30000
17138884;-0.16000
17141662;0.00500
17144440;0.25000
17147217;0.53500
17149995;0.73000
17152773;0.82500
17155551;0.75500
17158329;0.49500
17161106;0.08500
17163884;-0.28000
17166662;-0.50000
17169440;-0.58500
17172217;-0.58000
17174995;-0.55500
17177773;-0.53000
17180551;-0.46000
17183329;-0.42500
17186106;-0.42000
17188884;-0.43500
17191662;-0.44000
17194440;-0.46500
17197217;-0.44000
17199995;-0.42500
17202773;-0.42500
17205551;-0.42000
17208329;-0.44500
17211106;-0.44000
17213884;-0.43500
17216662;-0.43500
17219440;-0.42500
17222217;-0.43500
17224995;-0.43000
17227773;-0.44000
17230551;-0.43500
17233329;-0.41500
17236106;-0.41000
17238884;-0.41500
17241662;-0.42500
17244440;-0.43500
17247217;-0.43000
17249995;-0.41000
17252773;-0.41500
17255551;-0.42000
17258329;-0.43500
17261106;-0.44000
17263884;-0.43000
17266662;-0.42500
17269440;-0.41500
17272217;-0.42500
17274995;-0.43500
17277773;-0.43000
17280551;-0.43000
17283328;-0.42500
17286106;-0.42000
17288884;-0.42000
17291662;-0.44500
17294440;-0.43500
17297217;-0.42500
17299995;-0.41000
17302773;-0.42000
17305551;-0.42500
17308328;-0.42500
17311106;-0.44000
17313884;-0.43500
17316662;-0.42000
17319440;-0.43000
17322217;-0.42000
17324995;-0.43500
17327773;-0.43500
17330551;-0.43500
17333328;-0.42500
17336106;-0.42500
17338884;-0.44000
17341662;-0.45000
17344440;-0.44000
17347217;-0.43500
17349995;-0.43000
17352773;-0.42000
17355551;-0.42500
17358328;-0.43500
17361106;-0.42500
17363884;-0.42500
17366662;-0.42000
17369440;-0.42000
17372217;-0.42000
17374995;-0.44500
17377773;-0.44000
17380551;-0.44500
17383328;-0.42500
17386106;-0.43500
17388884;-0.43500
17391662;-0.45000
17394440;-0.46000
17397217;-0.47000
17399995;-0.44500
17402773;-0.44000
17405551;-0.44500
17408328;-0.46000
17411106;-0.45000
17413884;-0.45000
17416662;-0.44500
17419440;-0.44000
17422217;-0.44000
17424995;-0.44000
17427773;-0.45000
17430551;-0.43000
17433328;-0.42000
17436106;-0.39000
17438884;-0.40000
17441662;-0.39500
17444440;-0.39500
17447217;-0.38500
17449995;-0.36000
17452773;-0.34000
17455551;-0.35000
17458328;-0.34500
17461106;-0.33500
17463884;-0.32500
17466662;-0.31000
17469440;-0.31500
17472217;-0.31000
17474995;-0.31500
17477773;-0.32000
17480551;-0.31000
17483328;-0.29500
17486106;-0.30000
17488884;-0.30500
17491662;-0.30500
17494440;-0.32000
17497217;-0.32000
17499995;-0.29500
17502773;-0.29000
17505551;-0.30000
17508328;-0.30500
17511106;-0.32000
17513884;-0.29500
17516662;-0.28000
17519440;-0.28500
17522217;-0.28500
17524995;-0.30000
17527773;-0.30000
17530551;-0.30500
17533328;-0.29500
17536106;-0.29000
17538884;-0.29500
17541662;-0.31500
17544440;-0.32000
17547217;-0.31000
17549995;-0.31000
17552773;-0.30500
17555551;-0.30500
17558328;-0.31000
17561106;-0.32500
17563884;-0.31500
17566662;-0.31000
17569440;-0.31000
17572217;-0.32000
17574995;-0.32000
17577773;-0.33000
17580551;-0.33000
17583328;-0.32000
17586106;-0.31000
17588884;-0.31500
17591662;-0.32500
17594440;-0.33500
17597217;-0.32000
17599995;-0.31500
17602773;-0.31500
17605551;-0.30500
17608328;-0.31500
17611106;-0.33000
17613884;-0.31500
17616662;-0.29500
17619440;-0.30500
17622217;-0.31000
17624995;-0.33000
17627773;-0.33500
17630551;-0.34000
17633328;-0.32500
17636106;-0.32000
17638884;-0.32500
17641662;-0.33500
17644440;-0.34000
17647217;-0.33500
17649995;-0.33000
17652773;-0.32500
17655551;-0.32000
17658328;-0.33500
17661106;-0.33500
17663884;-0.33000
17666662;-0.32000
17669439;-0.31000
17672217;-0.31500
17674995;-0.31500
17677773;-0.32000
17680551;-0.31000
17683328;-0.31500
17686106;-0.31000
17688884;-0.31000
17691662;-0.32000
17694439;-0.31500
17697217;-0.31000
17699995;-0.29500
17702773;-0.28000
17705551;-0.28000
17708328;-0.26500
17711106;-0.25500
17713884;-0.24000
17716662;-0.24000
17719439;-0.24000
17722217;-0.23000
17724995;-0.22500
17727773;-0.22000
17730551;-0.21000
17733328;-0.19000
17736106;-0.18500
17738884;-0.19000
17741662;-0.21500
17744439;-0.22000
17747217;-0.22000
17749995;-0.22500
17752773;-0.22000
17755551;-0.21500
17758328;-0.22500
17761106;-0.24500
17763884;-0.24500
17766662;-0.23000
17769439;-0.20500
17772217;-0.19000
17774995;-0.20000
17777773;-0.23000
17780551;-0.25000
17783328;-0.27000
17786106;-0.28000
17788884;-0.27500
17791662;-0.30000
17794439;-0.31000
17797217;-0.30500
17799995;-0.31500
17802773;-0.31000
17805551;-0.31500
17808328;-0.32000
17811106;-0.33000
17813884;-0.32000
17816662;-0.31500
17819439;-0.32000
17822217;-0.33500
17824995;-0.32500
17827773;-0.34500
17830551;-0.34500
17833328;-0.33000
17836106;-0.33500
17838884;-0.33500
17841662;-0.35000
17844439;-0.34500
17847217;-0.34500
17849995;-0.35000
17852773;-0.34500
17855551;-0.34500
17858328;-0.35000
17861106;-0.37000
17863884;-0.35500
17866662;-0.34000
17869439;-0.34500
17872217;-0.35000
17874995;-0.37000
17877773;-0.41000
17880551;-0.43000
17883328;-0.45500
17886106;-0.46000
17888884;-0.50000
17891662;-0.53500
17894439;-0.52500
17897217;-0.44500
17899995;-0.32500
17902773;-0.19000
17905551;-0.03500
17908328;0.18000
17911106;0.44000
17913884;0.69000
17916662;0.83000
17919439;0.87000
17922217;0.76000
17924995;0.50000
17927773;0.13000
17930551;-0.18500
17933328;-0.40000
17936106;-0.50500
17938884;-0.54000
17941662;-0.53000
17944439;-0.48000
17947217;-0.41500
17949995;-0.38000
17952773;-0.39000
17955551;-0.39500
17958328;-0.40000
17961106;-0.40500
17963884;-0.39500
17966662;-0.37500
17969439;-0.38500
17972217;-0.39000
17974995;-0.40000
17977773;-0.40000
17980551;-0.40000
17983328;-0.39000
17986106;-0.39000
17988884;-0.38000
17991662;-0.39000
17994439;-0.40000
17997217;-0.40000
17999995;-0.39000
18002773;-0.39000
18005551;-0.39000
18008328;-0.40500
18011106;-0.41000
18013884;-0.40000
18016662;-0.38000
18019439;-0.37500
18022217;-0.37500
18024995;-0.39000
18027773;-0.40500
18030551;-0.39500
18033328;-0.38500
18036106;-0.38000
18038884;-0.39500
18041662;-0.40000
18044439;-0.39500
18047217;-0.39000
18049995;-0.39500
18052773;-0.38500
18055550;-0.38500
18058328;-0.40500
18061106;-0.40500
18063884;-0.39500
18066662;-0.38500
18069439;-0.36500
18072217;-0.36000
18074995;-0.37000
18077773;-0.38500
18080550;-0.38000
18083328;-0.38000
18086106;-0.37000
18088884;-0.37500
18091662;-0.37500
18094439;-0.39000
18097217;-0.38000
18099995;-0.38500
18102773;-0.38500
18105550;-0.38000
18108328;-0.38500
18111106;-0.40500
18113884;-0.39500
18116662;-0.38000
18119439;-0.37500
18122217;-0.38500
18124995;-0.38000
18127773;-0.40500
18130550;-0.38500
18133328;-0.38500
18136106;-0.37500
18138884;-0.37000
18141662;-0.38000
18144439;-0.39000
18147217;-0.38500
18149995;-0.37500
18152773;-0.36500
18155550;-0.37500
18158328;-0.38000
18161106;-0.39500
18163884;-0.40000
18166662;-0.40000
18169439;-0.38000
18172217;-0.40000
18174995;-0.40000
18177773;-0.41000
18180550;-0.40500
18183328;-0.39000
18186106;-0.38500
18188884;-0.38000
18191662;-0.38500
18194439;-0.40500
18197217;-0.38500
18199995;-0.36000
18202773;-0.36000
18205550;-0.36000
18208328;-0.36000
18211106;-0.35500
18213884;-0.34000
18216662;-0.32000
18219439;-0.31000
18222217;-0.30500
18224995;-0.31000
18227773;-0.31000
18230550;-0.30000
18233328;-0.29000
18236106;-0.28500
18238884;-0.28500
18241662;-0.28000
18244439;-0.28500
18247217;-0.28000
18249995;-0.26500
18252773;-0.26500
18255550;-0.26500
18258328;-0.27000
18261106;-0.29000
18263884;-0.28000
18266662;-0.27500
18269439;-0.27000
18272217;-0.28000
18274995;-0.28500
18277773;-0.29000
18280550;-0.29500
18283328;-0.27500
18286106;-0.27000
18288884;-0.28000
18291662;-0.28500
18294439;-0.29500
18297217;-0.29500
18299995;-0.28000
18302773;-0.28500
18305550;-0.29500
18308328;-0.30500
18311106;-0.29500
18313884;-0.29000
18316662;-0.28000
18319439;-0.27500
18322217;-0.29000
18324995;-0.29500
18327773;-0.29500
18330550;-0.28500
18333328;-0.28000
18336106;-0.28500
18338884;-0.29500
18341662;-0.30500
18344439;-0.31500
18347217;-0.31000
18349995;-0.31500
18352773;-0.30000
18355550;-0.30000
18358328;-0.31500
18361106;-0.32500
18363884;-0.30500
18366662;-0.30000
18369439;-0.30000
18372217;-0.30500
18374995;-0.30500
18377773;-0.31500
18380550;-0.30500
18383328;-0.30500
18386106;-0.30500
18388884;-0.31000
18391662;-0.32500
18394439;-0.31500
18397217;-0.31500
18399995;-0.30500
18402773;-0.30000
18405550;-0.30000
18408328;-0.31000
18411106;-0.31500
18413884;-0.32000
18416662;-0.30500
18419439;-0.30000
18422217;-0.31000
18424995;-0.31000
18427773;-0.32500
18430550;-0.31500
18433328;-0.31500
18436106;-0.30500
18438884;-0.29500
18441662;-0.31500
18444439;-0.32000
18447217;-0.31500
18449995;-0.31500
18452773;-0.30000
18455550;-0.30500
18458328;-0.31500
18461106;-0.33000
18463884;-0.31000
18466661;-0.31000
18469439;-0.29500
18472217;-0.29500
18474995;-0.28000
18477773;-0.28500
18480550;-0.26500
18483328;-0.25000
18486106;-0.24000
18488884;-0.23000
18491661;-0.22500
18494439;-0.24000
18497217;-0.23000
18499995;-0.22500
18502773;-0.21500
18505550;-0.20500
18508328;-0.20000
18511106;-0.20500
18513884;-0.20500
18516661;-0.18000
18519439;-0.17000
18522217;-0.17500
18524995;-0.19500
18527773;-0.21500
18530550;-0.20000
18533328;-0.20500
18536106;-0.20000
18538884;-0.21000
18541661;-0.20500
18544439;-0.21500
18547217;-0.21000
18549995;-0.21500
18552773;-0.21000
18555550;-0.19000
18558328;-0.17500
18561106;-0.18000
18563884;-0.19500
18566661;-0.22000
18569439;-0.23500
18572217;-0.26000
18574995;-0.27500
18577773;-0.29500
18580550;-0.31500
18583328;-0.30500
18586106;-0.32500
18588884;-0.33000
18591661;-0.33500
18594439;-0.34500
18597217;-0.33000
18599995;-0.32500
18602773;-0.31500
18605550;-0.31500
18608328;-0.33000
18611106;-0.33500
18613884;-0.33500
18616661;-0.32000
18619439;-0.32500
18622217;-0.32000
18624995;-0.32000
18627773;-0.32000
18630550;-0.32000
18633328;-0.31000
18636106;-0.32500
18638884;-0.33000
18641661;-0.34500
18644439;-0.35500
18647217;-0.35500
18649995;-0.34000
18652773;-0.32500
18655550;-0.33500
18658328;-0.33000
18661106;-0.35000
18663884;-0.35000
18666661;-0.34500
18669439;-0.36500
18672217;-0.40500
18674995;-0.44000
18677773;-0.47000
18680550;-0.49500
18683328;-0.52000
18686106;-0.54000
18688884;-0.50500
18691661;-0.42000
18694439;-0.31000
18697217;-0.16000
18699995;0.03000
18702773;0.26500
18705550;0.52000
18708328;0.71500
18711106;0.79500
18713884;0.79000
18716661;0.63000
18719439;0.33000
18722217;-0.04500
18724995;-0.33500
18727773;-0.49000
18730550;-0.49500
18733328;-0.45500
18736106;-0.40500
18738884;-0.38500
18741661;-0.39500
18744439;-0.41500
18747217;-0.40000
18749995;-0.39000
18752773;-0.38000
18755550;-0.37500
18758328;-0.38000
18761106;-0.39000
18763884;-0.38500
18766661;-0.37000
18769439;-0.35500
18772217;-0.37000
18774995;-0.37500
18777773;-0.39000
18780550;-0.38500
18783328;-0.38500
18786106;-0.37500
18788884;-0.37500
18791661;-0.38500
18794439;-0.39500
18797217;-0.39000
18799995;-0.38000
18802773;-0.38500
18805550;-0.39500
18808328;-0.38500
18811106;-0.40500
18813884;-0.39500
18816661;-0.37500
18819439;-0.38000
18822217;-0.38500
18824995;-0.38000
18827773;-0.39000
18830550;-0.39000
18833328;-0.37500
18836106;-0.38500
18838884;-0.39000
18841661;-0.39000
18844439;-0.40500
18847217;-0.39500
18849995;-0.39500
18852772;-0.38000
18855550;-0.38000
18858328;-0.39000
18861106;-0.40000
18863884;-0.40000
18866661;-0.38500
18869439;-0.39000
18872217;-0.38000
18874995;-0.39000
18877772;-0.39500
18880550;-0.39500
18883328;-0.38000
18886106;-0.38500
18888884;-0.37500
18891661;-0.39000
18894439;-0.40000
18897217;-0.38500
18899995;-0.39000
18902772;-0.38000
18905550;-0.39000
18908328;-0.39500
18911106;-0.39000
18913884;-0.39000
18916661;-0.36000
18919439;-0.35500
18922217;-0.36000
18924995;-0.37500
18927772;-0.39000
18930550;-0.38000
18933328;-0.38500
18936106;-0.38000
18938884;-0.39000
18941661;-0.40000
18944439;-0.41000
18947217;-0.41000
18949995;-0.40500
18952772;-0.40500
18955550;-0.41000
18958328;-0.43000
18961106;-0.44500
18963884;-0.43000
18966661;-0.44000
18969439;-0.42000
18972217;-0.42500
18974995;-0.42500
18977772;-0.43500
18980550;-0.42500
18983328;-0.41000
18986106;-0.41500
18988884;-0.41000
18991661;-0.42500
18994439;-0.42500
18997217;-0.41500
18999995;-0.39500
19002772;-0.38000
19005550;-0.36000
19008328;-0.36500
19011106;-0.37500
19013884;-0.36500
19016661;-0.35000
19019439;-0.33500
19022217;-0.32500
19024995;-0.32000
19027772;-0.34000
19030550;-0.32500
19033328;-0.31000
19036106;-0.32000
19038884;-0.30500
19041661;-0.30500
19044439;-0.31500
19047217;-0.31000
19049995;-0.29500
19052772;-0.29000
19055550;-0.29000
19058328;-0.29500
19061106;-0.30000
19063884;-0.30000
19066661;-0.28500
19069439;-0.27500
19072217;-0.27000
19074995;-0.27000
19077772;-0.29500
19080550;-0.29000
19083328;-0.28500
19086106;-0.27500
19088884;-0.26500
19091661;-0.27500
19094439;-0.29000
19097217;-0.30000
19099995;-0.29000
19102772;-0.30500
19105550;-0.29500
19108328;-0.30500
19111106;-0.32500
19113884;-0.31000
19116661;-0.29000
19119439;-0.28000
19122217;-0.29000
19124995;-0.30500
19127772;-0.32000
19130550;-0.31000
19133328;-0.30500
19136106;-0.30000
19138884;-0.30500
19141661;-0.31500
19144439;-0.31000
19147217;-0.31000
19149995;-0.30000
19152772;-0.29500
19155550;-0.30500
19158328;-0.32500
19161106;-0.33000
