time_ms;ecg_value
0;-0.15500
2778;-0.16000
5556;-0.15000
8333;-0.12000
11111;-0.11000
13889;-0.12000
16667;-0.15500
19444;-0.18000
22222;-0.20000
25000;-0.20500
27778;-0.21000
30556;-0.21000
33333;-0.22500
36111;-0.24000
38889;-0.25000
41667;-0.25500
44444;-0.24500
47222;-0.24000
50000;-0.23000
52778;-0.24500
55556;-0.25500
58333;-0.25000
61111;-0.25000
63889;-0.24500
66667;-0.25500
69444;-0.26500
72222;-0.27000
75000;-0.27000
77778;-0.26500
80556;-0.25000
83333;-0.25000
86111;-0.26000
88889;-0.28000
91667;-0.27500
94444;-0.28000
97222;-0.26500
100000;-0.27500
102778;-0.30500
105556;-0.34500
108333;-0.38500
111111;-0.39500
113889;-0.40000
116667;-0.44000
119444;-0.48000
122222;-0.52500
125000;-0.48500
127778;-0.41000
130556;-0.33000
133333;-0.22500
136111;-0.13500
138889;-0.04500
141667;0.11000
144444;0.31500
147222;0.55000
150000;0.75500
152778;0.90000
155556;0.97500
158333;1.04000
161111;1.01000
163889;0.83500
166667;0.46000
169444;0.04500
172222;-0.26500
175000;-0.38500
177778;-0.36000
180556;-0.31000
183333;-0.27500
186111;-0.28500
188889;-0.30500
191667;-0.29500
194444;-0.29000
197222;-0.28500
200000;-0.28500
202778;-0.30000
205555;-0.31500
208333;-0.31000
211111;-0.31500
213889;-0.30000
216667;-0.30500
219444;-0.31000
222222;-0.32500
225000;-0.31500
227778;-0.30000
230555;-0.30500
233333;-0.29500
236111;-0.30500
238889;-0.31000
241667;-0.31000
244444;-0.30500
247222;-0.30000
250000;-0.29500
252778;-0.31000
255555;-0.31000
258333;-0.31000
261111;-0.29000
263889;-0.29000
266667;-0.30000
269444;-0.30500
272222;-0.32000
275000;-0.31000
277778;-0.30000
280555;-0.30000
283333;-0.30000
286111;-0.32000
288889;-0.32000
291667;-0.31500
294444;-0.29500
297222;-0.30000
300000;-0.29500
302778;-0.29500
305555;-0.30500
308333;-0.31000
311111;-0.31000
313889;-0.30000
316667;-0.29000
319444;-0.30500
322222;-0.31000
325000;-0.31000
327778;-0.30000
330555;-0.29000
333333;-0.28500
336111;-0.30000
338889;-0.33000
341667;-0.31500
344444;-0.30500
347222;-0.30000
350000;-0.28500
352778;-0.30000
355555;-0.31500
358333;-0.31000
361111;-0.30500
363889;-0.29500
366667;-0.29500
369444;-0.30500
372222;-0.32000
375000;-0.31500
377778;-0.31000
380555;-0.30500
383333;-0.31000
386111;-0.30500
388889;-0.31000
391667;-0.30500
394444;-0.29500
397222;-0.29000
400000;-0.29000
402778;-0.29500
405555;-0.32000
408333;-0.30500
411111;-0.30500
413889;-0.29500
416667;-0.30000
419444;-0.30500
422222;-0.30500
425000;-0.31000
427778;-0.31000
430555;-0.29000
433333;-0.29500
436111;-0.30500
438889;-0.31000
441667;-0.32000
444444;-0.31000
447222;-0.29500
450000;-0.28500
452778;-0.28500
455555;-0.28000
458333;-0.27000
461111;-0.26500
463889;-0.25000
466667;-0.23500
469444;-0.23500
472222;-0.23000
475000;-0.21500
477778;-0.21500
480555;-0.19500
483333;-0.20500
486111;-0.21000
488889;-0.20500
491667;-0.22000
494444;-0.20000
497222;-0.19500
500000;-0.20000
502778;-0.20500
505555;-0.22000
508333;-0.21000
511111;-0.19500
513889;-0.19000
516667;-0.19000
519444;-0.19500
522222;-0.20500
525000;-0.20500
527778;-0.19000
530555;-0.18000
533333;-0.18000
536111;-0.18500
538889;-0.20500
541667;-0.20000
544444;-0.20500
547222;-0.19000
550000;-0.19000
552778;-0.19000
555555;-0.21500
558333;-0.22000
561111;-0.20500
563889;-0.19500
566667;-0.19500
569444;-0.21000
572222;-0.22000
575000;-0.22000
577778;-0.21000
580555;-0.21500
583333;-0.21000
586111;-0.22000
588889;-0.22500
591667;-0.23500
594444;-0.23500
597222;-0.22000
600000;-0.22000
602778;-0.23000
605555;-0.24500
608333;-0.22500
611111;-0.22500
613889;-0.22000
616666;-0.22500
619444;-0.22500
622222;-0.23500
625000;-0.23500
627778;-0.23000
630555;-0.24000
633333;-0.23000
636111;-0.24500
638889;-0.27000
641666;-0.25500
644444;-0.25000
647222;-0.25000
650000;-0.24500
652778;-0.25500
655555;-0.26500
658333;-0.26000
661111;-0.25500
663889;-0.24500
666666;-0.24500
669444;-0.25500
672222;-0.26000
675000;-0.25000
677778;-0.24500
680555;-0.23000
683333;-0.23000
686111;-0.24500
688889;-0.26000
691666;-0.25500
694444;-0.24000
697222;-0.23500
700000;-0.22500
702778;-0.24500
705555;-0.26000
708333;-0.25000
711111;-0.24000
713889;-0.23500
716666;-0.24000
719444;-0.26500
722222;-0.27000
725000;-0.26000
727778;-0.25000
730555;-0.23500
733333;-0.24000
736111;-0.24500
738889;-0.25500
741666;-0.25000
744444;-0.24500
747222;-0.24000
750000;-0.23000
752778;-0.23500
755555;-0.24500
758333;-0.24500
761111;-0.24500
763889;-0.22500
766666;-0.22000
769444;-0.23000
772222;-0.22500
775000;-0.20000
777778;-0.19000
780555;-0.17500
783333;-0.17000
786111;-0.16500
788889;-0.17500
791666;-0.17000
794444;-0.16000
797222;-0.14500
800000;-0.14500
802778;-0.15000
805555;-0.15500
808333;-0.14500
811111;-0.14500
813889;-0.14000
816666;-0.14500
819444;-0.15000
822222;-0.17000
825000;-0.17500
827778;-0.15500
830555;-0.14000
833333;-0.15500
836111;-0.15500
838889;-0.17500
841666;-0.17000
844444;-0.14500
847222;-0.12000
850000;-0.12000
852778;-0.14500
855555;-0.19500
858333;-0.21500
861111;-0.21500
863889;-0.22000
866666;-0.23500
869444;-0.25500
872222;-0.25500
875000;-0.26000
877778;-0.26500
880555;-0.26500
883333;-0.25500
886111;-0.26500
888889;-0.27000
891666;-0.27500
894444;-0.26000
897222;-0.26000
900000;-0.26500
902778;-0.26500
905555;-0.28500
908333;-0.28500
911111;-0.27000
913889;-0.26500
916666;-0.26500
919444;-0.28000
922222;-0.29500
925000;-0.27500
927778;-0.27000
930555;-0.26500
933333;-0.26500
936111;-0.27500
938889;-0.28000
941666;-0.27500
944444;-0.27500
947222;-0.28000
950000;-0.28500
952778;-0.30500
955555;-0.32000
958333;-0.33500
961111;-0.37000
963889;-0.39000
966666;-0.40500
969444;-0.43500
972222;-0.48000
975000;-0.49000
977778;-0.43000
980555;-0.32000
983333;-0.19500
986111;-0.04500
988889;0.12000
991666;0.37500
994444;0.63000
997222;0.79500
1000000;0.87000
1002777;0.80000
1005555;0.58000
1008333;0.23500
1011111;-0.08500
1013889;-0.30000
1016666;-0.39000
1019444;-0.39500
1022222;-0.36500
1025000;-0.33000
1027777;-0.30500
1030555;-0.29500
1033333;-0.29500
1036111;-0.30000
1038889;-0.31000
1041666;-0.29500
1044444;-0.29500
1047222;-0.30500
1050000;-0.29500
1052777;-0.30000
1055555;-0.30500
1058333;-0.31500
1061111;-0.31000
1063889;-0.30000
1066666;-0.30000
1069444;-0.31500
1072222;-0.32000
1075000;-0.32500
1077777;-0.31000
1080555;-0.31500
1083333;-0.30500
1086111;-0.32000
1088889;-0.32000
1091666;-0.33000
1094444;-0.31000
1097222;-0.31500
1100000;-0.31500
1102777;-0.31500
1105555;-0.32500
1108333;-0.31500
1111111;-0.30000
1113889;-0.28500
1116666;-0.29000
1119444;-0.28500
1122222;-0.30500
1125000;-0.30500
1127777;-0.30000
1130555;-0.29000
1133333;-0.28000
1136111;-0.29500
1138889;-0.30500
1141666;-0.31000
1144444;-0.30500
1147222;-0.29500
1150000;-0.30500
1152777;-0.29500
1155555;-0.30500
1158333;-0.30000
1161111;-0.28500
1163889;-0.28000
1166666;-0.29000
1169444;-0.29500
1172222;-0.32000
1175000;-0.32000
1177777;-0.30500
1180555;-0.30000
1183333;-0.29500
1186111;-0.31000
1188889;-0.32000
1191666;-0.31000
1194444;-0.31500
1197222;-0.30000
1200000;-0.30500
1202777;-0.30500
1205555;-0.31500
1208333;-0.31500
1211111;-0.31000
1213889;-0.29500
1216666;-0.29500
1219444;-0.30500
1222222;-0.31000
1225000;-0.31000
1227777;-0.31000
1230555;-0.30500
1233333;-0.31000
1236111;-0.32500
1238889;-0.33000
1241666;-0.33500
1244444;-0.32500
1247222;-0.32000
1250000;-0.31500
1252777;-0.31500
1255555;-0.32000
1258333;-0.32000
1261111;-0.32000
1263889;-0.29500
1266666;-0.30000
1269444;-0.31500
1272222;-0.32500
1275000;-0.34500
1277777;-0.32000
1280555;-0.31500
1283333;-0.32500
1286111;-0.31500
1288889;-0.32500
1291666;-0.33000
1294444;-0.32500
1297222;-0.31500
1300000;-0.32000
1302777;-0.31500
1305555;-0.33000
1308333;-0.31500
1311111;-0.30000
1313889;-0.29000
1316666;-0.27500
1319444;-0.28500
1322222;-0.28500
1325000;-0.27000
1327777;-0.26500
1330555;-0.26500
1333333;-0.26000
1336111;-0.27500
1338889;-0.27000
1341666;-0.27000
1344444;-0.25500
1347222;-0.24500
1350000;-0.25000
1352777;-0.24500
1355555;-0.25000
1358333;-0.26000
1361111;-0.23500
1363889;-0.22500
1366666;-0.22000
1369444;-0.23500
1372222;-0.24000
1375000;-0.23500
1377777;-0.23000
1380555;-0.23000
1383333;-0.23500
1386111;-0.24500
1388888;-0.25000
1391666;-0.24000
1394444;-0.25000
1397222;-0.24000
1400000;-0.24500
1402777;-0.25000
1405555;-0.25500
1408333;-0.27000
1411111;-0.26000
1413888;-0.25500
1416666;-0.25000
1419444;-0.25500
1422222;-0.26000
1425000;-0.28000
1427777;-0.27000
1430555;-0.26500
1433333;-0.26000
1436111;-0.26500
1438888;-0.27000
1441666;-0.26500
1444444;-0.26000
1447222;-0.25000
1450000;-0.26000
1452777;-0.27000
1455555;-0.27500
1458333;-0.27500
1461111;-0.27500
1463888;-0.26500
1466666;-0.28000
1469444;-0.29000
1472222;-0.30500
1475000;-0.30000
1477777;-0.29000
1480555;-0.28500
1483333;-0.29000
1486111;-0.30000
1488888;-0.31000
1491666;-0.31000
1494444;-0.29500
1497222;-0.29000
1500000;-0.28500
1502777;-0.30500
1505555;-0.31500
1508333;-0.30500
1511111;-0.29500
1513888;-0.28000
1516666;-0.28000
1519444;-0.29000
1522222;-0.30000
1525000;-0.30000
1527777;-0.29000
1530555;-0.27500
1533333;-0.29000
1536111;-0.28500
1538888;-0.31000
1541666;-0.29500
1544444;-0.29000
1547222;-0.29500
1550000;-0.29000
1552777;-0.30000
1555555;-0.31000
1558333;-0.31000
1561111;-0.30000
1563888;-0.29500
1566666;-0.30000
1569444;-0.30000
1572222;-0.30000
1575000;-0.30500
1577777;-0.30500
1580555;-0.28500
1583333;-0.30000
1586111;-0.30500
1588888;-0.32000
1591666;-0.31500
1594444;-0.31000
1597222;-0.30500
1600000;-0.29000
1602777;-0.29000
1605555;-0.29500
1608333;-0.28000
1611111;-0.26500
1613888;-0.25000
1616666;-0.24500
1619444;-0.24500
1622222;-0.25500
1625000;-0.25500
1627777;-0.25000
1630555;-0.23000
1633333;-0.23000
1636111;-0.23000
1638888;-0.23000
1641666;-0.21500
1644444;-0.20000
1647222;-0.19500
1650000;-0.18500
1652777;-0.17500
1655555;-0.20500
1658333;-0.21000
1661111;-0.21500
1663888;-0.22000
1666666;-0.21500
1669444;-0.22000
1672222;-0.23000
1675000;-0.24500
1677777;-0.23500
1680555;-0.22000
1683333;-0.20500
1686111;-0.20500
1688888;-0.21500
1691666;-0.23500
1694444;-0.24500
1697222;-0.24500
1700000;-0.26000
1702777;-0.29000
1705555;-0.33000
1708333;-0.32000
1711111;-0.31500
1713888;-0.32000
1716666;-0.32000
1719444;-0.31000
1722222;-0.32000
1725000;-0.32000
1727777;-0.32000
1730555;-0.31000
1733333;-0.31500
1736111;-0.32000
1738888;-0.32500
1741666;-0.33000
1744444;-0.31000
1747222;-0.31000
1750000;-0.31500
1752777;-0.33500
1755555;-0.34000
1758333;-0.33500
1761111;-0.33500
1763888;-0.31500
1766666;-0.32500
1769444;-0.33500
1772222;-0.35000
1775000;-0.36000
1777777;-0.34500
1780555;-0.32500
1783333;-0.33000
1786111;-0.35000
1788888;-0.38500
1791666;-0.41500
1794444;-0.43500
1797222;-0.45000
1799999;-0.49000
1802777;-0.53000
1805555;-0.52500
1808333;-0.43500
1811111;-0.29500
1813888;-0.14000
1816666;0.05500
1819444;0.29000
1822222;0.54500
1824999;0.72000
1827777;0.82000
1830555;0.76500
1833333;0.53500
1836111;0.19500
1838888;-0.12000
1841666;-0.33500
1844444;-0.43500
1847222;-0.44000
1849999;-0.44000
1852777;-0.40500
1855555;-0.40500
1858333;-0.39000
1861111;-0.39000
1863888;-0.38500
1866666;-0.38500
1869444;-0.38000
1872222;-0.38000
1874999;-0.38500
1877777;-0.37500
1880555;-0.38000
1883333;-0.38500
1886111;-0.38000
1888888;-0.38000
1891666;-0.38000
1894444;-0.37500
1897222;-0.37000
1899999;-0.37000
1902777;-0.38000
1905555;-0.39500
1908333;-0.40000
1911111;-0.37500
1913888;-0.36000
1916666;-0.36500
1919444;-0.37500
1922222;-0.39500
1924999;-0.39000
1927777;-0.38000
1930555;-0.37000
1933333;-0.37000
1936111;-0.39000
1938888;-0.40000
1941666;-0.40000
1944444;-0.38000
1947222;-0.38000
1949999;-0.38500
1952777;-0.40000
1955555;-0.41000
1958333;-0.40500
1961111;-0.39000
1963888;-0.37500
1966666;-0.38500
1969444;-0.38500
1972222;-0.40000
1974999;-0.41500
1977777;-0.39000
1980555;-0.39000
1983333;-0.37500
1986111;-0.39000
1988888;-0.39000
1991666;-0.41000
1994444;-0.39500
1997222;-0.37500
1999999;-0.37500
2002777;-0.39000
2005555;-0.40000
2008333;-0.40500
2011111;-0.40000
2013888;-0.39500
2016666;-0.38000
2019444;-0.38000
2022222;-0.39500
2024999;-0.38500
2027777;-0.38500
2030555;-0.38000
2033333;-0.37500
2036111;-0.38500
2038888;-0.38500
2041666;-0.38500
2044444;-0.37500
2047222;-0.36500
2049999;-0.37000
2052777;-0.38000
2055555;-0.39000
2058333;-0.38500
2061111;-0.37500
2063888;-0.37000
2066666;-0.37500
2069444;-0.39000
2072222;-0.39500
2074999;-0.40000
2077777;-0.39500
2080555;-0.38500
2083333;-0.40000
2086111;-0.41000
2088888;-0.43000
2091666;-0.43000
2094444;-0.43500
2097222;-0.42000
2099999;-0.42500
2102777;-0.43500
2105555;-0.44500
2108333;-0.45000
2111111;-0.44000
2113888;-0.42500
2116666;-0.43500
2119444;-0.43000
2122222;-0.43000
2124999;-0.42500
2127777;-0.41000
2130555;-0.39500
2133333;-0.40000
2136111;-0.39500
2138888;-0.39000
2141666;-0.39000
2144444;-0.37500
2147222;-0.33500
2149999;-0.33500
2152777;-0.32000
2155555;-0.33500
2158333;-0.32000
2161111;-0.31000
2163888;-0.29000
2166666;-0.29500
2169444;-0.29500
2172222;-0.30000
2174999;-0.31500
2177777;-0.29000
2180555;-0.29500
2183333;-0.27500
2186110;-0.28000
2188888;-0.29500
2191666;-0.28500
2194444;-0.28500
2197222;-0.28000
2199999;-0.28500
2202777;-0.29000
2205555;-0.30500
2208333;-0.31000
2211110;-0.29500
2213888;-0.28000
2216666;-0.27000
2219444;-0.28000
2222222;-0.29000
2224999;-0.29000
2227777;-0.28500
2230555;-0.27500
2233333;-0.27500
2236110;-0.28500
2238888;-0.28500
2241666;-0.30000
2244444;-0.29000
2247222;-0.28000
2249999;-0.29500
2252777;-0.30500
2255555;-0.31500
2258333;-0.30000
2261110;-0.29500
2263888;-0.28500
2266666;-0.30000
2269444;-0.31000
2272222;-0.32500
2274999;-0.33000
2277777;-0.31500
2280555;-0.31000
2283333;-0.30000
2286110;-0.32000
2288888;-0.32000
2291666;-0.32000
2294444;-0.31000
2297222;-0.30500
2299999;-0.30500
2302777;-0.32000
2305555;-0.32500
2308333;-0.33000
2311110;-0.32000
2313888;-0.30500
2316666;-0.31500
2319444;-0.32000
2322222;-0.32500
2324999;-0.34000
2327777;-0.34000
2330555;-0.32500
2333333;-0.33000
2336110;-0.34000
2338888;-0.34000
2341666;-0.33500
2344444;-0.33000
2347222;-0.32000
2349999;-0.31500
2352777;-0.32000
2355555;-0.34000
2358333;-0.34000
2361110;-0.32000
2363888;-0.31000
2366666;-0.31000
2369444;-0.32000
2372222;-0.33500
2374999;-0.33000
2377777;-0.32500
2380555;-0.30500
2383333;-0.31500
2386110;-0.32000
2388888;-0.31500
2391666;-0.31000
2394444;-0.31500
2397222;-0.30000
2399999;-0.31500
2402777;-0.32000
2405555;-0.33000
2408333;-0.33500
2411110;-0.32500
2413888;-0.31500
2416666;-0.32000
2419444;-0.31000
2422222;-0.32000
2424999;-0.32500
2427777;-0.31000
2430555;-0.30000
2433333;-0.30000
2436110;-0.29500
2438888;-0.30000
2441666;-0.28500
2444444;-0.26000
2447222;-0.24500
2449999;-0.25500
2452777;-0.25000
2455555;-0.25500
2458333;-0.24000
2461110;-0.22500
2463888;-0.21000
2466666;-0.21000
2469444;-0.21500
2472222;-0.21500
2474999;-0.22500
2477777;-0.21500
2480555;-0.21000
2483333;-0.21000
2486110;-0.23500
2488888;-0.24500
2491666;-0.24500
2494444;-0.23000
2497222;-0.22000
2499999;-0.21500
2502777;-0.22500
2505555;-0.24500
2508333;-0.24000
2511110;-0.22000
2513888;-0.19000
2516666;-0.18500
2519444;-0.19000
2522222;-0.24000
2524999;-0.25500
2527777;-0.26000
2530555;-0.27000
2533333;-0.29000
2536110;-0.31500
2538888;-0.32500
2541666;-0.33500
2544444;-0.33000
2547222;-0.32000
2549999;-0.31500
2552777;-0.32000
2555555;-0.32500
2558333;-0.33000
2561110;-0.32500
2563888;-0.31000
2566666;-0.32500
2569444;-0.33000
2572222;-0.34500
2574999;-0.35000
2577777;-0.34000
2580555;-0.32500
2583333;-0.33000
2586110;-0.33500
2588888;-0.34000
2591666;-0.34000
2594444;-0.33000
2597221;-0.32500
2599999;-0.33500
2602777;-0.35500
2605555;-0.39500
2608333;-0.45000
2611110;-0.45500
2613888;-0.47000
2616666;-0.51000
2619444;-0.56000
2622221;-0.59000
2624999;-0.56500
2627777;-0.51000
2630555;-0.41500
2633333;-0.32000
2636110;-0.20500
2638888;-0.08500
2641666;0.10500
2644444;0.38000
2647221;0.64000
2649999;0.83000
2652777;0.88500
2655555;0.77500
2658333;0.44500
2661110;0.04500
2663888;-0.26000
2666666;-0.43500
2669444;-0.47000
2672221;-0.45000
2674999;-0.41500
2677777;-0.37000
2680555;-0.36000
2683333;-0.38000
2686110;-0.37500
2688888;-0.39000
2691666;-0.38500
2694444;-0.37500
2697221;-0.37000
2699999;-0.37000
2702777;-0.37500
2705555;-0.37500
2708333;-0.37500
2711110;-0.36000
2713888;-0.35500
2716666;-0.36000
2719444;-0.36500
2722221;-0.38000
2724999;-0.38500
2727777;-0.37000
2730555;-0.36000
2733333;-0.35000
2736110;-0.35500
2738888;-0.37000
2741666;-0.37000
2744444;-0.35500
2747221;-0.35000
2749999;-0.36000
2752777;-0.37000
2755555;-0.38000
2758333;-0.37500
2761110;-0.36000
2763888;-0.35000
2766666;-0.36000
2769444;-0.36000
2772221;-0.36500
2774999;-0.36500
2777777;-0.36500
2780555;-0.35000
2783333;-0.35500
2786110;-0.35500
2788888;-0.38000
2791666;-0.38000
2794444;-0.36000
2797221;-0.34500
2799999;-0.35500
2802777;-0.36500
2805555;-0.36000
2808333;-0.37000
2811110;-0.36500
2813888;-0.35500
2816666;-0.35500
2819444;-0.36000
2822221;-0.37000
2824999;-0.37000
2827777;-0.36000
2830555;-0.34500
2833333;-0.35500
2836110;-0.36000
2838888;-0.35000
2841666;-0.35500
2844444;-0.34000
2847221;-0.33000
2849999;-0.33500
2852777;-0.33500
2855555;-0.34500
2858333;-0.35000
2861110;-0.33500
2863888;-0.34000
2866666;-0.34500
2869444;-0.35500
2872221;-0.36000
2874999;-0.35000
2877777;-0.35500
2880555;-0.35000
2883333;-0.36000
2886110;-0.36000
2888888;-0.38000
2891666;-0.39000
2894444;-0.37000
2897221;-0.38000
2899999;-0.38500
2902777;-0.39000
2905555;-0.40000
2908333;-0.41000
2911110;-0.40500
2913888;-0.38000
2916666;-0.38500
2919444;-0.38000
2922221;-0.38500
2924999;-0.39000
2927777;-0.38000
2930555;-0.35500
2933333;-0.35500
2936110;-0.37000
2938888;-0.36000
2941666;-0.36000
2944444;-0.34000
2947221;-0.32500
2949999;-0.31500
2952777;-0.31500
2955555;-0.30500
2958333;-0.30500
2961110;-0.28500
2963888;-0.27000
2966666;-0.27000
2969444;-0.27500
2972221;-0.28000
2974999;-0.28000
2977777;-0.26000
2980555;-0.23500
2983332;-0.23500
2986110;-0.24500
2988888;-0.25000
2991666;-0.26000
2994444;-0.25500
2997221;-0.24500
2999999;-0.24500
3002777;-0.24500
3005555;-0.24500
3008332;-0.26500
3011110;-0.25000
3013888;-0.23500
3016666;-0.23500
3019444;-0.24500
3022221;-0.24500
3024999;-0.25000
3027777;-0.25000
3030555;-0.22500
3033332;-0.23500
3036110;-0.24000
3038888;-0.26000
3041666;-0.26500
3044444;-0.27000
3047221;-0.24000
3049999;-0.24500
3052777;-0.26000
3055555;-0.26000
3058332;-0.26500
3061110;-0.25000
3063888;-0.24500
3066666;-0.24000
3069444;-0.25000
3072221;-0.26000
3074999;-0.27000
3077777;-0.26500
3080555;-0.25500
3083332;-0.26500
3086110;-0.27000
3088888;-0.27000
3091666;-0.28500
3094444;-0.27000
3097221;-0.26500
3099999;-0.27500
3102777;-0.28500
3105555;-0.29000
3108332;-0.28500
3111110;-0.28000
3113888;-0.27500
3116666;-0.28000
3119444;-0.29000
3122221;-0.28500
3124999;-0.29000
3127777;-0.28500
3130555;-0.27500
3133332;-0.28000
3136110;-0.29000
3138888;-0.29000
3141666;-0.29000
3144444;-0.30000
3147221;-0.27500
3149999;-0.28000
3152777;-0.28500
3155555;-0.30000
3158332;-0.30000
3161110;-0.27500
3163888;-0.27500
3166666;-0.28500
3169444;-0.29000
3172221;-0.29500
3174999;-0.30000
3177777;-0.29500
3180555;-0.28000
3183332;-0.28500
3186110;-0.28500
3188888;-0.29500
3191666;-0.30000
3194444;-0.28500
3197221;-0.27000
3199999;-0.28000
3202777;-0.28000
3205555;-0.29000
3208332;-0.29500
3211110;-0.28500
3213888;-0.27000
3216666;-0.27000
3219444;-0.27500
3222221;-0.28000
3224999;-0.29000
3227777;-0.28000
3230555;-0.27500
3233332;-0.28000
3236110;-0.28000
3238888;-0.28500
3241666;-0.29500
3244444;-0.27000
3247221;-0.25500
3249999;-0.23500
3252777;-0.22000
3255555;-0.22500
3258332;-0.22500
3261110;-0.22000
3263888;-0.20500
3266666;-0.20500
3269444;-0.19500
3272221;-0.19000
3274999;-0.19000
3277777;-0.17500
3280555;-0.15000
3283332;-0.15000
3286110;-0.17000
3288888;-0.17000
3291666;-0.19500
