time_ms;ecg_value
0;-0.47500
2778;-0.50000
5556;-0.50000
8333;-0.50500
11111;-0.49000
13889;-0.48500
16667;-0.47500
19444;-0.47500
22222;-0.49000
25000;-0.48000
27778;-0.47000
30556;-0.45500
33333;-0.44500
36111;-0.45500
38889;-0.44500
41667;-0.44000
44444;-0.44000
47222;-0.41500
50000;-0.41500
52778;-0.41500
55556;-0.41500
58333;-0.41000
61111;-0.38500
63889;-0.36000
66667;-0.35500
69444;-0.37000
72222;-0.37000
75000;-0.36500
77778;-0.36000
80556;-0.36000
83333;-0.35000
86111;-0.36000
88889;-0.37500
91667;-0.37000
94444;-0.34500
97222;-0.34000
100000;-0.33000
102778;-0.34000
105556;-0.36500
108333;-0.35500
111111;-0.34500
113889;-0.32500
116667;-0.32500
119444;-0.33500
122222;-0.35500
125000;-0.35500
127778;-0.35000
130556;-0.34000
133333;-0.33500
136111;-0.34500
138889;-0.35500
141667;-0.35500
144444;-0.36000
147222;-0.34500
150000;-0.35000
152778;-0.36000
155556;-0.37500
158333;-0.37500
161111;-0.37500
163889;-0.36000
166667;-0.37000
169444;-0.39000
172222;-0.37500
175000;-0.38500
177778;-0.36500
180556;-0.36500
183333;-0.37000
186111;-0.37500
188889;-0.39500
191667;-0.38500
194444;-0.37500
197222;-0.37500
200000;-0.38000
202778;-0.38000
205555;-0.40000
208333;-0.40500
211111;-0.38500
213889;-0.37500
216667;-0.38000
219444;-0.38500
222222;-0.39500
225000;-0.39500
227778;-0.39500
230555;-0.38000
233333;-0.38000
236111;-0.40000
238889;-0.40500
241667;-0.40500
244444;-0.41000
247222;-0.39500
250000;-0.40500
252778;-0.41000
255555;-0.42000
258333;-0.40000
261111;-0.41000
263889;-0.38500
266667;-0.38000
269444;-0.40000
272222;-0.40000
275000;-0.40000
277778;-0.40500
280555;-0.38000
283333;-0.37500
286111;-0.38500
288889;-0.38500
291667;-0.38500
294444;-0.38000
297222;-0.36500
300000;-0.36500
302778;-0.37000
305555;-0.37000
308333;-0.36500
311111;-0.34500
313889;-0.33500
316667;-0.32000
319444;-0.33000
322222;-0.34000
325000;-0.34500
327778;-0.33000
330555;-0.31000
333333;-0.29500
336111;-0.29000
338889;-0.29500
341667;-0.29500
344444;-0.28000
347222;-0.26000
350000;-0.26000
352778;-0.27500
355555;-0.28500
358333;-0.29500
361111;-0.29000
363889;-0.29000
366667;-0.28500
369444;-0.29500
372222;-0.30000
375000;-0.32000
377778;-0.31000
380555;-0.27500
383333;-0.26000
386111;-0.26500
388889;-0.30000
391667;-0.33000
394444;-0.33000
397222;-0.35000
400000;-0.36500
402778;-0.39000
405555;-0.40500
408333;-0.41000
411111;-0.42500
413889;-0.42000
416667;-0.41000
419444;-0.42000
422222;-0.43000
425000;-0.42500
427778;-0.41500
430555;-0.41000
433333;-0.41000
436111;-0.42500
438889;-0.42000
441667;-0.42000
444444;-0.41500
447222;-0.41000
450000;-0.41500
452778;-0.42000
455555;-0.43000
458333;-0.42500
461111;-0.42500
463889;-0.41000
466667;-0.41000
469444;-0.42500
472222;-0.45500
475000;-0.49000
477778;-0.52000
480555;-0.53500
483333;-0.56500
486111;-0.61000
488889;-0.65500
491667;-0.63500
494444;-0.54500
497222;-0.39000
500000;-0.25500
502778;-0.08500
505555;0.15000
508333;0.43000
511111;0.67000
513889;0.80000
516667;0.80000
519444;0.60500
522222;0.24500
525000;-0.17000
527778;-0.46500
530555;-0.57000
533333;-0.56000
536111;-0.51500
538889;-0.47500
541667;-0.44500
544444;-0.42500
547222;-0.42500
550000;-0.44500
552778;-0.46500
555555;-0.46500
558333;-0.46500
561111;-0.46000
563889;-0.46000
566667;-0.45000
569444;-0.45500
572222;-0.47000
575000;-0.46500
577778;-0.45500
580555;-0.45000
583333;-0.44000
586111;-0.45000
588889;-0.46500
591667;-0.46500
594444;-0.45500
597222;-0.43000
600000;-0.44000
602778;-0.44500
605555;-0.45000
608333;-0.45500
611111;-0.44500
613889;-0.43500
616666;-0.44000
619444;-0.44000
622222;-0.45500
625000;-0.45000
627778;-0.43500
630555;-0.43000
633333;-0.43500
636111;-0.44500
638889;-0.45000
641666;-0.45500
644444;-0.45500
647222;-0.44000
650000;-0.45500
652778;-0.44500
655555;-0.46000
658333;-0.45000
661111;-0.45500
663889;-0.43000
666666;-0.43000
669444;-0.44000
672222;-0.44000
675000;-0.44500
677778;-0.44000
680555;-0.43000
683333;-0.43000
686111;-0.43000
688889;-0.44500
691666;-0.43500
694444;-0.43000
697222;-0.42000
700000;-0.41500
702778;-0.42500
705555;-0.43500
708333;-0.43500
711111;-0.43000
713889;-0.44000
716666;-0.43000
719444;-0.43500
722222;-0.44000
725000;-0.46000
727778;-0.44000
730555;-0.42500
733333;-0.43000
736111;-0.43500
738889;-0.44500
741666;-0.44500
744444;-0.44000
747222;-0.42500
750000;-0.43000
752778;-0.44000
755555;-0.44000
758333;-0.45000
761111;-0.44000
763889;-0.44000
766666;-0.44000
769444;-0.45000
772222;-0.45500
775000;-0.44500
777778;-0.44000
780555;-0.43500
783333;-0.44000
786111;-0.44500
788889;-0.46000
791666;-0.45500
794444;-0.43500
797222;-0.43000
800000;-0.43500
802778;-0.44000
805555;-0.43500
808333;-0.43000
811111;-0.41500
813889;-0.40000
816666;-0.40500
819444;-0.39500
822222;-0.40000
825000;-0.39000
827778;-0.37500
830555;-0.35000
833333;-0.36000
836111;-0.35500
838889;-0.35500
841666;-0.35000
844444;-0.34000
847222;-0.32500
850000;-0.34000
852778;-0.33500
855555;-0.35000
858333;-0.35500
861111;-0.34500
863889;-0.33000
866666;-0.33000
869444;-0.34000
872222;-0.34500
875000;-0.36000
877778;-0.34000
880555;-0.33000
883333;-0.34500
886111;-0.34000
888889;-0.35500
891666;-0.35000
894444;-0.34500
897222;-0.33000
900000;-0.33500
902778;-0.33500
905555;-0.35000
908333;-0.35000
911111;-0.33500
913889;-0.33000
916666;-0.34500
919444;-0.35000
922222;-0.36000
925000;-0.37000
927778;-0.35500
930555;-0.34500
933333;-0.35000
936111;-0.36500
938889;-0.38000
941666;-0.38000
944444;-0.36500
947222;-0.35000
950000;-0.36000
952778;-0.36000
955555;-0.38500
958333;-0.38500
961111;-0.36500
963889;-0.35000
966666;-0.36500
969444;-0.36500
972222;-0.36500
975000;-0.37500
977778;-0.36500
980555;-0.35500
983333;-0.35500
986111;-0.35500
988889;-0.38500
991666;-0.38500
994444;-0.37500
997222;-0.36000
1000000;-0.37500
1002777;-0.36500
1005555;-0.38000
1008333;-0.38000
1011111;-0.37000
1013889;-0.36000
1016666;-0.35500
1019444;-0.38000
1022222;-0.39000
1025000;-0.38000
1027777;-0.38000
1030555;-0.37000
1033333;-0.37000
1036111;-0.36500
1038889;-0.36500
1041666;-0.35500
1044444;-0.34000
1047222;-0.33000
1050000;-0.32000
1052777;-0.32500
1055555;-0.30000
1058333;-0.30500
1061111;-0.29000
1063889;-0.28000
1066666;-0.29000
1069444;-0.27500
1072222;-0.28000
1075000;-0.26500
1077777;-0.25000
1080555;-0.23000
1083333;-0.24000
1086111;-0.25500
1088889;-0.27500
1091666;-0.29500
1094444;-0.27500
1097222;-0.26500
1100000;-0.26500
1102777;-0.27000
1105555;-0.27500
1108333;-0.26000
1111111;-0.24000
1113889;-0.23000
1116666;-0.27000
1119444;-0.31000
1122222;-0.33500
1125000;-0.33500
1127777;-0.33500
1130555;-0.34000
1133333;-0.36500
1136111;-0.38500
1138889;-0.40000
1141666;-0.41000
1144444;-0.39500
1147222;-0.37000
1150000;-0.39500
1152777;-0.39000
1155555;-0.40500
1158333;-0.40500
1161111;-0.40000
1163889;-0.40000
1166666;-0.40500
1169444;-0.40500
1172222;-0.41000
1175000;-0.41000
1177777;-0.40500
1180555;-0.39000
1183333;-0.39000
1186111;-0.40500
1188889;-0.40500
1191666;-0.40000
1194444;-0.40000
1197222;-0.39000
1200000;-0.39000
1202777;-0.40000
1205555;-0.41500
1208333;-0.43000
1211111;-0.45000
1213889;-0.47500
1216666;-0.50500
1219444;-0.54000
1222222;-0.60000
1225000;-0.63000
1227777;-0.58500
1230555;-0.45000
1233333;-0.31000
1236111;-0.13500
1238889;0.08500
1241666;0.37500
1244444;0.64000
1247222;0.81000
1250000;0.81500
1252777;0.64500
1255555;0.26500
1258333;-0.19000
1261111;-0.49500
1263889;-0.56000
1266666;-0.53500
1269444;-0.47500
1272222;-0.43500
1275000;-0.43500
1277777;-0.43000
1280555;-0.41500
1283333;-0.43000
1286111;-0.42500
1288889;-0.44000
1291666;-0.44500
1294444;-0.44000
1297222;-0.41500
1300000;-0.44000
1302777;-0.43500
1305555;-0.44500
1308333;-0.45000
1311111;-0.43500
1313889;-0.42500
1316666;-0.42500
1319444;-0.43500
1322222;-0.44000
1325000;-0.45000
1327777;-0.44500
1330555;-0.43000
1333333;-0.43500
1336111;-0.43500
1338889;-0.44000
1341666;-0.44500
1344444;-0.43500
1347222;-0.42500
1350000;-0.44000
1352777;-0.42500
1355555;-0.43500
1358333;-0.44000
1361111;-0.44000
1363889;-0.42000
1366666;-0.42000
1369444;-0.42000
1372222;-0.43500
1375000;-0.43000
1377777;-0.42000
1380555;-0.41500
1383333;-0.43500
1386111;-0.42000
1388888;-0.44000
1391666;-0.45000
1394444;-0.42500
1397222;-0.42500
1400000;-0.42500
1402777;-0.42000
1405555;-0.41500
1408333;-0.42000
1411111;-0.40000
1413888;-0.40000
1416666;-0.39000
1419444;-0.40000
1422222;-0.40000
1425000;-0.40500
1427777;-0.39500
1430555;-0.39500
1433333;-0.42000
1436111;-0.41000
1438888;-0.42500
1441666;-0.42500
1444444;-0.42500
1447222;-0.40500
1450000;-0.40500
1452777;-0.40500
1455555;-0.41000
1458333;-0.41500
1461111;-0.42000
1463888;-0.40500
1466666;-0.41500
1469444;-0.42000
1472222;-0.43000
1475000;-0.43000
1477777;-0.42500
1480555;-0.42500
1483333;-0.42500
1486111;-0.43500
1488888;-0.43500
1491666;-0.44500
1494444;-0.43500
1497222;-0.42500
1500000;-0.44000
1502777;-0.42500
1505555;-0.42500
1508333;-0.43500
1511111;-0.42500
1513888;-0.40500
1516666;-0.40500
1519444;-0.39500
1522222;-0.39500
1525000;-0.40000
1527777;-0.37500
1530555;-0.34500
1533333;-0.35500
1536111;-0.34500
1538888;-0.35000
1541666;-0.34500
1544444;-0.33000
1547222;-0.32500
1550000;-0.32000
1552777;-0.32500
1555555;-0.33000
1558333;-0.33500
1561111;-0.32000
1563888;-0.32000
1566666;-0.31500
1569444;-0.31500
1572222;-0.33500
1575000;-0.32500
1577777;-0.32000
1580555;-0.30000
1583333;-0.31500
1586111;-0.30500
1588888;-0.33500
1591666;-0.32500
1594444;-0.30000
1597222;-0.29500
1600000;-0.31500
1602777;-0.32500
1605555;-0.32500
1608333;-0.32000
1611111;-0.30500
1613888;-0.31500
1616666;-0.31500
1619444;-0.32000
1622222;-0.32500
1625000;-0.32000
1627777;-0.30500
1630555;-0.30000
1633333;-0.31000
1636111;-0.31500
1638888;-0.32500
1641666;-0.32500
1644444;-0.32500
1647222;-0.32000
1650000;-0.32000
1652777;-0.33500
1655555;-0.34000
1658333;-0.34500
1661111;-0.34000
1663888;-0.33000
1666666;-0.33500
1669444;-0.35000
1672222;-0.34000
1675000;-0.34500
1677777;-0.33500
1680555;-0.32500
1683333;-0.34000
1686111;-0.33000
1688888;-0.34000
1691666;-0.34500
1694444;-0.34000
1697222;-0.32500
1700000;-0.33500
1702777;-0.33500
1705555;-0.34500
1708333;-0.35500
1711111;-0.34000
1713888;-0.32500
1716666;-0.34500
1719444;-0.33500
1722222;-0.34500
1725000;-0.35000
1727777;-0.33500
1730555;-0.32000
1733333;-0.31500
1736111;-0.30500
1738888;-0.31000
1741666;-0.30500
1744444;-0.28500
1747222;-0.27500
1750000;-0.26500
1752777;-0.27000
1755555;-0.27000
1758333;-0.27000
1761111;-0.23500
1763888;-0.22500
1766666;-0.23000
1769444;-0.22500
1772222;-0.22500
1775000;-0.22000
1777777;-0.22500
1780555;-0.22000
1783333;-0.23000
1786111;-0.25000
1788888;-0.25000
1791666;-0.25000
1794444;-0.23000
1797222;-0.22500
1799999;-0.21500
1802777;-0.19500
1805555;-0.18500
1808333;-0.22000
1811111;-0.24000
1813888;-0.27500
1816666;-0.27500
1819444;-0.28000
1822222;-0.30500
1824999;-0.31500
1827777;-0.32000
1830555;-0.31500
1833333;-0.32500
1836111;-0.34000
1838888;-0.36500
1841666;-0.36000
1844444;-0.34500
1847222;-0.33500
1849999;-0.34000
1852777;-0.35000
1855555;-0.36000
1858333;-0.35500
1861111;-0.36000
1863888;-0.35000
1866666;-0.35500
1869444;-0.36500
1872222;-0.37500
1874999;-0.39000
1877777;-0.37500
1880555;-0.37000
1883333;-0.36000
1886111;-0.37000
1888888;-0.37000
1891666;-0.37500
1894444;-0.36500
1897222;-0.36500
1899999;-0.38000
1902777;-0.41500
1905555;-0.45500
1908333;-0.49000
1911111;-0.52000
1913888;-0.55500
1916666;-0.59500
1919444;-0.55500
1922222;-0.46000
1924999;-0.31000
1927777;-0.15500
1930555;0.04500
1933333;0.32000
1936111;0.58500
1938888;0.78500
1941666;0.83500
1944444;0.74000
1947222;0.44500
1949999;0.00500
1952777;-0.34500
1955555;-0.50500
1958333;-0.51500
1961111;-0.44000
1963888;-0.38000
1966666;-0.38500
1969444;-0.39000
1972222;-0.38500
1974999;-0.39000
1977777;-0.37500
1980555;-0.36000
1983333;-0.38500
1986111;-0.39500
1988888;-0.40500
1991666;-0.40000
1994444;-0.39500
1997222;-0.38000
1999999;-0.38500
2002777;-0.39000
2005555;-0.39500
2008333;-0.39500
2011111;-0.38000
2013888;-0.37000
2016666;-0.38500
2019444;-0.38500
2022222;-0.40000
2024999;-0.39000
2027777;-0.38000
2030555;-0.36000
2033333;-0.37000
2036111;-0.36500
2038888;-0.36500
2041666;-0.36500
2044444;-0.36000
2047222;-0.35500
2049999;-0.36000
2052777;-0.36500
2055555;-0.37000
2058333;-0.38000
2061111;-0.37000
2063888;-0.36000
2066666;-0.37000
2069444;-0.38000
2072222;-0.38500
2074999;-0.37500
2077777;-0.36500
2080555;-0.36500
2083333;-0.36500
2086111;-0.37500
2088888;-0.37000
2091666;-0.38000
2094444;-0.36000
2097222;-0.35000
2099999;-0.36000
2102777;-0.36000
2105555;-0.36000
2108333;-0.37500
2111111;-0.37000
2113888;-0.35000
2116666;-0.36000
2119444;-0.35500
2122222;-0.36500
2124999;-0.37000
2127777;-0.36000
2130555;-0.35000
2133333;-0.34000
2136111;-0.35500
2138888;-0.37000
2141666;-0.37500
2144444;-0.36500
2147222;-0.35000
2149999;-0.35500
2152777;-0.36500
2155555;-0.38000
2158333;-0.38500
2161111;-0.37000
2163888;-0.37000
2166666;-0.37000
2169444;-0.38000
2172222;-0.38500
2174999;-0.38500
2177777;-0.37000
2180555;-0.37000
2183333;-0.37000
2186110;-0.37500
2188888;-0.37500
2191666;-0.38000
2194444;-0.36500
2197222;-0.35500
2199999;-0.34500
2202777;-0.36500
2205555;-0.37000
2208333;-0.37000
2211110;-0.35500
2213888;-0.34500
2216666;-0.34500
2219444;-0.34000
2222222;-0.34500
2224999;-0.33000
2227777;-0.33000
2230555;-0.30500
2233333;-0.30500
2236110;-0.30000
2238888;-0.30000
2241666;-0.31000
2244444;-0.29000
2247222;-0.26500
2249999;-0.26500
2252777;-0.28000
2255555;-0.28000
2258333;-0.28500
2261110;-0.26500
2263888;-0.25000
2266666;-0.26000
2269444;-0.26500
2272222;-0.26000
2274999;-0.27500
2277777;-0.27000
2280555;-0.26000
2283333;-0.28000
2286110;-0.27000
2288888;-0.29500
2291666;-0.29500
2294444;-0.29500
2297222;-0.27000
2299999;-0.27000
2302777;-0.29000
2305555;-0.29000
2308333;-0.28500
2311110;-0.27000
2313888;-0.26500
2316666;-0.26500
2319444;-0.27500
2322222;-0.28500
2324999;-0.29500
2327777;-0.28500
2330555;-0.27500
2333333;-0.27500
2336110;-0.28000
2338888;-0.29000
2341666;-0.29000
2344444;-0.28000
2347222;-0.27000
2349999;-0.28000
2352777;-0.28500
2355555;-0.28000
2358333;-0.28500
2361110;-0.29500
2363888;-0.28500
2366666;-0.28500
2369444;-0.30500
2372222;-0.30500
2374999;-0.31000
2377777;-0.29500
2380555;-0.30000
2383333;-0.30000
2386110;-0.31500
2388888;-0.31000
2391666;-0.31500
2394444;-0.31000
2397222;-0.29000
2399999;-0.28500
2402777;-0.30000
2405555;-0.30500
2408333;-0.31000
2411110;-0.30500
2413888;-0.29000
2416666;-0.29000
2419444;-0.28000
2422222;-0.28000
2424999;-0.27500
2427777;-0.24500
2430555;-0.23000
2433333;-0.22000
2436110;-0.23000
2438888;-0.22500
2441666;-0.23500
2444444;-0.22500
2447222;-0.19500
2449999;-0.19500
2452777;-0.19000
2455555;-0.20500
2458333;-0.20500
2461110;-0.18500
2463888;-0.17000
2466666;-0.18000
2469444;-0.18500
2472222;-0.19500
2474999;-0.19500
2477777;-0.19500
2480555;-0.19000
2483333;-0.18000
2486110;-0.18500
2488888;-0.18500
2491666;-0.18000
2494444;-0.16000
2497222;-0.13000
2499999;-0.14500
2502777;-0.19500
2505555;-0.24000
2508333;-0.25000
2511110;-0.24000
2513888;-0.26000
2516666;-0.28000
2519444;-0.30000
2522222;-0.31000
2524999;-0.32000
2527777;-0.30000
2530555;-0.29000
2533333;-0.31000
2536110;-0.31500
2538888;-0.33500
2541666;-0.32000
2544444;-0.31000
2547222;-0.30000
2549999;-0.31000
2552777;-0.31500
2555555;-0.33000
2558333;-0.34000
2561110;-0.33000
2563888;-0.31500
2566666;-0.31000
2569444;-0.32500
2572222;-0.33000
2574999;-0.34000
2577777;-0.33500
2580555;-0.31500
2583333;-0.34000
2586110;-0.36500
2588888;-0.40000
2591666;-0.43500
2594444;-0.45500
2597221;-0.48500
2599999;-0.52500
2602777;-0.53500
2605555;-0.46500
2608333;-0.33000
2611110;-0.16500
2613888;0.02000
2616666;0.29000
2619444;0.56500
2622221;0.79500
2624999;0.90000
2627777;0.84000
2630555;0.60000
2633333;0.19500
2636110;-0.16000
2638888;-0.38500
2641666;-0.46500
2644444;-0.44500
2647221;-0.39000
2649999;-0.35000
2652777;-0.35000
2655555;-0.36000
2658333;-0.36000
2661110;-0.33500
2663888;-0.32500
2666666;-0.33000
2669444;-0.33000
2672221;-0.34500
2674999;-0.35500
2677777;-0.35000
2680555;-0.35000
2683333;-0.34500
2686110;-0.35000
2688888;-0.36500
2691666;-0.36000
2694444;-0.35000
2697221;-0.33500
2699999;-0.34000
2702777;-0.35500
2705555;-0.36500
2708333;-0.36000
2711110;-0.34500
2713888;-0.34500
2716666;-0.34500
2719444;-0.35500
2722221;-0.36000
2724999;-0.36500
2727777;-0.34500
2730555;-0.33000
2733333;-0.34000
2736110;-0.35000
2738888;-0.35500
2741666;-0.35000
2744444;-0.35000
2747221;-0.34500
2749999;-0.33000
2752777;-0.35000
2755555;-0.34500
2758333;-0.35500
2761110;-0.34500
2763888;-0.33000
2766666;-0.33500
2769444;-0.35000
2772221;-0.34500
2774999;-0.34500
2777777;-0.34000
2780555;-0.31500
2783333;-0.32500
2786110;-0.34000
2788888;-0.33000
2791666;-0.35000
2794444;-0.34000
2797221;-0.33000
2799999;-0.33500
2802777;-0.34000
2805555;-0.34000
2808333;-0.33500
2811110;-0.32500
2813888;-0.32500
2816666;-0.33000
2819444;-0.34000
2822221;-0.34500
2824999;-0.33500
2827777;-0.33000
2830555;-0.32000
2833333;-0.31500
2836110;-0.32500
2838888;-0.35000
2841666;-0.34000
2844444;-0.34500
2847221;-0.33000
2849999;-0.35000
2852777;-0.35500
2855555;-0.37000
2858333;-0.39000
2861110;-0.37500
2863888;-0.36500
2866666;-0.38000
2869444;-0.38500
2872221;-0.38000
2874999;-0.39000
2877777;-0.38000
2880555;-0.36500
2883333;-0.37500
2886110;-0.38000
2888888;-0.38000
2891666;-0.38500
2894444;-0.36500
2897221;-0.35500
2899999;-0.34500
2902777;-0.34500
2905555;-0.34500
2908333;-0.33000
2911110;-0.32000
2913888;-0.29000
2916666;-0.29000
2919444;-0.28500
2922221;-0.28000
2924999;-0.28000
2927777;-0.26500
2930555;-0.27500
2933333;-0.26000
2936110;-0.26000
2938888;-0.26500
2941666;-0.26000
2944444;-0.25500
2947221;-0.24500
2949999;-0.23500
2952777;-0.25000
2955555;-0.25000
2958333;-0.25000
2961110;-0.24500
2963888;-0.24000
2966666;-0.24000
2969444;-0.25000
2972221;-0.24500
2974999;-0.25500
2977777;-0.24000
2980555;-0.23000
2983332;-0.24000
2986110;-0.25000
2988888;-0.26000
2991666;-0.25500
2994444;-0.26000
2997221;-0.24500
2999999;-0.24500
3002777;-0.25500
3005555;-0.26500
3008332;-0.27500
3011110;-0.27000
3013888;-0.24000
3016666;-0.25500
3019444;-0.26500
3022221;-0.27000
3024999;-0.28500
3027777;-0.26500
3030555;-0.26500
3033332;-0.26000
3036110;-0.27500
3038888;-0.28000
3041666;-0.28500
3044444;-0.27500
3047221;-0.27000
3049999;-0.26500
3052777;-0.27000
3055555;-0.28000
3058332;-0.28500
3061110;-0.26500
3063888;-0.25500
3066666;-0.27000
3069444;-0.27500
3072221;-0.26500
3074999;-0.28000
3077777;-0.27000
3080555;-0.26000
3083332;-0.26500
3086110;-0.28000
3088888;-0.29500
3091666;-0.28500
3094444;-0.28000
3097221;-0.27000
3099999;-0.27000
3102777;-0.28000
3105555;-0.28500
3108332;-0.28000
3111110;-0.27500
3113888;-0.26000
3116666;-0.26000
3119444;-0.26500
3122221;-0.28500
3124999;-0.27000
3127777;-0.25000
3130555;-0.22500
3133332;-0.22500
3136110;-0.22500
3138888;-0.22500
3141666;-0.21500
3144444;-0.20000
3147221;-0.19500
3149999;-0.19000
3152777;-0.20500
3155555;-0.19500
3158332;-0.20000
3161110;-0.20000
3163888;-0.18000
3166666;-0.17500
3169444;-0.17000
3172221;-0.17500
3174999;-0.16500
3177777;-0.17000
3180555;-0.16500
3183332;-0.15500
3186110;-0.18000
3188888;-0.20000
3191666;-0.18500
