time_ms;ecg_value
0;-0.41000
2778;-0.41000
5556;-0.42000
8333;-0.43000
11111;-0.43500
13889;-0.42500
16667;-0.42000
19444;-0.42000
22222;-0.42500
25000;-0.42500
27778;-0.42500
30556;-0.42000
33333;-0.42500
36111;-0.42500
38889;-0.42500
41667;-0.42000
44444;-0.41500
47222;-0.41500
50000;-0.41500
52778;-0.42000
55556;-0.43000
58333;-0.42500
61111;-0.42000
63889;-0.41500
66667;-0.42000
69444;-0.42000
72222;-0.43000
75000;-0.42000
77778;-0.42000
80556;-0.41000
83333;-0.40500
86111;-0.42500
88889;-0.43500
91667;-0.44000
94444;-0.42000
97222;-0.41500
100000;-0.43000
102778;-0.44000
105556;-0.45000
108333;-0.45000
111111;-0.44500
113889;-0.44500
116667;-0.44500
119444;-0.46500
122222;-0.47500
125000;-0.49000
127778;-0.48000
130556;-0.47500
133333;-0.48000
136111;-0.48500
138889;-0.49000
141667;-0.48500
144444;-0.47500
147222;-0.45500
150000;-0.46500
152778;-0.46000
155556;-0.47000
158333;-0.45500
161111;-0.45000
163889;-0.43500
166667;-0.43000
169444;-0.43000
172222;-0.42000
175000;-0.41500
177778;-0.39000
180556;-0.38500
183333;-0.37500
186111;-0.37500
188889;-0.37500
191667;-0.36000
194444;-0.34500
197222;-0.33500
200000;-0.33000
202778;-0.34500
205555;-0.34000
208333;-0.33500
211111;-0.33000
213889;-0.32500
216667;-0.32000
219444;-0.33000
222222;-0.33500
225000;-0.32500
227778;-0.32000
230555;-0.31000
233333;-0.30500
236111;-0.32500
238889;-0.33000
241667;-0.32500
244444;-0.32000
247222;-0.30500
250000;-0.32000
252778;-0.32000
255555;-0.34000
258333;-0.32500
261111;-0.32500
263889;-0.33000
266667;-0.33000
269444;-0.34500
272222;-0.35500
275000;-0.35000
277778;-0.33000
280555;-0.32500
283333;-0.33500
286111;-0.33500
288889;-0.36000
291667;-0.35000
294444;-0.34500
297222;-0.35500
300000;-0.36000
302778;-0.35000
305555;-0.37000
308333;-0.35000
311111;-0.35500
313889;-0.35000
316667;-0.35000
319444;-0.35000
322222;-0.36500
325000;-0.35500
327778;-0.36000
330555;-0.35000
333333;-0.36000
336111;-0.36500
338889;-0.37500
341667;-0.36500
344444;-0.37500
347222;-0.36500
350000;-0.38000
352778;-0.38000
355555;-0.39500
358333;-0.38500
361111;-0.37500
363889;-0.37000
366667;-0.37500
369444;-0.37500
372222;-0.38500
375000;-0.37500
377778;-0.37500
380555;-0.36000
383333;-0.37000
386111;-0.37500
388889;-0.38000
391667;-0.37500
394444;-0.36500
397222;-0.36000
400000;-0.36000
402778;-0.36500
405555;-0.38000
408333;-0.38000
411111;-0.37500
413889;-0.35500
416667;-0.36500
419444;-0.37000
422222;-0.38500
425000;-0.37500
427778;-0.36000
430555;-0.36500
433333;-0.36500
436111;-0.38000
438889;-0.38000
441667;-0.37000
444444;-0.36000
447222;-0.36000
450000;-0.35000
452778;-0.36000
455555;-0.36500
458333;-0.35000
461111;-0.34500
463889;-0.33500
466667;-0.32500
469444;-0.32000
472222;-0.33000
475000;-0.32000
477778;-0.30000
480555;-0.30000
483333;-0.29500
486111;-0.30500
488889;-0.29500
491667;-0.28500
494444;-0.27000
497222;-0.27000
500000;-0.25500
502778;-0.26500
505555;-0.27000
508333;-0.27500
511111;-0.26500
513889;-0.27500
516667;-0.27000
519444;-0.28500
522222;-0.29500
525000;-0.29500
527778;-0.28500
530555;-0.27500
533333;-0.28000
536111;-0.30000
538889;-0.29000
541667;-0.28500
544444;-0.25500
547222;-0.24000
550000;-0.27000
552778;-0.30000
555555;-0.34000
558333;-0.34000
561111;-0.35000
563889;-0.36000
566667;-0.38000
569444;-0.39000
572222;-0.40500
575000;-0.40000
577778;-0.38500
580555;-0.38500
583333;-0.38500
586111;-0.40500
588889;-0.41000
591667;-0.40500
594444;-0.39000
597222;-0.40000
600000;-0.39500
602778;-0.41500
605555;-0.41500
608333;-0.40500
611111;-0.39500
613889;-0.39000
616666;-0.39000
619444;-0.40500
622222;-0.41500
625000;-0.41500
627778;-0.40000
630555;-0.40500
633333;-0.43000
636111;-0.48000
638889;-0.52500
641666;-0.55000
644444;-0.57000
647222;-0.59500
650000;-0.64500
652778;-0.64000
655555;-0.57000
658333;-0.44000
661111;-0.33500
663889;-0.25000
666666;-0.15000
669444;-0.01500
672222;0.16000
675000;0.41000
677778;0.66500
680555;0.85500
683333;0.95500
686111;0.91000
688889;0.64500
691666;0.21500
694444;-0.19500
697222;-0.44500
700000;-0.54000
702778;-0.51000
705555;-0.48500
708333;-0.43500
711111;-0.44500
713889;-0.44000
716666;-0.44000
719444;-0.44000
722222;-0.45000
725000;-0.45500
727778;-0.45500
730555;-0.45000
733333;-0.45500
736111;-0.46000
738889;-0.47000
741666;-0.46500
744444;-0.45000
747222;-0.44000
750000;-0.45000
752778;-0.44500
755555;-0.46000
758333;-0.46000
761111;-0.44000
763889;-0.44500
766666;-0.44500
769444;-0.45000
772222;-0.45500
775000;-0.45000
777778;-0.45500
780555;-0.43500
783333;-0.45500
786111;-0.45000
788889;-0.45500
791666;-0.45500
794444;-0.44500
797222;-0.44000
800000;-0.43500
802778;-0.43500
805555;-0.45000
808333;-0.44500
811111;-0.43000
813889;-0.44000
816666;-0.45000
819444;-0.45000
822222;-0.45500
825000;-0.46000
827778;-0.44000
830555;-0.43500
833333;-0.44500
836111;-0.45500
838889;-0.46000
841666;-0.45500
844444;-0.44000
847222;-0.44500
850000;-0.44000
852778;-0.45000
855555;-0.46500
858333;-0.45000
861111;-0.45500
863889;-0.44000
866666;-0.44000
869444;-0.45000
872222;-0.47500
875000;-0.45500
877778;-0.45000
880555;-0.45000
883333;-0.44000
886111;-0.44000
888889;-0.45500
891666;-0.44000
894444;-0.44000
897222;-0.43500
900000;-0.44000
902778;-0.44500
905555;-0.45500
908333;-0.45000
911111;-0.44000
913889;-0.43500
916666;-0.45000
919444;-0.44500
922222;-0.45500
925000;-0.45000
927778;-0.44500
930555;-0.44500
933333;-0.45500
936111;-0.47000
938889;-0.47000
941666;-0.48000
944444;-0.46500
947222;-0.45500
950000;-0.45500
952778;-0.46500
955555;-0.47000
958333;-0.47000
961111;-0.45500
963889;-0.45500
966666;-0.46000
969444;-0.45000
972222;-0.45500
975000;-0.44500
977778;-0.43500
980555;-0.41000
983333;-0.42000
986111;-0.42000
988889;-0.42500
991666;-0.41000
994444;-0.39000
997222;-0.37000
1000000;-0.37000
1002777;-0.37500
1005555;-0.38000
1008333;-0.36000
1011111;-0.35000
1013889;-0.35000
1016666;-0.33500
1019444;-0.34000
1022222;-0.35500
1025000;-0.35500
1027777;-0.34000
1030555;-0.33000
1033333;-0.34500
1036111;-0.35000
1038889;-0.34500
1041666;-0.34500
1044444;-0.33000
1047222;-0.31500
1050000;-0.32500
1052777;-0.34000
1055555;-0.34000
1058333;-0.34000
1061111;-0.34000
1063889;-0.33500
1066666;-0.34500
1069444;-0.35000
1072222;-0.37000
1075000;-0.35000
1077777;-0.34500
1080555;-0.33500
1083333;-0.35500
1086111;-0.36500
1088889;-0.36000
1091666;-0.36500
1094444;-0.36000
1097222;-0.35000
1100000;-0.35500
1102777;-0.35500
1105555;-0.37500
1108333;-0.37500
1111111;-0.37000
1113889;-0.35500
1116666;-0.35500
1119444;-0.37500
1122222;-0.37500
1125000;-0.38500
1127777;-0.36500
1130555;-0.36000
1133333;-0.36500
1136111;-0.39000
1138889;-0.39000
1141666;-0.38500
1144444;-0.38000
1147222;-0.38500
1150000;-0.39000
1152777;-0.39000
1155555;-0.40500
1158333;-0.39000
1161111;-0.39500
1163889;-0.39000
1166666;-0.39500
1169444;-0.41000
1172222;-0.41500
1175000;-0.41500
1177777;-0.40500
1180555;-0.39500
1183333;-0.40500
1186111;-0.41500
1188889;-0.42000
1191666;-0.41000
1194444;-0.42000
1197222;-0.40000
1200000;-0.40000
1202777;-0.40500
1205555;-0.41500
1208333;-0.42000
1211111;-0.40000
1213889;-0.39500
1216666;-0.38500
1219444;-0.40500
1222222;-0.41000
1225000;-0.41000
1227777;-0.40500
1230555;-0.39500
1233333;-0.40500
1236111;-0.41000
1238889;-0.41000
1241666;-0.41500
1244444;-0.41500
1247222;-0.40500
1250000;-0.39500
1252777;-0.40500
1255555;-0.41000
1258333;-0.41000
1261111;-0.40000
1263889;-0.39500
1266666;-0.39500
1269444;-0.39500
1272222;-0.40500
1275000;-0.39000
1277777;-0.37000
1280555;-0.36500
1283333;-0.35500
1286111;-0.35500
1288889;-0.35500
1291666;-0.35000
1294444;-0.34000
1297222;-0.33000
1300000;-0.32500
1302777;-0.34000
1305555;-0.34500
1308333;-0.34500
1311111;-0.32500
1313889;-0.30000
1316666;-0.30500
1319444;-0.30500
1322222;-0.32000
1325000;-0.30000
1327777;-0.31500
1330555;-0.29500
1333333;-0.30500
1336111;-0.32000
1338889;-0.33000
1341666;-0.32000
1344444;-0.30000
1347222;-0.29500
1350000;-0.31000
1352777;-0.32500
1355555;-0.32000
1358333;-0.30000
1361111;-0.28000
1363889;-0.29500
1366666;-0.33000
1369444;-0.36500
1372222;-0.38500
1375000;-0.39000
1377777;-0.39500
1380555;-0.39500
1383333;-0.41000
1386111;-0.42000
1388888;-0.44000
1391666;-0.43000
1394444;-0.42000
1397222;-0.41500
1400000;-0.41000
1402777;-0.43000
1405555;-0.43500
1408333;-0.43000
1411111;-0.43000
1413888;-0.42000
1416666;-0.42000
1419444;-0.44000
1422222;-0.44500
1425000;-0.43000
1427777;-0.43000
1430555;-0.42500
1433333;-0.43000
1436111;-0.43000
1438888;-0.44500
1441666;-0.44000
1444444;-0.45500
1447222;-0.43000
1450000;-0.44000
1452777;-0.45500
1455555;-0.48000
1458333;-0.51000
1461111;-0.54500
1463888;-0.56500
1466666;-0.58000
1469444;-0.63500
1472222;-0.66500
1475000;-0.63000
1477777;-0.51000
1480555;-0.35500
1483333;-0.20000
1486111;-0.02500
1488888;0.24000
1491666;0.54000
1494444;0.75500
1497222;0.84500
1500000;0.79500
1502777;0.55000
1505555;0.12000
1508333;-0.28500
1511111;-0.52000
1513888;-0.58500
1516666;-0.56000
1519444;-0.52000
1522222;-0.50000
1525000;-0.47000
1527777;-0.47500
1530555;-0.47000
1533333;-0.46000
1536111;-0.48000
1538888;-0.48500
1541666;-0.48500
1544444;-0.47000
1547222;-0.46500
1550000;-0.47500
1552777;-0.48000
1555555;-0.49000
1558333;-0.48500
1561111;-0.47500
1563888;-0.47000
1566666;-0.47500
1569444;-0.49000
1572222;-0.49500
1575000;-0.49500
1577777;-0.49500
1580555;-0.48000
1583333;-0.49000
1586111;-0.48500
1588888;-0.49500
1591666;-0.49000
1594444;-0.48500
1597222;-0.48000
1600000;-0.47500
1602777;-0.48500
1605555;-0.49000
1608333;-0.48500
1611111;-0.48000
1613888;-0.47500
1616666;-0.48500
1619444;-0.48500
1622222;-0.51000
1625000;-0.49500
1627777;-0.49000
1630555;-0.48500
1633333;-0.47500
1636111;-0.47500
1638888;-0.49500
1641666;-0.47500
1644444;-0.47500
1647222;-0.47500
1650000;-0.47000
1652777;-0.49500
1655555;-0.49500
1658333;-0.49500
1661111;-0.49000
1663888;-0.47000
1666666;-0.48500
1669444;-0.49500
1672222;-0.50500
1675000;-0.49500
1677777;-0.49000
1680555;-0.49000
1683333;-0.48000
1686111;-0.49000
1688888;-0.50000
1691666;-0.49500
1694444;-0.49000
1697222;-0.47500
1700000;-0.48000
1702777;-0.49000
1705555;-0.50000
1708333;-0.48000
1711111;-0.48500
1713888;-0.47500
1716666;-0.48000
1719444;-0.48000
1722222;-0.48000
1725000;-0.47000
1727777;-0.46500
1730555;-0.46000
1733333;-0.47500
1736111;-0.47500
1738888;-0.48000
1741666;-0.49000
1744444;-0.48000
1747222;-0.47000
1750000;-0.48000
1752777;-0.49500
1755555;-0.50500
1758333;-0.50500
1761111;-0.48500
1763888;-0.48500
1766666;-0.48500
1769444;-0.49500
1772222;-0.50500
1775000;-0.50500
1777777;-0.49000
1780555;-0.48500
1783333;-0.50000
1786111;-0.49000
1788888;-0.50000
1791666;-0.48000
1794444;-0.47000
1797222;-0.44500
1799999;-0.45000
1802777;-0.45000
1805555;-0.45000
1808333;-0.42500
1811111;-0.40500
1813888;-0.38500
1816666;-0.38500
1819444;-0.39500
1822222;-0.39000
1824999;-0.38500
1827777;-0.37500
1830555;-0.37000
1833333;-0.37500
1836111;-0.38500
1838888;-0.39000
1841666;-0.39000
1844444;-0.38500
1847222;-0.37000
1849999;-0.37000
1852777;-0.39000
1855555;-0.38500
1858333;-0.38500
1861111;-0.38500
1863888;-0.37500
1866666;-0.37500
1869444;-0.38000
1872222;-0.39000
1874999;-0.37000
1877777;-0.38000
1880555;-0.36500
1883333;-0.37000
1886111;-0.37500
1888888;-0.39000
1891666;-0.38000
1894444;-0.36500
1897222;-0.36500
1899999;-0.37000
1902777;-0.37500
1905555;-0.39500
1908333;-0.39000
1911111;-0.39000
1913888;-0.38000
1916666;-0.39000
1919444;-0.40500
1922222;-0.41500
1924999;-0.41500
1927777;-0.41000
1930555;-0.39500
1933333;-0.39500
1936111;-0.41000
1938888;-0.42000
1941666;-0.41000
1944444;-0.41500
1947222;-0.40000
1949999;-0.42000
1952777;-0.42500
1955555;-0.43000
1958333;-0.43000
1961111;-0.42500
1963888;-0.41000
1966666;-0.41000
1969444;-0.41000
1972222;-0.42500
1974999;-0.42500
1977777;-0.41000
1980555;-0.41000
1983333;-0.42000
1986111;-0.42000
1988888;-0.44500
1991666;-0.45000
1994444;-0.43500
1997222;-0.43000
1999999;-0.43000
2002777;-0.44000
2005555;-0.45000
2008333;-0.44500
2011111;-0.44000
2013888;-0.42000
2016666;-0.42000
2019444;-0.43000
2022222;-0.44500
2024999;-0.44500
2027777;-0.43500
2030555;-0.42500
2033333;-0.42500
2036111;-0.44500
2038888;-0.45000
2041666;-0.44500
2044444;-0.43500
2047222;-0.42500
2049999;-0.42000
2052777;-0.43000
2055555;-0.43000
2058333;-0.43000
2061111;-0.42000
2063888;-0.40500
2066666;-0.41500
2069444;-0.42000
2072222;-0.42500
2074999;-0.42500
2077777;-0.42000
2080555;-0.42500
2083333;-0.42000
2086111;-0.42500
2088888;-0.44000
2091666;-0.44000
2094444;-0.42500
2097222;-0.42000
2099999;-0.42000
2102777;-0.41500
2105555;-0.42500
2108333;-0.40000
2111111;-0.38000
2113888;-0.36500
2116666;-0.37000
2119444;-0.37000
2122222;-0.36500
2124999;-0.35500
2127777;-0.34500
2130555;-0.33000
2133333;-0.32000
2136111;-0.32000
2138888;-0.33000
2141666;-0.32500
2144444;-0.31500
2147222;-0.31500
2149999;-0.31500
2152777;-0.32500
2155555;-0.34000
2158333;-0.34500
2161111;-0.33500
2163888;-0.32500
2166666;-0.33500
2169444;-0.35500
2172222;-0.38000
2174999;-0.36000
2177777;-0.34500
2180555;-0.30500
2183333;-0.29500
2186110;-0.31500
2188888;-0.33500
2191666;-0.36500
2194444;-0.37000
2197222;-0.37500
2199999;-0.38500
2202777;-0.40500
2205555;-0.43000
2208333;-0.43000
2211110;-0.43000
2213888;-0.43000
2216666;-0.43500
2219444;-0.45000
2222222;-0.46000
2224999;-0.46000
2227777;-0.46000
2230555;-0.45500
2233333;-0.45000
2236110;-0.45000
2238888;-0.46500
2241666;-0.47000
2244444;-0.47000
2247222;-0.46000
2249999;-0.47500
2252777;-0.48000
2255555;-0.49000
2258333;-0.48000
2261110;-0.46500
2263888;-0.46500
2266666;-0.48000
2269444;-0.48500
2272222;-0.49500
2274999;-0.49500
2277777;-0.49000
2280555;-0.49000
2283333;-0.52500
2286110;-0.55500
2288888;-0.60000
2291666;-0.61000
2294444;-0.62000
2297222;-0.65500
2299999;-0.68000
2302777;-0.65500
2305555;-0.57500
2308333;-0.44500
2311110;-0.31000
2313888;-0.13000
2316666;0.12500
2319444;0.39500
2322222;0.60000
2324999;0.72500
2327777;0.71500
2330555;0.53000
2333333;0.18500
2336110;-0.19500
2338888;-0.45500
2341666;-0.59000
2344444;-0.61500
2347222;-0.58500
2349999;-0.54500
2352777;-0.53500
2355555;-0.53500
2358333;-0.53500
2361110;-0.52500
2363888;-0.50500
2366666;-0.51500
2369444;-0.50500
2372222;-0.51500
2374999;-0.51500
2377777;-0.49000
2380555;-0.49500
2383333;-0.50000
2386110;-0.49000
2388888;-0.52000
2391666;-0.51000
2394444;-0.52000
2397222;-0.50500
2399999;-0.50500
2402777;-0.50500
2405555;-0.51500
2408333;-0.51500
2411110;-0.50000
2413888;-0.51000
2416666;-0.51500
2419444;-0.52500
2422222;-0.53000
2424999;-0.52500
2427777;-0.53500
2430555;-0.52000
2433333;-0.52500
2436110;-0.52000
2438888;-0.53000
2441666;-0.52000
2444444;-0.52000
2447222;-0.51000
2449999;-0.51500
2452777;-0.51000
2455555;-0.53000
2458333;-0.53000
2461110;-0.52000
2463888;-0.51000
2466666;-0.50500
2469444;-0.52500
2472222;-0.53000
2474999;-0.52500
2477777;-0.51000
2480555;-0.49500
2483333;-0.50000
2486110;-0.51000
2488888;-0.52000
2491666;-0.52000
2494444;-0.51500
2497222;-0.50500
2499999;-0.50000
2502777;-0.51000
2505555;-0.52000
2508333;-0.50500
2511110;-0.51500
2513888;-0.51000
2516666;-0.52000
2519444;-0.50500
2522222;-0.50500
2524999;-0.51500
2527777;-0.52500
2530555;-0.50000
2533333;-0.49500
2536110;-0.49500
2538888;-0.50500
2541666;-0.49500
2544444;-0.49000
2547222;-0.47500
2549999;-0.49000
2552777;-0.49500
2555555;-0.51000
2558333;-0.50500
2561110;-0.50000
2563888;-0.50000
2566666;-0.50000
2569444;-0.50500
2572222;-0.51500
2574999;-0.50500
2577777;-0.50500
2580555;-0.51500
2583333;-0.51000
2586110;-0.52500
2588888;-0.53500
2591666;-0.53500
2594444;-0.54000
2597221;-0.52000
2599999;-0.54000
2602777;-0.54000
2605555;-0.56000
2608333;-0.55000
2611110;-0.54000
2613888;-0.54500
2616666;-0.54000
2619444;-0.54500
2622221;-0.55000
2624999;-0.55500
2627777;-0.53000
2630555;-0.52000
2633333;-0.51500
2636110;-0.50000
2638888;-0.50500
2641666;-0.50500
2644444;-0.48500
2647221;-0.46500
2649999;-0.47000
2652777;-0.46000
2655555;-0.46000
2658333;-0.45500
2661110;-0.43500
2663888;-0.43000
2666666;-0.42500
2669444;-0.43000
2672221;-0.44000
2674999;-0.44000
2677777;-0.43500
2680555;-0.41000
2683333;-0.41000
2686110;-0.41500
2688888;-0.42000
2691666;-0.41000
2694444;-0.40000
2697221;-0.39500
2699999;-0.39000
2702777;-0.40500
2705555;-0.41000
2708333;-0.40500
2711110;-0.39000
2713888;-0.40000
2716666;-0.40500
2719444;-0.41500
2722221;-0.41500
2724999;-0.41500
2727777;-0.41000
2730555;-0.40000
2733333;-0.41000
2736110;-0.41000
2738888;-0.42500
2741666;-0.41500
2744444;-0.39500
2747221;-0.40500
2749999;-0.40000
2752777;-0.41500
2755555;-0.42000
2758333;-0.42500
2761110;-0.41000
2763888;-0.40000
2766666;-0.40500
2769444;-0.42000
2772221;-0.42000
2774999;-0.41500
