time_ms;ecg_value
0;-0.17500
2778;-0.17500
5556;-0.18000
8333;-0.15000
11111;-0.12000
13889;-0.14000
16667;-0.17000
19444;-0.21000
22222;-0.22500
25000;-0.23500
27778;-0.23500
30556;-0.24000
33333;-0.26000
36111;-0.27000
38889;-0.28500
41667;-0.28000
44444;-0.27000
47222;-0.27500
50000;-0.27500
52778;-0.28000
55556;-0.29000
58333;-0.28500
61111;-0.27000
63889;-0.27000
66667;-0.28000
69444;-0.29000
72222;-0.29000
75000;-0.29000
77778;-0.26500
80556;-0.28000
83333;-0.28000
86111;-0.27500
88889;-0.29000
91667;-0.27500
94444;-0.28000
97222;-0.27000
100000;-0.26500
102778;-0.28500
105556;-0.29000
108333;-0.28000
111111;-0.28000
113889;-0.29500
116667;-0.33000
119444;-0.38000
122222;-0.41000
125000;-0.41500
127778;-0.43500
130556;-0.47000
133333;-0.48500
136111;-0.42000
138889;-0.32000
141667;-0.17000
144444;-0.01000
147222;0.17000
150000;0.43000
152778;0.67500
155556;0.85000
158333;0.96500
161111;0.94000
163889;0.72500
166667;0.36000
169444;-0.02000
172222;-0.30500
175000;-0.39000
177778;-0.39500
180556;-0.34500
183333;-0.30500
186111;-0.30000
188889;-0.31000
191667;-0.32000
194444;-0.32000
197222;-0.31500
200000;-0.31000
202778;-0.33000
205555;-0.34500
208333;-0.32500
211111;-0.33000
213889;-0.32000
216667;-0.32500
219444;-0.33000
222222;-0.33000
225000;-0.32500
227778;-0.33500
230555;-0.32000
233333;-0.32000
236111;-0.32500
238889;-0.33500
241667;-0.32500
244444;-0.31500
247222;-0.31000
250000;-0.32500
252778;-0.33000
255555;-0.32000
258333;-0.33000
261111;-0.31000
263889;-0.31500
266667;-0.31000
269444;-0.32500
272222;-0.33000
275000;-0.32500
277778;-0.32000
280555;-0.32000
283333;-0.33000
286111;-0.32500
288889;-0.32500
291667;-0.32000
294444;-0.31500
297222;-0.31000
300000;-0.31000
302778;-0.32000
305555;-0.32500
308333;-0.32500
311111;-0.32000
313889;-0.31500
316667;-0.32500
319444;-0.32500
322222;-0.34500
325000;-0.32500
327778;-0.32500
330555;-0.32000
333333;-0.32000
336111;-0.33500
338889;-0.33500
341667;-0.32000
344444;-0.32000
347222;-0.32000
350000;-0.31500
352778;-0.31500
355555;-0.33500
358333;-0.33000
361111;-0.31000
363889;-0.30000
366667;-0.30500
369444;-0.32500
372222;-0.33500
375000;-0.33000
377778;-0.32500
380555;-0.32000
383333;-0.33000
386111;-0.33000
388889;-0.33500
391667;-0.32500
394444;-0.31500
397222;-0.31500
400000;-0.32000
402778;-0.32500
405555;-0.33000
408333;-0.32000
411111;-0.31500
413889;-0.30500
416667;-0.31000
419444;-0.33000
422222;-0.33500
425000;-0.33000
427778;-0.31000
430555;-0.31500
433333;-0.31000
436111;-0.32500
438889;-0.34000
441667;-0.33000
444444;-0.31500
447222;-0.30500
450000;-0.30500
452778;-0.31000
455555;-0.30500
458333;-0.29500
461111;-0.28500
463889;-0.27000
466667;-0.28000
469444;-0.28000
472222;-0.29000
475000;-0.28000
477778;-0.26000
480555;-0.25500
483333;-0.24500
486111;-0.25000
488889;-0.24500
491667;-0.24500
494444;-0.22500
497222;-0.23500
500000;-0.23000
502778;-0.24000
505555;-0.23500
508333;-0.23000
511111;-0.23000
513889;-0.22500
516667;-0.23000
519444;-0.23500
522222;-0.24000
525000;-0.23500
527778;-0.23000
530555;-0.23000
533333;-0.23000
536111;-0.24000
538889;-0.26500
541667;-0.25000
544444;-0.25000
547222;-0.24500
550000;-0.24000
552778;-0.25000
555555;-0.25500
558333;-0.24500
561111;-0.24000
563889;-0.25500
566667;-0.25000
569444;-0.26000
572222;-0.26500
575000;-0.25500
577778;-0.25500
580555;-0.25000
583333;-0.24500
586111;-0.26000
588889;-0.26000
591667;-0.24500
594444;-0.25000
597222;-0.24000
600000;-0.25000
602778;-0.25500
605555;-0.27500
608333;-0.27500
611111;-0.27500
613889;-0.26000
616666;-0.26000
619444;-0.27000
622222;-0.28000
625000;-0.27000
627778;-0.26000
630555;-0.25500
633333;-0.26500
636111;-0.27500
638889;-0.28500
641666;-0.28500
644444;-0.27500
647222;-0.28000
650000;-0.28000
652778;-0.29500
655555;-0.29000
658333;-0.28500
661111;-0.27500
663889;-0.27500
666666;-0.27000
669444;-0.28500
672222;-0.29000
675000;-0.29500
677778;-0.29000
680555;-0.29000
683333;-0.28500
686111;-0.29000
688889;-0.28500
691666;-0.28000
694444;-0.28500
697222;-0.27500
700000;-0.28000
702778;-0.27500
705555;-0.28500
708333;-0.27500
711111;-0.27500
713889;-0.27000
716666;-0.28000
719444;-0.28500
722222;-0.28000
725000;-0.27500
727778;-0.26000
730555;-0.25500
733333;-0.23500
736111;-0.23000
738889;-0.23000
741666;-0.22000
744444;-0.21000
747222;-0.20500
750000;-0.21000
752778;-0.20000
755555;-0.21000
758333;-0.19500
761111;-0.18000
763889;-0.17000
766666;-0.17000
769444;-0.17000
772222;-0.18000
775000;-0.17000
777778;-0.15500
780555;-0.14500
783333;-0.15500
786111;-0.17000
788889;-0.18500
791666;-0.18000
794444;-0.18000
797222;-0.18000
800000;-0.18000
802778;-0.19500
805555;-0.21000
808333;-0.20000
811111;-0.16000
813889;-0.15500
816666;-0.16500
819444;-0.20000
822222;-0.24500
825000;-0.25000
827778;-0.24500
830555;-0.25000
833333;-0.27000
836111;-0.28000
838889;-0.30000
841666;-0.30500
844444;-0.29000
847222;-0.30000
850000;-0.29500
852778;-0.28500
855555;-0.30500
858333;-0.30000
861111;-0.30000
863889;-0.28500
866666;-0.28500
869444;-0.30500
872222;-0.31500
875000;-0.32500
877778;-0.31500
880555;-0.31000
883333;-0.30500
886111;-0.31500
888889;-0.32000
891666;-0.31000
894444;-0.32000
897222;-0.34500
900000;-0.38000
902778;-0.41000
905555;-0.44500
908333;-0.44500
911111;-0.47500
913889;-0.49000
916666;-0.46000
919444;-0.38500
922222;-0.27500
925000;-0.13000
927778;0.03500
930555;0.27000
933333;0.52500
936111;0.71000
938889;0.82000
941666;0.89500
944444;0.97000
947222;0.95000
950000;0.83000
952778;0.57500
955555;0.21500
958333;-0.14000
961111;-0.36000
963889;-0.42500
966666;-0.41000
969444;-0.37500
972222;-0.36000
975000;-0.36000
977778;-0.36000
980555;-0.35500
983333;-0.35000
986111;-0.35000
988889;-0.35500
991666;-0.34500
994444;-0.34500
997222;-0.34000
1000000;-0.33500
1002777;-0.36000
1005555;-0.36500
1008333;-0.37000
1011111;-0.36000
1013889;-0.35500
1016666;-0.37000
1019444;-0.37000
1022222;-0.36500
1025000;-0.36000
1027777;-0.35500
1030555;-0.35500
1033333;-0.35500
1036111;-0.36000
1038889;-0.36000
1041666;-0.35500
1044444;-0.35000
1047222;-0.34500
1050000;-0.36500
1052777;-0.36000
1055555;-0.38500
1058333;-0.38000
1061111;-0.37500
1063889;-0.36500
1066666;-0.36000
1069444;-0.37000
1072222;-0.37500
1075000;-0.37000
1077777;-0.36500
1080555;-0.35500
1083333;-0.36500
1086111;-0.36500
1088889;-0.37000
1091666;-0.37000
1094444;-0.37000
1097222;-0.37000
1100000;-0.38000
1102777;-0.39000
1105555;-0.39000
1108333;-0.37500
1111111;-0.37000
1113889;-0.36500
1116666;-0.34500
1119444;-0.36500
1122222;-0.37000
1125000;-0.36000
1127777;-0.36500
1130555;-0.35500
1133333;-0.35500
1136111;-0.36000
1138889;-0.37500
1141666;-0.36500
1144444;-0.37000
1147222;-0.35500
1150000;-0.36000
1152777;-0.37500
1155555;-0.37500
1158333;-0.37000
1161111;-0.35500
1163889;-0.36000
1166666;-0.36500
1169444;-0.38000
1172222;-0.39000
1175000;-0.39000
1177777;-0.39000
1180555;-0.38500
1183333;-0.38000
1186111;-0.38000
1188889;-0.39000
1191666;-0.39000
1194444;-0.38000
1197222;-0.38000
1200000;-0.39500
1202777;-0.40000
1205555;-0.40500
1208333;-0.39000
1211111;-0.38500
1213889;-0.38000
1216666;-0.38500
1219444;-0.38500
1222222;-0.38500
1225000;-0.37500
1227777;-0.36500
1230555;-0.37000
1233333;-0.37000
1236111;-0.36500
1238889;-0.36000
1241666;-0.33500
1244444;-0.33000
1247222;-0.29500
1250000;-0.29000
1252777;-0.29500
1255555;-0.30500
1258333;-0.30500
1261111;-0.29000
1263889;-0.28500
1266666;-0.28000
1269444;-0.28000
1272222;-0.28000
1275000;-0.27500
1277777;-0.27000
1280555;-0.26500
1283333;-0.27500
1286111;-0.27000
1288889;-0.29000
1291666;-0.27500
1294444;-0.28000
1297222;-0.28000
1300000;-0.28500
1302777;-0.30000
1305555;-0.30000
1308333;-0.28500
1311111;-0.28000
1313889;-0.27500
1316666;-0.29000
1319444;-0.29000
1322222;-0.29500
1325000;-0.29000
1327777;-0.27500
1330555;-0.27500
1333333;-0.29000
1336111;-0.30500
1338889;-0.30500
1341666;-0.29000
1344444;-0.28000
1347222;-0.28500
1350000;-0.29500
1352777;-0.31000
1355555;-0.31000
1358333;-0.31000
1361111;-0.30000
1363889;-0.30000
1366666;-0.29500
1369444;-0.30000
1372222;-0.31500
1375000;-0.33000
1377777;-0.32000
1380555;-0.33500
1383333;-0.33000
1386111;-0.33500
1388888;-0.34000
1391666;-0.31500
1394444;-0.30500
1397222;-0.31000
1400000;-0.31500
1402777;-0.32500
1405555;-0.34000
1408333;-0.33000
1411111;-0.31500
1413888;-0.31500
1416666;-0.33000
1419444;-0.33000
1422222;-0.33500
1425000;-0.34000
1427777;-0.31500
1430555;-0.31500
1433333;-0.33000
1436111;-0.34500
1438888;-0.35000
1441666;-0.34500
1444444;-0.33500
1447222;-0.33500
1450000;-0.34000
1452777;-0.33000
1455555;-0.34000
1458333;-0.33500
1461111;-0.33500
1463888;-0.31500
1466666;-0.33000
1469444;-0.33500
1472222;-0.34500
1475000;-0.32000
1477777;-0.31000
1480555;-0.32500
1483333;-0.33000
1486111;-0.32500
1488888;-0.31000
1491666;-0.28500
1494444;-0.28000
1497222;-0.27000
1500000;-0.28000
1502777;-0.28500
1505555;-0.27000
1508333;-0.25500
1511111;-0.25000
1513888;-0.24000
1516666;-0.23500
1519444;-0.23000
1522222;-0.23500
1525000;-0.23500
1527777;-0.22500
1530555;-0.22500
1533333;-0.23000
1536111;-0.25000
1538888;-0.26500
1541666;-0.25500
1544444;-0.25000
1547222;-0.25000
1550000;-0.25500
1552777;-0.26500
1555555;-0.28500
1558333;-0.27500
1561111;-0.25000
1563888;-0.24000
1566666;-0.22000
1569444;-0.23500
1572222;-0.28500
1575000;-0.29000
1577777;-0.31000
1580555;-0.31500
1583333;-0.33000
1586111;-0.35000
1588888;-0.36500
1591666;-0.36000
1594444;-0.36000
1597222;-0.35000
1600000;-0.36000
1602777;-0.37500
1605555;-0.39500
1608333;-0.39000
1611111;-0.37500
1613888;-0.35500
1616666;-0.36000
1619444;-0.36500
1622222;-0.37000
1625000;-0.36000
1627777;-0.35000
1630555;-0.35500
1633333;-0.35500
1636111;-0.36000
1638888;-0.37000
1641666;-0.37000
1644444;-0.36000
1647222;-0.37000
1650000;-0.36500
1652777;-0.38500
1655555;-0.42500
1658333;-0.44500
1661111;-0.45000
1663888;-0.48000
1666666;-0.52000
1669444;-0.56500
1672222;-0.54500
1675000;-0.44500
1677777;-0.29500
1680555;-0.14500
1683333;0.03500
1686111;0.27500
1688888;0.53000
1691666;0.75000
1694444;0.84500
1697222;0.77000
1700000;0.51000
1702777;0.14000
1705555;-0.20000
1708333;-0.41500
1711111;-0.49000
1713888;-0.52000
1716666;-0.49500
1719444;-0.44500
1722222;-0.43500
1725000;-0.43000
1727777;-0.41500
1730555;-0.42000
1733333;-0.41000
1736111;-0.41500
1738888;-0.42000
1741666;-0.42000
1744444;-0.41000
1747222;-0.41000
1750000;-0.41500
1752777;-0.42000
1755555;-0.42500
1758333;-0.42000
1761111;-0.40500
1763888;-0.40000
1766666;-0.41000
1769444;-0.41500
1772222;-0.41500
1775000;-0.41500
1777777;-0.40000
1780555;-0.39500
1783333;-0.41500
1786111;-0.41500
1788888;-0.43000
1791666;-0.41500
1794444;-0.41500
1797222;-0.40500
1799999;-0.40500
1802777;-0.42000
1805555;-0.43000
1808333;-0.42000
1811111;-0.41500
1813888;-0.41000
1816666;-0.41500
1819444;-0.42500
1822222;-0.43500
1824999;-0.41500
1827777;-0.40000
1830555;-0.40500
1833333;-0.40000
1836111;-0.41500
1838888;-0.41500
1841666;-0.41500
1844444;-0.40500
1847222;-0.40000
1849999;-0.39500
1852777;-0.40500
1855555;-0.41000
1858333;-0.40000
1861111;-0.40000
1863888;-0.38500
1866666;-0.39000
1869444;-0.40000
1872222;-0.40500
1874999;-0.41000
1877777;-0.40500
1880555;-0.39500
1883333;-0.39500
1886111;-0.40500
1888888;-0.40500
1891666;-0.40000
1894444;-0.39500
1897222;-0.40000
1899999;-0.39500
1902777;-0.41000
1905555;-0.42000
1908333;-0.41000
1911111;-0.41500
1913888;-0.41000
1916666;-0.40500
1919444;-0.41500
1922222;-0.42500
1924999;-0.42000
1927777;-0.41500
1930555;-0.41500
1933333;-0.42000
1936111;-0.43000
1938888;-0.45500
1941666;-0.43500
1944444;-0.42500
1947222;-0.42500
1949999;-0.43000
1952777;-0.43500
1955555;-0.45000
1958333;-0.44500
1961111;-0.43500
1963888;-0.43000
1966666;-0.43000
1969444;-0.45000
1972222;-0.42500
1974999;-0.43000
1977777;-0.42000
1980555;-0.39000
1983333;-0.38500
1986111;-0.38000
1988888;-0.38000
1991666;-0.35500
1994444;-0.33500
1997222;-0.33000
1999999;-0.31500
2002777;-0.31000
2005555;-0.31500
2008333;-0.30500
2011111;-0.28000
2013888;-0.27500
2016666;-0.28000
2019444;-0.29500
2022222;-0.30500
2024999;-0.28500
2027777;-0.28000
2030555;-0.27500
2033333;-0.27500
2036111;-0.28000
2038888;-0.28500
2041666;-0.28000
2044444;-0.26500
2047222;-0.26500
2049999;-0.27500
2052777;-0.28500
2055555;-0.28500
2058333;-0.29000
2061111;-0.27000
2063888;-0.27500
2066666;-0.27000
2069444;-0.27000
2072222;-0.28500
2074999;-0.27500
2077777;-0.27500
2080555;-0.28000
2083333;-0.27500
2086111;-0.28500
2088888;-0.30000
2091666;-0.30500
2094444;-0.28500
2097222;-0.29500
2099999;-0.30500
2102777;-0.30500
2105555;-0.30500
2108333;-0.30500
2111111;-0.30000
2113888;-0.30000
2116666;-0.30000
2119444;-0.31500
2122222;-0.32000
2124999;-0.31000
2127777;-0.30000
2130555;-0.30000
2133333;-0.31000
2136111;-0.31000
2138888;-0.32000
2141666;-0.31000
2144444;-0.30500
2147222;-0.29500
2149999;-0.31500
2152777;-0.31500
2155555;-0.32000
2158333;-0.31500
2161111;-0.30000
2163888;-0.30000
2166666;-0.31500
2169444;-0.31500
2172222;-0.32500
2174999;-0.32000
2177777;-0.30000
2180555;-0.30500
2183333;-0.29500
2186110;-0.30500
2188888;-0.31500
2191666;-0.31000
2194444;-0.30500
2197222;-0.30000
2199999;-0.31000
2202777;-0.32000
2205555;-0.32000
2208333;-0.31500
2211110;-0.30500
2213888;-0.29500
2216666;-0.29500
2219444;-0.31000
2222222;-0.31500
2224999;-0.31000
2227777;-0.29500
2230555;-0.29500
2233333;-0.30000
2236110;-0.31000
2238888;-0.32000
2241666;-0.30000
2244444;-0.30500
2247222;-0.30000
2249999;-0.29000
2252777;-0.31000
2255555;-0.30500
2258333;-0.29000
2261110;-0.28000
2263888;-0.27500
2266666;-0.26000
2269444;-0.24500
2272222;-0.24500
2274999;-0.24000
2277777;-0.22500
2280555;-0.22500
2283333;-0.23000
2286110;-0.22500
2288888;-0.21500
2291666;-0.20500
2294444;-0.19500
2297222;-0.19500
2299999;-0.18500
2302777;-0.19000
2305555;-0.21000
2308333;-0.20000
2311110;-0.20500
2313888;-0.19500
2316666;-0.20500
2319444;-0.23000
2322222;-0.24000
2324999;-0.22000
2327777;-0.22000
2330555;-0.21000
2333333;-0.22000
2336110;-0.20000
2338888;-0.19000
2341666;-0.19000
2344444;-0.19500
2347222;-0.23000
2349999;-0.25500
2352777;-0.26500
2355555;-0.29500
2358333;-0.30000
2361110;-0.30000
2363888;-0.30500
2366666;-0.32000
2369444;-0.31500
2372222;-0.32000
2374999;-0.32000
2377777;-0.31500
2380555;-0.31500
2383333;-0.33000
2386110;-0.33000
2388888;-0.34500
2391666;-0.33000
2394444;-0.32000
2397222;-0.32500
2399999;-0.32500
2402777;-0.32500
2405555;-0.33500
2408333;-0.33500
2411110;-0.32000
2413888;-0.31500
2416666;-0.32000
2419444;-0.33500
2422222;-0.34000
2424999;-0.36000
2427777;-0.37500
2430555;-0.40500
2433333;-0.44500
2436110;-0.45500
2438888;-0.51000
2441666;-0.53500
2444444;-0.50000
2447222;-0.40500
2449999;-0.25000
2452777;-0.08500
2455555;0.11000
2458333;0.38000
2461110;0.67500
2463888;0.87000
2466666;0.97500
2469444;0.92500
2472222;0.71500
2474999;0.35000
2477777;-0.03000
2480555;-0.32000
2483333;-0.46500
2486110;-0.48500
2488888;-0.44500
2491666;-0.39500
2494444;-0.36000
2497222;-0.35000
2499999;-0.35000
2502777;-0.37500
2505555;-0.37500
2508333;-0.36000
2511110;-0.37500
2513888;-0.36000
2516666;-0.37500
2519444;-0.38500
2522222;-0.38500
2524999;-0.38500
2527777;-0.38000
2530555;-0.37000
2533333;-0.38000
2536110;-0.38500
2538888;-0.39000
2541666;-0.38500
2544444;-0.37500
2547222;-0.37000
2549999;-0.36000
2552777;-0.38000
2555555;-0.38500
2558333;-0.37500
2561110;-0.37000
2563888;-0.36000
2566666;-0.37000
2569444;-0.39000
2572222;-0.38500
2574999;-0.38500
2577777;-0.37000
2580555;-0.36500
2583333;-0.37500
2586110;-0.38500
2588888;-0.38500
2591666;-0.38500
2594444;-0.37500
2597221;-0.37500
2599999;-0.37000
2602777;-0.37500
2605555;-0.38500
2608333;-0.38000
2611110;-0.37000
2613888;-0.35500
2616666;-0.36000
2619444;-0.36500
2622221;-0.38500
2624999;-0.37500
2627777;-0.37500
2630555;-0.37000
2633333;-0.37500
2636110;-0.37500
2638888;-0.37500
2641666;-0.37000
2644444;-0.37000
2647221;-0.36500
2649999;-0.36000
2652777;-0.36500
2655555;-0.37000
2658333;-0.37000
2661110;-0.36500
2663888;-0.36000
2666666;-0.37000
2669444;-0.37500
2672221;-0.37000
2674999;-0.37500
2677777;-0.36500
2680555;-0.36500
2683333;-0.37000
2686110;-0.36500
2688888;-0.38000
2691666;-0.38000
2694444;-0.36500
2697221;-0.37000
2699999;-0.38000
2702777;-0.38500
2705555;-0.39000
2708333;-0.38000
2711110;-0.37000
2713888;-0.37500
2716666;-0.36500
2719444;-0.38000
2722221;-0.38000
2724999;-0.37500
2727777;-0.36000
2730555;-0.37000
2733333;-0.36500
2736110;-0.37500
2738888;-0.37500
2741666;-0.37000
2744444;-0.35500
2747221;-0.34000
2749999;-0.34000
2752777;-0.33500
2755555;-0.34000
2758333;-0.34000
2761110;-0.30500
2763888;-0.29500
2766666;-0.29500
2769444;-0.29000
2772221;-0.30500
2774999;-0.29000
2777777;-0.28500
2780555;-0.27000
2783333;-0.28000
2786110;-0.28500
2788888;-0.28000
2791666;-0.28000
2794444;-0.26500
2797221;-0.26500
2799999;-0.26000
2802777;-0.26500
2805555;-0.28000
2808333;-0.27000
2811110;-0.26500
2813888;-0.26000
2816666;-0.25500
2819444;-0.27500
2822221;-0.28500
2824999;-0.27500
2827777;-0.26500
2830555;-0.25500
2833333;-0.26000
2836110;-0.27500
2838888;-0.27000
2841666;-0.27500
2844444;-0.27500
2847221;-0.26500
2849999;-0.26000
2852777;-0.28000
2855555;-0.28000
2858333;-0.27500
2861110;-0.27500
2863888;-0.26500
2866666;-0.27000
2869444;-0.27500
2872221;-0.29500
2874999;-0.28000
2877777;-0.29000
2880555;-0.27500
2883333;-0.29000
2886110;-0.29000
2888888;-0.30500
2891666;-0.30500
2894444;-0.30000
2897221;-0.29000
2899999;-0.30500
2902777;-0.30500
2905555;-0.31500
2908333;-0.32000
2911110;-0.30500
2913888;-0.30000
2916666;-0.30500
2919444;-0.31500
2922221;-0.32000
2924999;-0.31500
2927777;-0.31500
2930555;-0.31000
2933333;-0.30500
2936110;-0.32000
2938888;-0.32500
2941666;-0.33000
2944444;-0.31500
2947221;-0.31000
2949999;-0.32000
2952777;-0.33500
2955555;-0.33500
2958333;-0.32500
2961110;-0.32500
2963888;-0.33000
2966666;-0.32500
2969444;-0.33000
2972221;-0.34000
2974999;-0.34000
2977777;-0.32500
2980555;-0.32500
2983332;-0.32500
2986110;-0.33500
2988888;-0.33500
2991666;-0.33500
2994444;-0.32000
2997221;-0.31000
2999999;-0.31500
3002777;-0.32500
3005555;-0.32000
3008332;-0.32000
3011110;-0.31500
3013888;-0.30500
3016666;-0.31500
3019444;-0.32000
3022221;-0.31500
3024999;-0.31000
3027777;-0.30000
3030555;-0.29000
3033332;-0.29500
3036110;-0.29500
3038888;-0.30000
3041666;-0.29000
3044444;-0.27500
3047221;-0.25500
3049999;-0.26000
3052777;-0.25500
3055555;-0.25000
3058332;-0.24500
3061110;-0.23500
3063888;-0.22500
3066666;-0.22000
3069444;-0.22000
3072221;-0.23000
3074999;-0.22000
3077777;-0.20500
3080555;-0.22500
3083332;-0.22500
3086110;-0.24000
3088888;-0.25000
3091666;-0.24500
3094444;-0.23000
3097221;-0.22500
3099999;-0.23500
3102777;-0.25000
3105555;-0.26000
3108332;-0.24500
3111110;-0.21000
3113888;-0.21000
3116666;-0.24500
3119444;-0.27500
3122221;-0.29000
3124999;-0.29000
3127777;-0.30000
3130555;-0.30500
3133332;-0.31500
3136110;-0.32500
3138888;-0.35500
3141666;-0.35000
3144444;-0.34000
3147221;-0.32000
3149999;-0.32500
3152777;-0.33500
3155555;-0.35000
3158332;-0.35000
3161110;-0.34000
3163888;-0.33500
3166666;-0.34000
3169444;-0.34500
3172221;-0.36000
3174999;-0.36000
3177777;-0.35000
3180555;-0.34500
3183332;-0.35000
3186110;-0.36000
3188888;-0.36500
3191666;-0.36500
3194444;-0.36500
3197221;-0.37000
3199999;-0.39000
3202777;-0.44000
3205555;-0.49000
3208332;-0.50500
3211110;-0.50000
3213888;-0.54500
3216666;-0.59000
3219444;-0.59500
3222221;-0.57500
3224999;-0.52500
3227777;-0.45500
3230555;-0.36000
3233332;-0.26500
3236110;-0.17000
3238888;-0.05000
3241666;0.18000
3244444;0.47000
3247221;0.70000
3249999;0.83500
3252777;0.84000
3255555;0.66000
3258332;0.30000
3261110;-0.10000
3263888;-0.38500
3266666;-0.49500
3269444;-0.48000
3272221;-0.43000
3274999;-0.39000
3277777;-0.38500
3280555;-0.38500
3283332;-0.39000
3286110;-0.39000
3288888;-0.41000
3291666;-0.39500
3294444;-0.38500
3297221;-0.39500
3299999;-0.38500
3302777;-0.39500
3305555;-0.41000
3308332;-0.40000
3311110;-0.40500
3313888;-0.39000
3316666;-0.38000
3319444;-0.39000
3322221;-0.39000
3324999;-0.38500
3327777;-0.39000
3330555;-0.38000
3333332;-0.38000
3336110;-0.38000
3338888;-0.40500
3341666;-0.39500
3344444;-0.40500
3347221;-0.37500
3349999;-0.38000
3352777;-0.39500
3355555;-0.40500
3358332;-0.40000
3361110;-0.40000
3363888;-0.39500
3366666;-0.39500
3369444;-0.39500
3372221;-0.40000
3374999;-0.39000
3377777;-0.38000
3380555;-0.37000
3383332;-0.37500
3386110;-0.38500
3388888;-0.39500
3391666;-0.39500
3394443;-0.38000
3397221;-0.38000
3399999;-0.38500
3402777;-0.39500
3405555;-0.40000
3408332;-0.40500
3411110;-0.39500
3413888;-0.39000
3416666;-0.39000
3419443;-0.40500
3422221;-0.39500
3424999;-0.40000
3427777;-0.39000
3430555;-0.38500
3433332;-0.38500
3436110;-0.39000
3438888;-0.41000
3441666;-0.39000
3444443;-0.38000
3447221;-0.39000
3449999;-0.38500
3452777;-0.38500
3455555;-0.38000
3458332;-0.37500
3461110;-0.36500
3463888;-0.36000
3466666;-0.37500
3469443;-0.38000
3472221;-0.39000
3474999;-0.38000
3477777;-0.37000
3480555;-0.36500
3483332;-0.37000
3486110;-0.38500
3488888;-0.38500
3491666;-0.39000
3494443;-0.37500
3497221;-0.36500
3499999;-0.38000
3502777;-0.38000
3505555;-0.40500
3508332;-0.39500
3511110;-0.37500
3513888;-0.36000
3516666;-0.37000
3519443;-0.37000
3522221;-0.39500
3524999;-0.39000
3527777;-0.38000
3530555;-0.36000
3533332;-0.36000
3536110;-0.36500
3538888;-0.36000
3541666;-0.34000
3544443;-0.32000
3547221;-0.31500
3549999;-0.31000
3552777;-0.32000
3555555;-0.32500
3558332;-0.32500
3561110;-0.32000
3563888;-0.30000
3566666;-0.29000
3569443;-0.29500
3572221;-0.29500
3574999;-0.29000
3577777;-0.28000
3580555;-0.28000
3583332;-0.29500
3586110;-0.30000
3588888;-0.30000
3591666;-0.29500
3594443;-0.28500
3597221;-0.28000
3599999;-0.28500
3602777;-0.28500
3605555;-0.31000
3608332;-0.29500
3611110;-0.29500
3613888;-0.29000
3616666;-0.29500
3619443;-0.30000
3622221;-0.31000
3624999;-0.30500
3627777;-0.30000
3630555;-0.29500
3633332;-0.30000
3636110;-0.31500
3638888;-0.32000
3641666;-0.31500
3644443;-0.30500
3647221;-0.30500
3649999;-0.29500
3652777;-0.30500
3655555;-0.32000
3658332;-0.31000
3661110;-0.30500
3663888;-0.30000
3666666;-0.31500
3669443;-0.33000
3672221;-0.33000
3674999;-0.32000
3677777;-0.32000
3680555;-0.31500
3683332;-0.33000
3686110;-0.34000
3688888;-0.34500
3691666;-0.34000
3694443;-0.33000
3697221;-0.32000
3699999;-0.33500
3702777;-0.33000
3705555;-0.35000
3708332;-0.35000
3711110;-0.35000
3713888;-0.34000
3716666;-0.36000
3719443;-0.36500
3722221;-0.37500
3724999;-0.37000
3727777;-0.36000
3730555;-0.35500
3733332;-0.34500
3736110;-0.35000
3738888;-0.36500
3741666;-0.34500
3744443;-0.35000
3747221;-0.34000
3749999;-0.34000
3752777;-0.36000
3755555;-0.37500
3758332;-0.37500
3761110;-0.36000
3763888;-0.36000
3766666;-0.36000
3769443;-0.37500
3772221;-0.38000
3774999;-0.37500
3777777;-0.35000
3780554;-0.34500
3783332;-0.34500
3786110;-0.35500
3788888;-0.37000
3791666;-0.36000
3794443;-0.35000
3797221;-0.34000
3799999;-0.34500
3802777;-0.34000
3805554;-0.36500
3808332;-0.36500
3811110;-0.35500
3813888;-0.34500
3816666;-0.35000
3819443;-0.35000
3822221;-0.35500
3824999;-0.33500
3827777;-0.32000
3830554;-0.29500
3833332;-0.29500
3836110;-0.30000
3838888;-0.30500
3841666;-0.28500
3844443;-0.29500
3847221;-0.28500
3849999;-0.28000
3852777;-0.28000
3855554;-0.28000
3858332;-0.26000
3861110;-0.24500
3863888;-0.25000
3866666;-0.25500
3869443;-0.26500
3872221;-0.27500
3874999;-0.26500
3877777;-0.26500
3880554;-0.26500
3883332;-0.26500
3886110;-0.26500
3888888;-0.28000
3891666;-0.28000
3894443;-0.27000
3897221;-0.27000
3899999;-0.25500
3902777;-0.25500
3905554;-0.27000
3908332;-0.30000
3911110;-0.31500
3913888;-0.32000
3916666;-0.33000
3919443;-0.35000
3922221;-0.36000
3924999;-0.36500
3927777;-0.36500
3930554;-0.37500
3933332;-0.36000
3936110;-0.38500
3938888;-0.38500
3941666;-0.37500
3944443;-0.37500
3947221;-0.36500
3949999;-0.36500
3952777;-0.36000
3955554;-0.38500
3958332;-0.38500
3961110;-0.38500
3963888;-0.38500
3966666;-0.38000
3969443;-0.38000
3972221;-0.39500
3974999;-0.39500
3977777;-0.38000
3980554;-0.38000
3983332;-0.38000
3986110;-0.37500
3988888;-0.38500
3991666;-0.37500
3994443;-0.38000
3997221;-0.39000
3999999;-0.42500
4002777;-0.47000
4005554;-0.50500
4008332;-0.52000
4011110;-0.56500
4013888;-0.58000
4016666;-0.54000
4019443;-0.45000
4022221;-0.33500
4024999;-0.21500
4027777;-0.03000
4030554;0.20500
4033332;0.48000
4036110;0.66500
4038888;0.78000
4041666;0.86000
4044443;0.87000
