time_ms;ecg_value
0;0.77500
2778;0.80500
5556;0.70000
8333;0.42000
11111;0.07500
13889;-0.26000
16667;-0.46500
19444;-0.53000
22222;-0.54000
25000;-0.47500
27778;-0.43500
30556;-0.42000
33333;-0.42500
36111;-0.43500
38889;-0.43500
41667;-0.43000
44444;-0.41500
47222;-0.41000
50000;-0.42000
52778;-0.42500
55556;-0.43000
58333;-0.41500
61111;-0.41500
63889;-0.41500
66667;-0.42000
69444;-0.43000
72222;-0.43000
75000;-0.42000
77778;-0.41000
80556;-0.41500
83333;-0.41500
86111;-0.40500
88889;-0.41500
91667;-0.42000
94444;-0.41500
97222;-0.42500
100000;-0.43000
102778;-0.43500
105556;-0.44000
108333;-0.43000
111111;-0.42000
113889;-0.43000
116667;-0.42000
119444;-0.44500
122222;-0.44000
125000;-0.44000
127778;-0.41500
130556;-0.41500
133333;-0.41500
136111;-0.41500
138889;-0.41000
141667;-0.42500
144444;-0.41000
147222;-0.41500
150000;-0.41000
152778;-0.42500
155556;-0.43000
158333;-0.41500
161111;-0.40000
163889;-0.40500
166667;-0.42000
169444;-0.43500
172222;-0.43500
175000;-0.41000
177778;-0.42500
180556;-0.42000
183333;-0.42500
186111;-0.44000
188889;-0.44000
191667;-0.43000
194444;-0.42000
197222;-0.42500
200000;-0.40500
202778;-0.41500
205555;-0.41000
208333;-0.40000
211111;-0.40500
213889;-0.41000
216667;-0.42500
219444;-0.44000
222222;-0.43500
225000;-0.43000
227778;-0.42000
230555;-0.42500
233333;-0.43000
236111;-0.43500
238889;-0.46500
241667;-0.43000
244444;-0.43000
247222;-0.44500
250000;-0.45500
252778;-0.46500
255555;-0.47000
258333;-0.47500
261111;-0.46500
263889;-0.46500
266667;-0.46500
269444;-0.47000
272222;-0.46500
275000;-0.46500
277778;-0.45000
280555;-0.45500
283333;-0.46000
286111;-0.47500
288889;-0.46500
291667;-0.46000
294444;-0.45000
297222;-0.45000
300000;-0.44000
302778;-0.43000
305555;-0.42000
308333;-0.39500
311111;-0.38500
313889;-0.37500
316667;-0.38500
319444;-0.38000
322222;-0.37500
325000;-0.36500
327778;-0.34500
330555;-0.34500
333333;-0.35500
336111;-0.34500
338889;-0.33500
341667;-0.32500
344444;-0.32000
347222;-0.33000
350000;-0.32500
352778;-0.33000
355555;-0.35000
358333;-0.33500
361111;-0.31000
363889;-0.31500
366667;-0.32000
369444;-0.33500
372222;-0.33500
375000;-0.33000
377778;-0.31500
380555;-0.32500
383333;-0.33500
386111;-0.34500
388889;-0.35000
391667;-0.34000
394444;-0.32000
397222;-0.34000
400000;-0.34000
402778;-0.35000
405555;-0.36000
408333;-0.35500
411111;-0.34500
413889;-0.35000
416667;-0.35000
419444;-0.34500
422222;-0.35500
425000;-0.34000
427778;-0.33000
430555;-0.33500
433333;-0.33500
436111;-0.34500
438889;-0.35500
441667;-0.34500
444444;-0.34000
447222;-0.34000
450000;-0.35000
452778;-0.37000
455555;-0.37000
458333;-0.36000
461111;-0.35000
463889;-0.35000
466667;-0.37000
469444;-0.37500
472222;-0.38000
475000;-0.36500
477778;-0.36500
480555;-0.36000
483333;-0.37000
486111;-0.37500
488889;-0.37000
491667;-0.36500
494444;-0.35500
497222;-0.35000
500000;-0.35000
502778;-0.35500
505555;-0.36500
508333;-0.34500
511111;-0.34000
513889;-0.34500
516667;-0.36000
519444;-0.37000
522222;-0.37000
525000;-0.36000
527778;-0.34000
530555;-0.35000
533333;-0.34500
536111;-0.35500
538889;-0.35500
541667;-0.35000
544444;-0.34000
547222;-0.34500
550000;-0.35500
552778;-0.36000
555555;-0.34500
558333;-0.34500
561111;-0.34000
563889;-0.35000
566667;-0.35000
569444;-0.36500
572222;-0.36500
575000;-0.34500
577778;-0.34000
580555;-0.33500
583333;-0.34000
586111;-0.35000
588889;-0.32500
591667;-0.31500
594444;-0.29000
597222;-0.28500
600000;-0.27500
602778;-0.28000
605555;-0.29500
608333;-0.29000
611111;-0.26500
613889;-0.25500
616666;-0.25500
619444;-0.25500
622222;-0.25500
625000;-0.24000
627778;-0.23500
630555;-0.25000
633333;-0.24000
636111;-0.26000
638889;-0.26500
641666;-0.26000
644444;-0.24500
647222;-0.25500
650000;-0.25000
652778;-0.26500
655555;-0.27500
658333;-0.27000
661111;-0.26000
663889;-0.24000
666666;-0.22500
669444;-0.23000
672222;-0.26500
675000;-0.27000
677778;-0.28500
680555;-0.29500
683333;-0.30500
686111;-0.34000
688889;-0.34500
691666;-0.33000
694444;-0.33000
697222;-0.33500
700000;-0.35000
702778;-0.34500
705555;-0.34500
708333;-0.34500
711111;-0.34000
713889;-0.33500
716666;-0.35000
719444;-0.36000
722222;-0.36500
725000;-0.36000
727778;-0.34500
730555;-0.36000
733333;-0.37000
736111;-0.37000
738889;-0.37500
741666;-0.36000
744444;-0.35000
747222;-0.35000
750000;-0.35500
752778;-0.36000
755555;-0.37000
758333;-0.35500
761111;-0.34500
763889;-0.37000
766666;-0.39500
769444;-0.42000
772222;-0.46500
775000;-0.46000
777778;-0.47500
780555;-0.52000
783333;-0.55000
786111;-0.54000
788889;-0.44500
791666;-0.30500
794444;-0.17500
797222;-0.02500
800000;0.19000
802778;0.42500
805555;0.66000
808333;0.81500
811111;0.88500
813889;0.80500
816666;0.57500
819444;0.21500
822222;-0.14500
825000;-0.37500
827778;-0.45000
830555;-0.46000
833333;-0.44500
836111;-0.41000
838889;-0.39000
841666;-0.38000
844444;-0.37000
847222;-0.37000
850000;-0.36500
852778;-0.37000
855555;-0.36500
858333;-0.37000
861111;-0.36000
863889;-0.35500
866666;-0.36000
869444;-0.36500
872222;-0.37500
875000;-0.37000
877778;-0.36000
880555;-0.37500
883333;-0.38000
886111;-0.38500
888889;-0.39500
891666;-0.37500
894444;-0.37500
897222;-0.37500
900000;-0.38500
902778;-0.40000
905555;-0.39000
908333;-0.38500
911111;-0.37000
913889;-0.37500
916666;-0.37000
919444;-0.38500
922222;-0.38500
925000;-0.36500
927778;-0.36500
930555;-0.36500
933333;-0.37500
936111;-0.37500
938889;-0.38000
941666;-0.37000
944444;-0.35000
947222;-0.36500
950000;-0.37500
952778;-0.38500
955555;-0.38000
958333;-0.36500
961111;-0.36000
963889;-0.37000
966666;-0.36500
969444;-0.38000
972222;-0.37000
975000;-0.36500
977778;-0.35000
980555;-0.37500
983333;-0.37500
986111;-0.38500
988889;-0.39500
991666;-0.38000
994444;-0.37000
997222;-0.37000
1000000;-0.37500
1002777;-0.37500
1005555;-0.38000
1008333;-0.37500
1011111;-0.35500
1013889;-0.35500
1016666;-0.36500
1019444;-0.37500
1022222;-0.37500
1025000;-0.36500
1027777;-0.35500
1030555;-0.36500
1033333;-0.36500
1036111;-0.38000
1038889;-0.38000
1041666;-0.36500
1044444;-0.35500
1047222;-0.36000
1050000;-0.37500
1052777;-0.38500
1055555;-0.39000
1058333;-0.38000
1061111;-0.37000
1063889;-0.36500
1066666;-0.38500
1069444;-0.39500
1072222;-0.40000
1075000;-0.38000
1077777;-0.38500
1080555;-0.38000
1083333;-0.39500
1086111;-0.39000
1088889;-0.39500
1091666;-0.38500
1094444;-0.37000
1097222;-0.38000
1100000;-0.37500
1102777;-0.39000
1105555;-0.39500
1108333;-0.38000
1111111;-0.36500
1113889;-0.36500
1116666;-0.36500
1119444;-0.36000
1122222;-0.36000
1125000;-0.34500
1127777;-0.33000
1130555;-0.31500
1133333;-0.31000
1136111;-0.30500
1138889;-0.30500
1141666;-0.28000
1144444;-0.27000
1147222;-0.27000
1150000;-0.26500
1152777;-0.27000
1155555;-0.26000
1158333;-0.24500
1161111;-0.23000
1163889;-0.24000
1166666;-0.23000
1169444;-0.25000
1172222;-0.24500
1175000;-0.24000
1177777;-0.22500
1180555;-0.23500
1183333;-0.24000
1186111;-0.24500
1188889;-0.24500
1191666;-0.23500
1194444;-0.24000
1197222;-0.24000
1200000;-0.24500
1202777;-0.26000
1205555;-0.25500
1208333;-0.23500
1211111;-0.23500
1213889;-0.24000
1216666;-0.24000
1219444;-0.24000
1222222;-0.24500
1225000;-0.24000
1227777;-0.23000
1230555;-0.23500
1233333;-0.25000
1236111;-0.26000
1238889;-0.26000
1241666;-0.25000
1244444;-0.24000
1247222;-0.24500
1250000;-0.25000
1252777;-0.26500
1255555;-0.26500
1258333;-0.26000
1261111;-0.25500
1263889;-0.24500
1266666;-0.25500
1269444;-0.27000
1272222;-0.28000
1275000;-0.27500
1277777;-0.25500
1280555;-0.27500
1283333;-0.28500
1286111;-0.28500
1288889;-0.29000
1291666;-0.27500
1294444;-0.27000
1297222;-0.26500
1300000;-0.28500
1302777;-0.28500
1305555;-0.28500
1308333;-0.27500
1311111;-0.26000
1313889;-0.27500
1316666;-0.29500
1319444;-0.29500
1322222;-0.29000
1325000;-0.28000
1327777;-0.28000
1330555;-0.27500
1333333;-0.30000
1336111;-0.29500
1338889;-0.30000
1341666;-0.28500
1344444;-0.27500
1347222;-0.28000
1350000;-0.28500
1352777;-0.28500
1355555;-0.27500
1358333;-0.26000
1361111;-0.25500
1363889;-0.26000
1366666;-0.27000
1369444;-0.28500
1372222;-0.28000
1375000;-0.28000
1377777;-0.26500
1380555;-0.27000
1383333;-0.27500
1386111;-0.29000
1388888;-0.28500
1391666;-0.27000
1394444;-0.27000
1397222;-0.26500
1400000;-0.27500
1402777;-0.27500
1405555;-0.28000
1408333;-0.26000
1411111;-0.24500
1413888;-0.24000
1416666;-0.23500
1419444;-0.23000
1422222;-0.22500
1425000;-0.21500
1427777;-0.20000
1430555;-0.19500
1433333;-0.19000
1436111;-0.18500
1438888;-0.17500
1441666;-0.16500
1444444;-0.16000
1447222;-0.15500
1450000;-0.15000
1452777;-0.16500
1455555;-0.18500
1458333;-0.17000
1461111;-0.17500
1463888;-0.18500
1466666;-0.19500
1469444;-0.20000
1472222;-0.19000
1475000;-0.19500
1477777;-0.19000
1480555;-0.18500
1483333;-0.16500
1486111;-0.15000
1488888;-0.17000
1491666;-0.19000
1494444;-0.20500
1497222;-0.21000
1500000;-0.23000
1502777;-0.25500
1505555;-0.26500
1508333;-0.27500
1511111;-0.26000
1513888;-0.27000
1516666;-0.27500
1519444;-0.29000
1522222;-0.29000
1525000;-0.27500
1527777;-0.27500
1530555;-0.28500
1533333;-0.28000
1536111;-0.28000
1538888;-0.29000
1541666;-0.29000
1544444;-0.27000
1547222;-0.28500
1550000;-0.27500
1552777;-0.30000
1555555;-0.29500
1558333;-0.29000
1561111;-0.28500
1563888;-0.29000
1566666;-0.31000
1569444;-0.30500
1572222;-0.30500
1575000;-0.30000
1577777;-0.29500
1580555;-0.30000
1583333;-0.30000
1586111;-0.31500
1588888;-0.33000
1591666;-0.33500
1594444;-0.35500
1597222;-0.39500
1600000;-0.41000
1602777;-0.45000
1605555;-0.47500
1608333;-0.48500
1611111;-0.44000
1613888;-0.34500
1616666;-0.20500
1619444;-0.08000
1622222;0.07500
1625000;0.31000
1627777;0.57000
1630555;0.79500
1633333;0.91500
1636111;0.93500
1638888;0.78000
1641666;0.48500
1644444;0.10500
1647222;-0.21000
1650000;-0.39500
1652777;-0.41000
1655555;-0.40500
1658333;-0.36000
1661111;-0.32000
1663888;-0.32500
1666666;-0.33000
1669444;-0.34000
1672222;-0.34000
1675000;-0.33000
1677777;-0.32000
1680555;-0.33000
1683333;-0.33500
1686111;-0.34000
1688888;-0.35000
1691666;-0.34000
1694444;-0.33500
1697222;-0.34500
1700000;-0.35500
1702777;-0.37000
1705555;-0.35000
1708333;-0.34500
1711111;-0.33500
1713888;-0.34000
1716666;-0.35500
1719444;-0.36000
1722222;-0.35500
1725000;-0.34500
1727777;-0.34000
1730555;-0.35000
1733333;-0.34500
1736111;-0.35500
1738888;-0.35000
1741666;-0.34500
1744444;-0.33000
1747222;-0.34000
1750000;-0.34500
1752777;-0.35000
1755555;-0.34500
1758333;-0.34000
1761111;-0.33000
1763888;-0.33000
1766666;-0.33000
1769444;-0.34500
1772222;-0.34000
1775000;-0.33500
1777777;-0.32500
1780555;-0.33000
1783333;-0.32500
1786111;-0.34000
1788888;-0.34500
1791666;-0.35000
1794444;-0.33500
1797222;-0.33500
1799999;-0.34500
1802777;-0.35500
1805555;-0.35500
1808333;-0.35500
1811111;-0.34000
1813888;-0.35000
1816666;-0.34000
1819444;-0.36000
1822222;-0.35000
1824999;-0.34500
1827777;-0.33500
1830555;-0.33500
1833333;-0.34000
1836111;-0.35000
1838888;-0.34500
1841666;-0.34000
1844444;-0.33000
1847222;-0.32500
1849999;-0.33000
1852777;-0.34000
1855555;-0.35000
1858333;-0.34500
1861111;-0.32500
1863888;-0.34000
1866666;-0.34000
1869444;-0.33500
1872222;-0.34500
1874999;-0.33000
1877777;-0.33000
1880555;-0.33000
1883333;-0.34500
1886111;-0.35500
1888888;-0.36000
1891666;-0.34500
1894444;-0.33500
1897222;-0.34000
1899999;-0.34500
1902777;-0.35000
1905555;-0.35500
1908333;-0.33500
1911111;-0.32500
1913888;-0.34000
1916666;-0.34000
1919444;-0.34000
1922222;-0.34500
1924999;-0.33000
1927777;-0.30500
1930555;-0.29500
1933333;-0.30500
1936111;-0.29000
1938888;-0.29500
1941666;-0.27000
1944444;-0.26000
1947222;-0.25500
1949999;-0.25000
1952777;-0.26500
1955555;-0.26500
1958333;-0.25500
1961111;-0.24500
1963888;-0.23500
1966666;-0.24000
1969444;-0.25500
1972222;-0.24500
1974999;-0.23500
1977777;-0.23500
1980555;-0.24000
1983333;-0.24500
1986111;-0.25000
1988888;-0.25000
1991666;-0.26000
1994444;-0.23500
1997222;-0.23500
1999999;-0.24000
2002777;-0.25000
2005555;-0.24500
2008333;-0.24000
2011111;-0.22500
2013888;-0.23500
2016666;-0.24000
2019444;-0.25000
2022222;-0.26500
2024999;-0.25500
2027777;-0.24500
2030555;-0.25000
2033333;-0.26000
2036111;-0.27000
2038888;-0.27000
2041666;-0.26500
2044444;-0.25000
2047222;-0.26000
2049999;-0.27000
2052777;-0.27000
2055555;-0.27500
2058333;-0.28000
2061111;-0.26500
2063888;-0.26000
2066666;-0.27500
2069444;-0.27500
2072222;-0.28000
2074999;-0.27000
2077777;-0.26500
2080555;-0.26000
2083333;-0.28000
2086111;-0.27000
2088888;-0.28000
2091666;-0.27500
2094444;-0.27000
2097222;-0.27000
2099999;-0.28000
2102777;-0.28500
2105555;-0.29500
2108333;-0.28000
2111111;-0.27000
2113888;-0.28500
2116666;-0.29000
2119444;-0.31000
2122222;-0.30500
2124999;-0.30500
2127777;-0.29000
2130555;-0.28000
2133333;-0.29000
2136111;-0.29500
2138888;-0.30000
2141666;-0.29000
2144444;-0.28500
2147222;-0.29000
2149999;-0.29500
2152777;-0.29500
2155555;-0.29500
2158333;-0.29500
2161111;-0.27500
2163888;-0.27500
2166666;-0.28000
2169444;-0.28500
2172222;-0.28500
2174999;-0.28500
2177777;-0.27500
2180555;-0.28000
2183333;-0.28500
2186110;-0.28500
2188888;-0.29000
2191666;-0.28500
2194444;-0.28500
2197222;-0.28500
2199999;-0.28000
2202777;-0.29000
2205555;-0.29000
2208333;-0.28000
2211110;-0.26500
2213888;-0.26000
2216666;-0.25500
2219444;-0.25000
2222222;-0.24000
2224999;-0.22500
2227777;-0.20000
2230555;-0.20000
2233333;-0.21000
2236110;-0.21500
2238888;-0.21000
2241666;-0.19000
2244444;-0.17000
2247222;-0.17000
2249999;-0.16000
2252777;-0.17500
2255555;-0.18000
2258333;-0.18000
2261110;-0.17500
2263888;-0.18500
2266666;-0.19500
2269444;-0.20500
2272222;-0.20000
2274999;-0.19500
2277777;-0.19500
2280555;-0.20500
2283333;-0.20000
2286110;-0.18000
2288888;-0.18000
2291666;-0.17500
2294444;-0.17500
2297222;-0.21500
2299999;-0.23500
2302777;-0.24500
2305555;-0.26500
2308333;-0.25500
2311110;-0.25000
2313888;-0.25500
2316666;-0.27000
2319444;-0.27500
2322222;-0.29000
2324999;-0.28000
2327777;-0.27000
2330555;-0.27000
2333333;-0.28500
2336110;-0.28000
2338888;-0.29500
2341666;-0.29000
2344444;-0.28000
2347222;-0.28000
2349999;-0.30000
2352777;-0.30000
2355555;-0.31000
2358333;-0.30500
2361110;-0.29500
2363888;-0.30000
2366666;-0.30000
2369444;-0.31500
2372222;-0.30500
2374999;-0.29500
2377777;-0.29000
2380555;-0.28500
2383333;-0.28500
2386110;-0.30000
2388888;-0.31000
2391666;-0.32000
2394444;-0.33000
2397222;-0.37500
2399999;-0.40500
2402777;-0.44000
2405555;-0.48500
2408333;-0.50500
2411110;-0.49000
2413888;-0.40500
2416666;-0.29500
2419444;-0.17000
2422222;-0.01000
2424999;0.21500
2427777;0.46500
2430555;0.68500
2433333;0.81000
2436110;0.83500
2438888;0.73500
2441666;0.46500
2444444;0.10500
2447222;-0.22000
2449999;-0.40000
2452777;-0.43500
2455555;-0.40000
2458333;-0.36000
2461110;-0.33000
2463888;-0.33000
2466666;-0.33500
2469444;-0.34500
2472222;-0.34000
2474999;-0.33500
2477777;-0.33000
2480555;-0.33500
2483333;-0.33500
2486110;-0.34000
2488888;-0.35000
2491666;-0.35000
2494444;-0.34000
2497222;-0.34000
2499999;-0.34500
2502777;-0.34500
2505555;-0.35000
2508333;-0.32500
2511110;-0.32500
2513888;-0.33000
2516666;-0.33500
2519444;-0.35000
2522222;-0.36000
2524999;-0.35000
2527777;-0.32500
2530555;-0.33000
2533333;-0.34000
2536110;-0.34500
2538888;-0.34500
2541666;-0.33000
2544444;-0.32500
2547222;-0.32500
2549999;-0.34500
2552777;-0.35500
2555555;-0.34500
2558333;-0.33500
2561110;-0.33500
2563888;-0.33500
2566666;-0.34000
2569444;-0.34000
2572222;-0.34500
2574999;-0.34000
2577777;-0.34500
2580555;-0.34000
2583333;-0.34000
2586110;-0.35000
2588888;-0.35500
2591666;-0.35000
2594444;-0.34000
2597221;-0.33500
2599999;-0.34500
2602777;-0.35000
2605555;-0.34500
2608333;-0.34000
2611110;-0.34000
2613888;-0.35500
2616666;-0.35500
2619444;-0.35500
2622221;-0.35000
2624999;-0.34000
2627777;-0.32500
2630555;-0.33000
2633333;-0.33500
2636110;-0.34000
2638888;-0.36000
2641666;-0.34500
2644444;-0.34000
2647221;-0.33500
2649999;-0.34000
2652777;-0.35000
2655555;-0.36000
2658333;-0.35000
2661110;-0.33500
2663888;-0.33500
2666666;-0.34000
2669444;-0.34500
2672221;-0.35500
2674999;-0.34000
2677777;-0.33500
2680555;-0.35000
2683333;-0.35000
2686110;-0.35500
2688888;-0.35500
2691666;-0.34500
2694444;-0.33000
2697221;-0.34500
2699999;-0.36000
2702777;-0.35000
2705555;-0.35000
2708333;-0.34500
2711110;-0.34000
2713888;-0.34500
2716666;-0.36000
2719444;-0.36000
2722221;-0.37000
2724999;-0.35000
2727777;-0.35000
2730555;-0.33000
2733333;-0.33000
2736110;-0.33500
2738888;-0.34000
2741666;-0.33000
2744444;-0.30500
2747221;-0.31500
2749999;-0.33000
2752777;-0.30500
2755555;-0.30500
2758333;-0.29500
2761110;-0.28500
2763888;-0.28500
2766666;-0.29500
2769444;-0.28500
2772221;-0.28500
2774999;-0.27500
2777777;-0.28000
2780555;-0.27000
2783333;-0.29000
2786110;-0.28500
2788888;-0.29000
2791666;-0.27500
2794444;-0.27000
2797221;-0.27500
2799999;-0.27000
2802777;-0.27500
2805555;-0.28500
2808333;-0.27000
2811110;-0.26000
2813888;-0.27000
2816666;-0.27500
2819444;-0.29500
2822221;-0.30500
2824999;-0.29500
2827777;-0.28500
2830555;-0.29000
2833333;-0.29000
2836110;-0.30500
2838888;-0.30500
2841666;-0.29000
2844444;-0.28500
2847221;-0.29500
2849999;-0.31500
2852777;-0.32000
2855555;-0.30500
2858333;-0.31000
2861110;-0.30000
2863888;-0.29000
2866666;-0.29000
2869444;-0.29500
2872221;-0.30000
2874999;-0.30500
2877777;-0.30000
2880555;-0.30500
2883333;-0.33000
2886110;-0.33000
2888888;-0.33000
2891666;-0.32500
2894444;-0.31500
2897221;-0.31500
2899999;-0.32000
2902777;-0.33500
2905555;-0.32000
2908333;-0.32000
2911110;-0.31500
2913888;-0.32500
2916666;-0.33000
2919444;-0.33000
2922221;-0.34000
2924999;-0.33000
2927777;-0.32000
2930555;-0.31500
2933333;-0.32500
2936110;-0.33500
2938888;-0.33500
2941666;-0.33500
2944444;-0.31000
2947221;-0.32500
2949999;-0.34500
2952777;-0.33000
2955555;-0.33500
2958333;-0.31500
2961110;-0.31500
2963888;-0.33000
2966666;-0.34000
2969444;-0.34500
2972221;-0.33500
2974999;-0.33500
2977777;-0.32500
2980555;-0.32500
2983332;-0.34000
2986110;-0.34500
2988888;-0.33500
2991666;-0.32000
2994444;-0.30500
2997221;-0.30500
2999999;-0.29000
3002777;-0.29500
3005555;-0.29000
3008332;-0.27500
3011110;-0.25000
3013888;-0.26000
3016666;-0.25500
3019444;-0.26000
3022221;-0.25500
3024999;-0.24000
3027777;-0.22000
3030555;-0.21000
3033332;-0.21000
3036110;-0.21500
3038888;-0.23000
3041666;-0.22500
3044444;-0.21500
3047221;-0.21500
3049999;-0.23500
3052777;-0.25000
3055555;-0.26500
3058332;-0.24500
3061110;-0.23000
3063888;-0.23500
3066666;-0.26500
3069444;-0.27000
3072221;-0.26500
3074999;-0.24000
3077777;-0.21500
3080555;-0.23500
3083332;-0.25500
3086110;-0.30000
3088888;-0.32000
3091666;-0.32000
3094444;-0.32500
3097221;-0.33500
3099999;-0.33500
3102777;-0.36000
3105555;-0.36000
3108332;-0.34000
3111110;-0.33000
3113888;-0.33500
3116666;-0.34500
3119444;-0.35500
3122221;-0.37000
3124999;-0.36000
3127777;-0.36500
3130555;-0.36500
3133332;-0.37500
3136110;-0.37000
3138888;-0.37500
3141666;-0.37000
3144444;-0.35500
3147221;-0.36000
3149999;-0.35500
3152777;-0.37000
3155555;-0.37000
3158332;-0.35500
3161110;-0.36000
3163888;-0.38000
3166666;-0.43000
3169444;-0.45500
3172221;-0.49000
3174999;-0.52500
3177777;-0.56000
3180555;-0.54000
3183332;-0.46000
3186110;-0.34000
3188888;-0.21000
3191666;-0.02500
3194444;0.21000
3197221;0.48500
3199999;0.70500
3202777;0.83500
3205555;0.83000
3208332;0.68500
3211110;0.38000
3213888;0.03000
3216666;-0.24500
3219444;-0.40000
3222221;-0.47500
3224999;-0.53000
3227777;-0.54000
3230555;-0.52000
3233332;-0.46500
3236110;-0.43000
3238888;-0.43000
3241666;-0.41500
3244444;-0.41000
3247221;-0.39500
3249999;-0.40000
3252777;-0.41500
3255555;-0.42500
3258332;-0.41000
3261110;-0.39500
3263888;-0.40000
3266666;-0.40500
3269444;-0.42000
3272221;-0.42500
3274999;-0.42500
3277777;-0.41000
3280555;-0.43000
3283332;-0.43500
3286110;-0.44000
3288888;-0.42000
3291666;-0.40500
3294444;-0.40500
3297221;-0.40000
3299999;-0.40000
3302777;-0.42000
3305555;-0.43500
3308332;-0.42000
3311110;-0.40000
3313888;-0.40500
3316666;-0.40500
3319444;-0.42500
3322221;-0.41500
3324999;-0.41000
3327777;-0.41500
3330555;-0.40000
3333332;-0.41500
3336110;-0.42000
3338888;-0.42500
3341666;-0.41000
3344444;-0.41500
3347221;-0.42500
3349999;-0.41500
3352777;-0.42000
3355555;-0.42000
3358332;-0.40500
3361110;-0.40000
3363888;-0.41500
3366666;-0.42500
3369444;-0.41500
3372221;-0.42500
3374999;-0.42000
3377777;-0.41500
3380555;-0.41000
3383332;-0.41500
3386110;-0.42000
3388888;-0.41500
3391666;-0.41000
3394443;-0.40500
3397221;-0.41500
3399999;-0.41000
3402777;-0.42500
3405555;-0.43000
3408332;-0.41500
3411110;-0.40500
3413888;-0.40500
3416666;-0.41500
3419443;-0.42000
3422221;-0.42500
3424999;-0.41500
3427777;-0.42500
3430555;-0.41000
3433332;-0.42000
3436110;-0.43000
3438888;-0.43500
3441666;-0.45000
3444443;-0.43500
3447221;-0.43500
3449999;-0.43500
3452777;-0.43500
3455555;-0.45000
3458332;-0.43000
3461110;-0.44000
3463888;-0.44000
3466666;-0.46000
3469443;-0.45000
3472221;-0.45500
3474999;-0.43500
3477777;-0.44500
3480555;-0.44000
3483332;-0.45000
3486110;-0.45000
3488888;-0.45000
3491666;-0.43000
3494443;-0.41000
3497221;-0.40500
3499999;-0.40000
3502777;-0.40500
3505555;-0.39500
3508332;-0.38000
3511110;-0.36000
3513888;-0.36000
3516666;-0.36500
3519443;-0.35500
3522221;-0.34000
3524999;-0.32500
3527777;-0.31000
3530555;-0.30500
3533332;-0.31500
3536110;-0.32000
3538888;-0.32500
3541666;-0.31000
3544443;-0.30000
3547221;-0.31000
3549999;-0.31500
3552777;-0.30500
3555555;-0.31500
3558332;-0.30000
3561110;-0.29000
3563888;-0.30500
3566666;-0.30500
3569443;-0.31500
3572221;-0.31000
3574999;-0.30000
3577777;-0.29000
3580555;-0.29000
3583332;-0.31000
3586110;-0.30000
3588888;-0.31500
3591666;-0.30500
3594443;-0.30000
3597221;-0.30000
3599999;-0.31500
3602777;-0.31000
3605555;-0.32000
3608332;-0.31000
3611110;-0.30000
3613888;-0.30000
3616666;-0.31500
3619443;-0.31000
3622221;-0.31500
3624999;-0.30500
3627777;-0.31000
3630555;-0.31000
3633332;-0.31500
3636110;-0.31500
3638888;-0.32000
3641666;-0.31000
3644443;-0.31000
3647221;-0.31500
3649999;-0.32500
3652777;-0.33500
3655555;-0.33000
3658332;-0.32500
3661110;-0.32000
3663888;-0.32000
3666666;-0.32500
3669443;-0.33000
3672221;-0.32500
3674999;-0.32000
3677777;-0.31000
3680555;-0.32000
3683332;-0.32000
3686110;-0.33000
3688888;-0.32500
3691666;-0.32000
3694443;-0.31000
3697221;-0.31500
3699999;-0.32000
3702777;-0.32000
3705555;-0.32500
3708332;-0.31500
3711110;-0.30500
3713888;-0.30500
3716666;-0.31500
3719443;-0.32500
3722221;-0.34000
3724999;-0.32000
3727777;-0.31000
3730555;-0.31000
3733332;-0.32000
3736110;-0.32500
3738888;-0.33000
3741666;-0.31500
3744443;-0.31500
3747221;-0.31500
3749999;-0.33000
3752777;-0.33500
3755555;-0.33000
3758332;-0.32000
3761110;-0.30500
3763888;-0.31000
3766666;-0.31000
3769443;-0.32500
3772221;-0.31500
3774999;-0.29500
3777777;-0.27500
3780554;-0.26000
3783332;-0.24500
3786110;-0.24500
3788888;-0.25000
3791666;-0.25000
3794443;-0.22500
3797221;-0.21500
3799999;-0.22500
3802777;-0.22500
3805554;-0.21000
3808332;-0.19500
3811110;-0.19000
3813888;-0.20000
3816666;-0.21000
3819443;-0.21000
3822221;-0.22000
3824999;-0.22000
3827777;-0.21000
3830554;-0.21000
3833332;-0.22000
3836110;-0.23000
3838888;-0.24000
3841666;-0.21000
3844443;-0.16500
3847221;-0.18500
3849999;-0.21000
3852777;-0.25500
3855554;-0.27500
3858332;-0.27000
3861110;-0.26500
3863888;-0.27500
3866666;-0.29500
3869443;-0.30500
3872221;-0.30000
3874999;-0.30500
3877777;-0.29500
3880554;-0.29500
3883332;-0.29000
3886110;-0.31000
3888888;-0.30500
3891666;-0.30000
3894443;-0.29500
3897221;-0.30500
3899999;-0.30500
3902777;-0.31500
3905554;-0.32000
3908332;-0.31000
3911110;-0.31500
3913888;-0.31000
3916666;-0.32000
3919443;-0.33000
3922221;-0.33000
3924999;-0.32500
3927777;-0.31500
3930554;-0.31500
3933332;-0.30500
3936110;-0.33000
3938888;-0.34000
3941666;-0.35500
3944443;-0.39000
3947221;-0.42000
3949999;-0.44500
3952777;-0.47500
3955554;-0.53000
3958332;-0.49000
3961110;-0.39000
3963888;-0.25500
3966666;-0.11500
3969443;0.06000
3972221;0.31000
3974999;0.61000
3977777;0.82500
3980554;0.94000
3983332;0.87000
3986110;0.62000
3988888;0.19500
3991666;-0.18500
3994443;-0.38500
3997221;-0.43000
3999999;-0.42000
4002777;-0.38000
4005554;-0.34500
4008332;-0.32500
4011110;-0.32500
4013888;-0.33000
4016666;-0.34500
4019443;-0.33500
4022221;-0.34500
4024999;-0.33000
4027777;-0.32500
4030554;-0.32000
4033332;-0.32500
4036110;-0.34500
4038888;-0.34000
4041666;-0.33000
4044443;-0.33000
4047221;-0.32500
4049999;-0.34000
4052777;-0.35500
4055554;-0.34500
4058332;-0.33500
4061110;-0.32000
4063888;-0.32500
4066666;-0.32500
4069443;-0.34500
4072221;-0.34500
4074999;-0.33500
4077777;-0.33000
4080554;-0.32500
4083332;-0.33500
4086110;-0.34500
4088888;-0.35000
4091666;-0.35000
4094443;-0.34500
4097221;-0.33000
4099999;-0.33000
4102777;-0.33000
4105554;-0.35000
4108332;-0.33500
4111110;-0.34000
4113888;-0.33500
4116666;-0.33000
4119443;-0.33000
4122221;-0.33500
4124999;-0.31500
4127777;-0.31500
4130554;-0.32500
4133332;-0.33000
4136110;-0.32000
4138888;-0.33000
4141666;-0.33000
4144443;-0.31500
4147221;-0.32000
4149999;-0.33000
4152777;-0.33500
4155554;-0.33500
4158332;-0.32500
4161110;-0.32000
4163888;-0.31500
4166666;-0.32000
4169443;-0.34500
4172221;-0.33500
4174999;-0.32500
4177777;-0.32000
4180554;-0.32000
4183332;-0.33500
4186110;-0.32000
4188888;-0.33000
4191665;-0.32000
4194443;-0.30500
4197221;-0.31000
4199999;-0.31500
4202777;-0.32000
4205554;-0.32500
4208332;-0.32000
4211110;-0.32000
4213888;-0.31500
4216665;-0.32500
4219443;-0.32500
4222221;-0.34000
4224999;-0.34000
4227777;-0.33000
4230554;-0.33500
4233332;-0.36000
4236110;-0.36500
4238888;-0.37000
4241665;-0.36000
4244443;-0.35000
4247221;-0.33500
4249999;-0.35000
4252777;-0.35000
4255554;-0.35000
4258332;-0.33500
4261110;-0.32500
4263888;-0.31500
4266665;-0.32000
4269443;-0.31000
4272221;-0.30500
4274999;-0.28500
4277777;-0.27500
4280554;-0.27000
4283332;-0.25500
4286110;-0.26000
4288888;-0.25500
4291665;-0.24500
4294443;-0.23000
4297221;-0.22500
4299999;-0.23000
4302777;-0.22500
4305554;-0.22500
4308332;-0.21500
4311110;-0.20500
4313888;-0.21000
4316665;-0.22000
4319443;-0.22000
4322221;-0.22500
4324999;-0.21500
4327777;-0.20500
4330554;-0.20000
4333332;-0.22500
4336110;-0.21500
4338888;-0.21500
4341665;-0.21000
4344443;-0.19500
4347221;-0.20500
4349999;-0.21500
4352777;-0.22500
4355554;-0.22500
4358332;-0.22000
4361110;-0.22000
4363888;-0.21000
4366665;-0.21000
4369443;-0.21500
4372221;-0.21500
4374999;-0.21000
4377777;-0.20500
4380554;-0.21000
4383332;-0.21000
4386110;-0.21500
4388888;-0.22500
4391665;-0.22500
4394443;-0.21000
4397221;-0.22000
4399999;-0.22000
4402777;-0.23500
4405554;-0.23500
4408332;-0.21500
4411110;-0.22500
4413888;-0.23000
4416665;-0.24500
4419443;-0.25000
4422221;-0.24000
4424999;-0.23500
4427777;-0.22500
4430554;-0.23500
4433332;-0.24000
4436110;-0.25000
4438888;-0.25000
4441665;-0.24000
4444443;-0.24500
4447221;-0.24000
4449999;-0.23500
4452777;-0.24500
4455554;-0.25000
4458332;-0.24500
4461110;-0.23500
4463888;-0.23000
4466665;-0.24000
4469443;-0.24500
4472221;-0.26000
4474999;-0.25500
4477777;-0.23500
4480554;-0.23000
4483332;-0.23500
4486110;-0.24500
4488888;-0.24500
4491665;-0.24000
4494443;-0.23500
4497221;-0.24000
4499999;-0.24500
4502777;-0.25000
4505554;-0.26000
4508332;-0.25500
4511110;-0.24000
4513888;-0.24000
4516665;-0.23000
4519443;-0.23500
4522221;-0.23500
4524999;-0.23500
4527777;-0.22500
4530554;-0.22500
4533332;-0.23000
4536110;-0.23000
4538888;-0.24500
4541665;-0.23000
4544443;-0.22000
4547221;-0.22000
4549999;-0.22000
4552777;-0.21500
4555554;-0.21000
4558332;-0.19500
4561110;-0.17000
4563888;-0.16000
4566665;-0.16000
4569443;-0.17500
4572221;-0.16500
4574999;-0.16000
4577776;-0.14500
4580554;-0.13500
4583332;-0.13000
4586110;-0.13500
4588888;-0.13500
4591665;-0.12500
