time_ms;ecg_value
0;1.03000
2778;1.14500
5556;1.09500
8333;0.84000
11111;0.39500
13889;-0.07000
16667;-0.37500
19444;-0.46500
22222;-0.45500
25000;-0.41000
27778;-0.37500
30556;-0.37000
33333;-0.37000
36111;-0.37500
38889;-0.38500
41667;-0.40000
44444;-0.38000
47222;-0.37000
50000;-0.38500
52778;-0.39000
55556;-0.39500
58333;-0.41500
61111;-0.39500
63889;-0.39500
66667;-0.38500
69444;-0.38000
72222;-0.39500
75000;-0.40000
77778;-0.40000
80556;-0.39000
83333;-0.39000
86111;-0.39000
88889;-0.40500
91667;-0.41000
94444;-0.40500
97222;-0.40500
100000;-0.39500
102778;-0.40500
105556;-0.41500
108333;-0.42500
111111;-0.42000
113889;-0.40500
116667;-0.40000
119444;-0.39500
122222;-0.41000
125000;-0.41500
127778;-0.42000
130556;-0.40000
133333;-0.39500
136111;-0.40000
138889;-0.40500
141667;-0.41500
144444;-0.40500
147222;-0.39000
150000;-0.39000
152778;-0.39000
155556;-0.41000
158333;-0.41500
161111;-0.41000
163889;-0.41000
166667;-0.41000
169444;-0.40500
172222;-0.41500
175000;-0.42500
177778;-0.42500
180556;-0.41000
183333;-0.39000
186111;-0.40000
188889;-0.40000
191667;-0.41500
194444;-0.41500
197222;-0.41000
200000;-0.40000
202778;-0.39000
205555;-0.39500
208333;-0.40000
211111;-0.40500
213889;-0.40000
216667;-0.40000
219444;-0.40500
222222;-0.41500
225000;-0.41500
227778;-0.41000
230555;-0.41500
233333;-0.41500
236111;-0.41000
238889;-0.42000
241667;-0.43000
244444;-0.44500
247222;-0.43500
250000;-0.42000
252778;-0.42000
255555;-0.43000
258333;-0.43500
261111;-0.43000
263889;-0.42500
266667;-0.41500
269444;-0.41500
272222;-0.43000
275000;-0.44000
277778;-0.42500
280555;-0.41000
283333;-0.40500
286111;-0.40500
288889;-0.40500
291667;-0.42500
294444;-0.40500
297222;-0.39500
300000;-0.38000
302778;-0.37000
305555;-0.37500
308333;-0.36000
311111;-0.35500
313889;-0.33500
316667;-0.32000
319444;-0.32000
322222;-0.31000
325000;-0.32000
327778;-0.30000
330555;-0.28000
333333;-0.27000
336111;-0.28000
338889;-0.27500
341667;-0.27500
344444;-0.27500
347222;-0.27000
350000;-0.26000
352778;-0.26500
355555;-0.26500
358333;-0.27000
361111;-0.26500
363889;-0.25500
366667;-0.24500
369444;-0.25500
372222;-0.25000
375000;-0.27000
377778;-0.26000
380555;-0.25500
383333;-0.25000
386111;-0.25500
388889;-0.27500
391667;-0.27000
394444;-0.27500
397222;-0.27000
400000;-0.27000
402778;-0.27500
405555;-0.27500
408333;-0.28500
411111;-0.28000
413889;-0.27000
416667;-0.26000
419444;-0.26000
422222;-0.27500
425000;-0.28500
427778;-0.27500
430555;-0.26500
433333;-0.26000
436111;-0.28000
438889;-0.28000
441667;-0.29500
444444;-0.29000
447222;-0.27500
450000;-0.27000
452778;-0.27500
455555;-0.28000
458333;-0.30000
461111;-0.30500
463889;-0.29000
466667;-0.30000
469444;-0.30500
472222;-0.30500
475000;-0.32000
477778;-0.31500
480555;-0.31500
483333;-0.30000
486111;-0.29500
488889;-0.31500
491667;-0.32500
494444;-0.32000
497222;-0.31000
500000;-0.30000
502778;-0.31000
505555;-0.31500
508333;-0.32000
511111;-0.33000
513889;-0.32000
516667;-0.31500
519444;-0.32000
522222;-0.31500
525000;-0.33000
527778;-0.33000
530555;-0.32000
533333;-0.31000
536111;-0.32500
538889;-0.33500
541667;-0.35000
544444;-0.34000
547222;-0.32500
550000;-0.32000
552778;-0.33000
555555;-0.33500
558333;-0.33000
561111;-0.33000
563889;-0.32000
566667;-0.32000
569444;-0.32000
572222;-0.31000
575000;-0.32000
577778;-0.31500
580555;-0.30500
583333;-0.30000
586111;-0.29000
588889;-0.30500
591667;-0.30000
594444;-0.29500
597222;-0.29000
600000;-0.28000
602778;-0.28500
605555;-0.30000
608333;-0.31500
611111;-0.30500
613889;-0.30500
616666;-0.30000
619444;-0.29500
622222;-0.31500
625000;-0.31500
627778;-0.31500
630555;-0.30500
633333;-0.30000
636111;-0.29500
638889;-0.28500
641666;-0.28000
644444;-0.27000
647222;-0.24000
650000;-0.23000
652778;-0.23000
655555;-0.24000
658333;-0.24000
661111;-0.23000
663889;-0.21000
666666;-0.20000
669444;-0.19000
672222;-0.18500
675000;-0.20000
677778;-0.19500
680555;-0.18500
683333;-0.18000
686111;-0.20000
688889;-0.20500
691666;-0.22500
694444;-0.22000
697222;-0.20500
700000;-0.18500
702778;-0.21000
705555;-0.22000
708333;-0.24500
711111;-0.22500
713889;-0.20000
716666;-0.18000
719444;-0.19500
722222;-0.22500
725000;-0.26500
727778;-0.27500
730555;-0.27500
733333;-0.29000
736111;-0.30000
738889;-0.31500
741666;-0.32500
744444;-0.33500
747222;-0.31000
750000;-0.30000
752778;-0.30500
755555;-0.31500
758333;-0.32500
761111;-0.34000
763889;-0.33500
766666;-0.32000
769444;-0.33000
772222;-0.34500
775000;-0.35000
777778;-0.36500
780555;-0.34000
783333;-0.33000
786111;-0.33500
788889;-0.33000
791666;-0.35000
794444;-0.33000
797222;-0.34000
800000;-0.33000
802778;-0.32500
805555;-0.34000
808333;-0.35000
811111;-0.36500
813889;-0.39000
816666;-0.42500
819444;-0.46500
822222;-0.48500
825000;-0.53500
827778;-0.57000
830555;-0.55500
833333;-0.45000
836111;-0.31000
838889;-0.16000
841666;0.00000
844444;0.22000
847222;0.51000
850000;0.77000
852778;0.98000
855555;1.09500
858333;1.06000
861111;0.85000
863889;0.44000
866666;0.01500
869444;-0.31500
872222;-0.46000
875000;-0.47500
877778;-0.43500
880555;-0.36500
883333;-0.33500
886111;-0.34500
888889;-0.35500
891666;-0.36500
894444;-0.36500
897222;-0.36000
900000;-0.35000
902778;-0.36000
905555;-0.36000
908333;-0.39000
911111;-0.38000
913889;-0.38500
916666;-0.37000
919444;-0.38500
922222;-0.39500
925000;-0.41000
927778;-0.40500
930555;-0.39500
933333;-0.37500
936111;-0.38500
938889;-0.39500
941666;-0.40000
944444;-0.39500
947222;-0.38500
950000;-0.38500
952778;-0.38000
955555;-0.38500
958333;-0.39000
961111;-0.39500
963889;-0.38500
966666;-0.38500
969444;-0.38000
972222;-0.39000
975000;-0.40000
977778;-0.39000
980555;-0.39500
983333;-0.38500
986111;-0.38500
988889;-0.39000
991666;-0.39000
994444;-0.39000
997222;-0.38500
1000000;-0.38000
1002777;-0.38000
1005555;-0.40500
1008333;-0.39000
1011111;-0.40000
1013889;-0.38500
1016666;-0.37500
1019444;-0.39000
1022222;-0.39500
1025000;-0.39500
1027777;-0.40000
1030555;-0.37500
1033333;-0.37500
1036111;-0.37000
1038889;-0.38000
1041666;-0.39500
1044444;-0.38500
1047222;-0.38000
1050000;-0.38000
1052777;-0.37000
1055555;-0.38000
1058333;-0.39500
1061111;-0.39000
1063889;-0.39000
1066666;-0.37500
1069444;-0.37500
1072222;-0.38000
1075000;-0.38500
1077777;-0.39500
1080555;-0.38000
1083333;-0.37500
1086111;-0.38000
1088889;-0.39500
1091666;-0.41000
1094444;-0.40500
1097222;-0.40500
1100000;-0.39500
1102777;-0.39500
1105555;-0.40500
1108333;-0.41500
1111111;-0.40500
1113889;-0.40000
1116666;-0.39000
1119444;-0.40000
1122222;-0.41000
1125000;-0.42000
1127777;-0.41500
1130555;-0.40000
1133333;-0.39000
1136111;-0.39500
1138889;-0.38500
1141666;-0.40500
1144444;-0.39500
1147222;-0.39000
1150000;-0.37000
1152777;-0.37500
1155555;-0.39000
1158333;-0.37500
1161111;-0.37000
1163889;-0.35000
1166666;-0.33000
1169444;-0.33000
1172222;-0.32000
1175000;-0.32000
1177777;-0.31500
1180555;-0.29000
1183333;-0.29000
1186111;-0.30000
1188889;-0.29500
1191666;-0.29500
1194444;-0.28000
1197222;-0.27000
1200000;-0.25500
1202777;-0.26500
1205555;-0.26000
1208333;-0.27000
1211111;-0.26000
1213889;-0.26500
1216666;-0.25500
1219444;-0.25500
1222222;-0.25500
1225000;-0.25500
1227777;-0.26000
1230555;-0.25500
1233333;-0.25000
1236111;-0.24500
1238889;-0.25500
1241666;-0.27000
1244444;-0.26000
1247222;-0.26000
1250000;-0.24000
1252777;-0.26000
1255555;-0.27000
1258333;-0.27000
1261111;-0.28500
1263889;-0.27500
1266666;-0.26000
1269444;-0.26000
1272222;-0.27500
1275000;-0.28500
1277777;-0.28500
1280555;-0.27000
1283333;-0.26500
1286111;-0.26500
1288889;-0.26500
1291666;-0.27500
1294444;-0.28500
1297222;-0.28000
1300000;-0.29000
1302777;-0.29500
1305555;-0.30000
1308333;-0.30500
1311111;-0.29500
1313889;-0.29500
1316666;-0.29000
1319444;-0.28500
1322222;-0.29500
1325000;-0.30500
1327777;-0.30000
1330555;-0.28500
1333333;-0.29000
1336111;-0.29500
1338889;-0.29000
1341666;-0.31000
1344444;-0.30500
1347222;-0.30500
1350000;-0.30000
1352777;-0.31000
1355555;-0.31500
1358333;-0.31500
1361111;-0.32000
1363889;-0.31500
1366666;-0.30500
1369444;-0.31000
1372222;-0.33000
1375000;-0.33500
1377777;-0.32500
1380555;-0.31000
1383333;-0.30500
1386111;-0.31000
1388888;-0.30000
1391666;-0.32000
1394444;-0.31000
1397222;-0.29500
1400000;-0.29000
1402777;-0.31000
1405555;-0.30500
1408333;-0.31500
1411111;-0.30500
1413888;-0.30000
1416666;-0.28500
1419444;-0.29500
1422222;-0.31000
1425000;-0.31000
1427777;-0.30500
1430555;-0.31500
1433333;-0.29000
1436111;-0.30000
1438888;-0.30500
1441666;-0.31500
1444444;-0.31000
1447222;-0.29500
1450000;-0.29000
1452777;-0.29000
1455555;-0.29500
1458333;-0.30000
1461111;-0.29500
1463888;-0.29500
1466666;-0.27000
1469444;-0.28000
1472222;-0.28000
1475000;-0.27500
1477777;-0.25500
1480555;-0.23000
1483333;-0.21500
1486111;-0.21500
1488888;-0.21000
1491666;-0.22000
1494444;-0.21000
1497222;-0.19500
1500000;-0.18500
1502777;-0.18500
1505555;-0.18000
1508333;-0.20500
1511111;-0.19500
1513888;-0.19000
1516666;-0.19500
1519444;-0.19500
1522222;-0.20500
1525000;-0.22000
1527777;-0.21500
1530555;-0.20000
1533333;-0.20000
1536111;-0.19500
1538888;-0.20500
1541666;-0.19000
1544444;-0.16000
1547222;-0.17000
1550000;-0.19000
1552777;-0.22500
1555555;-0.24500
1558333;-0.26500
1561111;-0.28000
1563888;-0.28500
1566666;-0.29500
1569444;-0.30000
1572222;-0.30500
1575000;-0.31000
1577777;-0.30500
1580555;-0.31000
1583333;-0.31000
1586111;-0.32000
1588888;-0.32500
1591666;-0.34500
1594444;-0.33500
1597222;-0.32500
1600000;-0.30500
1602777;-0.32500
1605555;-0.32500
1608333;-0.34000
1611111;-0.32000
1613888;-0.31000
1616666;-0.31500
1619444;-0.32500
1622222;-0.33000
1625000;-0.34500
1627777;-0.33000
1630555;-0.33000
1633333;-0.31500
1636111;-0.32000
1638888;-0.33500
1641666;-0.36500
1644444;-0.40000
1647222;-0.44000
1650000;-0.45000
1652777;-0.48500
1655555;-0.52500
1658333;-0.57000
1661111;-0.52500
1663888;-0.43500
1666666;-0.28500
1669444;-0.10500
1672222;0.07500
1675000;0.33500
1677777;0.66000
1680555;0.91000
1683333;1.02500
1686111;0.94500
1688888;0.67000
1691666;0.21500
1694444;-0.21500
1697222;-0.45500
1700000;-0.46000
1702777;-0.41000
1705555;-0.37000
1708333;-0.36000
1711111;-0.37000
1713888;-0.37000
1716666;-0.36000
1719444;-0.35500
1722222;-0.37000
1725000;-0.37500
1727777;-0.38000
1730555;-0.37500
1733333;-0.36000
1736111;-0.37000
1738888;-0.37000
1741666;-0.39000
1744444;-0.39000
1747222;-0.38500
1750000;-0.38000
1752777;-0.39000
1755555;-0.38500
1758333;-0.39000
1761111;-0.38500
1763888;-0.38500
1766666;-0.37000
1769444;-0.37500
1772222;-0.37500
1775000;-0.39000
1777777;-0.39000
1780555;-0.37000
1783333;-0.37000
1786111;-0.36000
1788888;-0.37000
1791666;-0.37500
1794444;-0.38500
1797222;-0.37500
1799999;-0.37500
1802777;-0.37500
1805555;-0.38000
1808333;-0.38500
1811111;-0.38500
1813888;-0.37500
1816666;-0.36000
1819444;-0.36500
1822222;-0.37500
1824999;-0.38500
1827777;-0.38000
1830555;-0.38000
1833333;-0.38000
1836111;-0.38500
1838888;-0.39000
1841666;-0.40000
1844444;-0.39000
1847222;-0.39000
1849999;-0.37500
1852777;-0.39500
1855555;-0.40500
1858333;-0.40500
1861111;-0.39000
1863888;-0.37500
1866666;-0.37000
1869444;-0.37000
1872222;-0.37500
1874999;-0.40500
1877777;-0.40500
1880555;-0.37500
1883333;-0.36000
1886111;-0.36000
1888888;-0.36500
1891666;-0.38500
1894444;-0.38500
1897222;-0.38000
1899999;-0.36000
1902777;-0.37500
1905555;-0.38500
1908333;-0.41000
1911111;-0.40500
1913888;-0.40500
1916666;-0.41000
1919444;-0.41000
1922222;-0.42000
1924999;-0.43000
1927777;-0.43000
1930555;-0.42000
1933333;-0.40500
1936111;-0.40500
1938888;-0.41500
1941666;-0.41000
1944444;-0.41500
1947222;-0.39500
1949999;-0.39500
1952777;-0.39000
1955555;-0.39000
1958333;-0.42000
1961111;-0.40500
1963888;-0.40000
1966666;-0.38000
1969444;-0.38500
1972222;-0.38500
1974999;-0.39500
1977777;-0.38000
1980555;-0.37500
1983333;-0.35000
1986111;-0.34000
1988888;-0.33500
1991666;-0.34000
1994444;-0.33000
1997222;-0.30500
1999999;-0.30000
2002777;-0.28500
2005555;-0.31000
2008333;-0.32500
2011111;-0.31500
2013888;-0.29500
2016666;-0.28500
2019444;-0.28500
2022222;-0.28000
2024999;-0.29000
2027777;-0.28500
2030555;-0.27500
2033333;-0.27000
2036111;-0.29000
2038888;-0.30000
2041666;-0.31000
2044444;-0.31000
2047222;-0.30000
2049999;-0.27000
2052777;-0.27500
2055555;-0.29500
2058333;-0.31000
2061111;-0.31000
2063888;-0.30000
2066666;-0.30500
2069444;-0.30000
2072222;-0.30500
2074999;-0.33000
2077777;-0.31500
2080555;-0.30500
2083333;-0.30000
2086111;-0.30500
2088888;-0.32000
2091666;-0.31500
2094444;-0.32000
2097222;-0.30500
2099999;-0.30500
2102777;-0.31500
2105555;-0.33000
2108333;-0.34000
2111111;-0.35000
2113888;-0.33500
2116666;-0.33000
2119444;-0.33000
2122222;-0.33500
2124999;-0.35000
2127777;-0.33500
2130555;-0.32000
2133333;-0.32000
2136111;-0.33000
2138888;-0.34000
2141666;-0.34500
2144444;-0.35000
2147222;-0.34000
2149999;-0.34000
2152777;-0.34500
2155555;-0.35500
2158333;-0.37000
2161111;-0.36500
2163888;-0.34500
2166666;-0.35000
2169444;-0.34500
2172222;-0.35500
2174999;-0.36000
2177777;-0.35500
2180555;-0.35000
2183333;-0.34000
2186110;-0.36000
2188888;-0.36500
2191666;-0.37000
2194444;-0.36000
2197222;-0.35000
2199999;-0.35500
2202777;-0.35500
2205555;-0.36500
2208333;-0.37000
2211110;-0.37000
2213888;-0.36000
2216666;-0.33000
2219444;-0.33500
2222222;-0.35000
2224999;-0.35500
2227777;-0.35500
2230555;-0.35500
2233333;-0.34000
2236110;-0.36000
2238888;-0.35500
2241666;-0.35000
2244444;-0.36500
2247222;-0.34000
2249999;-0.34000
2252777;-0.33500
2255555;-0.34500
2258333;-0.35500
2261110;-0.35000
2263888;-0.33000
2266666;-0.31500
2269444;-0.29000
2272222;-0.29500
2274999;-0.29500
2277777;-0.31000
2280555;-0.30000
2283333;-0.29000
2286110;-0.28000
2288888;-0.25500
2291666;-0.26000
2294444;-0.25000
2297222;-0.25000
2299999;-0.22500
2302777;-0.23000
2305555;-0.24000
2308333;-0.25000
2311110;-0.25500
2313888;-0.24000
2316666;-0.24500
2319444;-0.24500
2322222;-0.25500
2324999;-0.28500
2327777;-0.29500
2330555;-0.28500
2333333;-0.25000
2336110;-0.24000
2338888;-0.27500
2341666;-0.31500
2344444;-0.32500
2347222;-0.33500
2349999;-0.33500
2352777;-0.35000
2355555;-0.36500
2358333;-0.37500
2361110;-0.37000
2363888;-0.36000
2366666;-0.36500
2369444;-0.37000
2372222;-0.38000
2374999;-0.38000
2377777;-0.37500
2380555;-0.35500
2383333;-0.34500
2386110;-0.35000
2388888;-0.36000
2391666;-0.38500
2394444;-0.39500
2397222;-0.38500
2399999;-0.37500
2402777;-0.38000
2405555;-0.38500
2408333;-0.39000
2411110;-0.37000
2413888;-0.36000
2416666;-0.35000
2419444;-0.36000
2422222;-0.37000
2424999;-0.38500
2427777;-0.41500
2430555;-0.41000
2433333;-0.40500
2436110;-0.44000
2438888;-0.48000
2441666;-0.52000
2444444;-0.55500
2447222;-0.59000
2449999;-0.55500
2452777;-0.44000
2455555;-0.28000
2458333;-0.12000
2461110;0.11000
2463888;0.38000
2466666;0.66000
2469444;0.85000
2472222;0.90000
2474999;0.75500
2477777;0.42000
2480555;0.00000
2483333;-0.34000
2486110;-0.52000
2488888;-0.55000
2491666;-0.51500
2494444;-0.46000
2497222;-0.43500
2499999;-0.43500
2502777;-0.44500
2505555;-0.43000
2508333;-0.44000
2511110;-0.42500
2513888;-0.41000
2516666;-0.39500
2519444;-0.40500
2522222;-0.41000
2524999;-0.43500
2527777;-0.45000
2530555;-0.45500
2533333;-0.44000
2536110;-0.44500
2538888;-0.44500
2541666;-0.44500
2544444;-0.43000
2547222;-0.43500
2549999;-0.43500
2552777;-0.44000
2555555;-0.44500
2558333;-0.44500
2561110;-0.44500
2563888;-0.43500
2566666;-0.42500
2569444;-0.43500
2572222;-0.43500
2574999;-0.44000
2577777;-0.44000
2580555;-0.45000
2583333;-0.43500
2586110;-0.44000
2588888;-0.44500
2591666;-0.45500
2594444;-0.44500
2597221;-0.43000
2599999;-0.43000
2602777;-0.44000
2605555;-0.45500
2608333;-0.46500
2611110;-0.47000
2613888;-0.46000
2616666;-0.44500
2619444;-0.45000
2622221;-0.44000
2624999;-0.45000
2627777;-0.43500
2630555;-0.42500
2633333;-0.42500
2636110;-0.43000
2638888;-0.44500
2641666;-0.44500
2644444;-0.46000
2647221;-0.45000
2649999;-0.43000
2652777;-0.44500
2655555;-0.45500
2658333;-0.47500
2661110;-0.46000
2663888;-0.44500
2666666;-0.43500
2669444;-0.44000
2672221;-0.46000
2674999;-0.47500
2677777;-0.48000
2680555;-0.46000
2683333;-0.45000
2686110;-0.46000
2688888;-0.47500
2691666;-0.48500
2694444;-0.49000
2697221;-0.47500
2699999;-0.48000
2702777;-0.48000
2705555;-0.48000
2708333;-0.48500
2711110;-0.47500
2713888;-0.47500
2716666;-0.47000
2719444;-0.49500
2722221;-0.51000
2724999;-0.53500
2727777;-0.53000
2730555;-0.51500
2733333;-0.47000
2736110;-0.48000
2738888;-0.50000
2741666;-0.51000
2744444;-0.49500
2747221;-0.47500
2749999;-0.46000
2752777;-0.45000
2755555;-0.44500
2758333;-0.42000
2761110;-0.41500
2763888;-0.40000
2766666;-0.38000
2769444;-0.35000
2772221;-0.34000
2774999;-0.35500
2777777;-0.36000
2780555;-0.33500
2783333;-0.32000
2786110;-0.32000
2788888;-0.32500
2791666;-0.33500
2794444;-0.32500
2797221;-0.32000
2799999;-0.31500
2802777;-0.32000
2805555;-0.32500
2808333;-0.33000
2811110;-0.33000
2813888;-0.31500
2816666;-0.30000
2819444;-0.30000
2822221;-0.30000
2824999;-0.31500
2827777;-0.31500
2830555;-0.31500
2833333;-0.30000
2836110;-0.29000
2838888;-0.30500
2841666;-0.32500
2844444;-0.33000
2847221;-0.33000
2849999;-0.32500
2852777;-0.33000
2855555;-0.33500
2858333;-0.35000
2861110;-0.34500
2863888;-0.33500
2866666;-0.33000
2869444;-0.33000
2872221;-0.34000
2874999;-0.35000
2877777;-0.35000
2880555;-0.34500
2883333;-0.34000
2886110;-0.33500
2888888;-0.33000
2891666;-0.33500
2894444;-0.33500
2897221;-0.33000
2899999;-0.33500
2902777;-0.33500
2905555;-0.34500
2908333;-0.36000
2911110;-0.36000
2913888;-0.34000
2916666;-0.34500
2919444;-0.33500
2922221;-0.35000
2924999;-0.36500
2927777;-0.37000
2930555;-0.35000
2933333;-0.35000
2936110;-0.34000
2938888;-0.34000
2941666;-0.36000
2944444;-0.36500
2947221;-0.36000
2949999;-0.36000
2952777;-0.35500
2955555;-0.36000
2958333;-0.37000
2961110;-0.38000
2963888;-0.36500
2966666;-0.35000
2969444;-0.34000
2972221;-0.34500
2974999;-0.35000
2977777;-0.36000
2980555;-0.35000
2983332;-0.32500
2986110;-0.33500
2988888;-0.33000
2991666;-0.35500
2994444;-0.35500
2997221;-0.34000
2999999;-0.32500
3002777;-0.32000
3005555;-0.34000
3008332;-0.35000
3011110;-0.34500
3013888;-0.34000
3016666;-0.34000
3019444;-0.33000
3022221;-0.33500
3024999;-0.35000
3027777;-0.34500
3030555;-0.34500
3033332;-0.33500
3036110;-0.33500
3038888;-0.34000
3041666;-0.34000
3044444;-0.34000
3047221;-0.31000
3049999;-0.29500
3052777;-0.27500
3055555;-0.27500
3058332;-0.27500
3061110;-0.27500
3063888;-0.25500
3066666;-0.24500
3069444;-0.24000
3072221;-0.22500
3074999;-0.23000
3077777;-0.22500
3080555;-0.22000
3083332;-0.21000
3086110;-0.22000
3088888;-0.22500
3091666;-0.25000
3094444;-0.25500
3097221;-0.24500
3099999;-0.24000
3102777;-0.24000
3105555;-0.24500
3108332;-0.26500
3111110;-0.27500
3113888;-0.28000
3116666;-0.25500
3119444;-0.23500
3122221;-0.22500
3124999;-0.24500
3127777;-0.27000
3130555;-0.28500
3133332;-0.29000
3136110;-0.30500
3138888;-0.33000
3141666;-0.34500
3144444;-0.34000
3147221;-0.34000
3149999;-0.34000
3152777;-0.33500
3155555;-0.34500
3158332;-0.36000
3161110;-0.37000
3163888;-0.35000
3166666;-0.34000
3169444;-0.35000
3172221;-0.35500
3174999;-0.36000
3177777;-0.37500
3180555;-0.36000
3183332;-0.35500
3186110;-0.36000
3188888;-0.37000
3191666;-0.38000
3194444;-0.38500
3197221;-0.37500
3199999;-0.36500
3202777;-0.36000
3205555;-0.40000
3208332;-0.44500
3211110;-0.47500
3213888;-0.49500
3216666;-0.50000
3219444;-0.54500
3222221;-0.57500
3224999;-0.50500
3227777;-0.37000
3230555;-0.23500
3233332;-0.10000
3236110;0.02000
3238888;0.17500
3241666;0.36000
3244444;0.60500
3247221;0.81500
3249999;0.95000
3252777;1.05000
3255555;1.07000
3258332;0.98500
3261110;0.68500
3263888;0.23000
3266666;-0.18000
3269444;-0.41000
3272221;-0.50000
3274999;-0.47000
3277777;-0.42500
3280555;-0.39000
3283332;-0.37500
3286110;-0.38500
3288888;-0.39500
3291666;-0.39500
3294444;-0.39500
3297221;-0.38500
3299999;-0.38000
3302777;-0.40000
3305555;-0.40500
3308332;-0.40500
3311110;-0.40500
3313888;-0.39500
3316666;-0.39000
3319444;-0.40000
3322221;-0.40000
3324999;-0.41500
3327777;-0.41500
3330555;-0.39500
3333332;-0.38500
3336110;-0.38500
3338888;-0.39500
3341666;-0.40000
3344444;-0.41000
3347221;-0.40000
3349999;-0.39000
3352777;-0.39000
3355555;-0.40000
3358332;-0.42000
3361110;-0.42000
3363888;-0.40000
3366666;-0.39000
3369444;-0.39000
3372221;-0.40500
3374999;-0.42000
3377777;-0.42000
3380555;-0.41500
3383332;-0.40500
3386110;-0.40500
3388888;-0.40500
3391666;-0.42000
3394443;-0.41000
3397221;-0.40500
3399999;-0.40000
3402777;-0.39000
3405555;-0.40000
3408332;-0.40500
3411110;-0.41000
3413888;-0.40500
3416666;-0.39000
3419443;-0.39000
3422221;-0.39000
3424999;-0.41500
3427777;-0.41000
3430555;-0.40500
3433332;-0.39000
3436110;-0.39500
3438888;-0.40500
3441666;-0.41500
3444443;-0.42500
3447221;-0.41000
3449999;-0.40000
3452777;-0.40500
3455555;-0.42000
3458332;-0.43000
3461110;-0.43000
3463888;-0.42000
3466666;-0.43000
3469443;-0.41500
3472221;-0.43000
3474999;-0.43000
3477777;-0.44000
3480555;-0.42500
3483332;-0.42000
3486110;-0.42500
3488888;-0.43500
3491666;-0.44500
3494443;-0.44000
3497221;-0.44000
3499999;-0.42500
3502777;-0.42500
3505555;-0.43000
3508332;-0.43000
3511110;-0.43000
3513888;-0.42000
3516666;-0.41500
3519443;-0.41500
3522221;-0.41500
3524999;-0.43500
3527777;-0.43000
3530555;-0.40500
3533332;-0.38500
3536110;-0.38000
3538888;-0.38000
3541666;-0.37000
3544443;-0.36000
3547221;-0.32500
3549999;-0.30500
3552777;-0.30500
3555555;-0.30000
3558332;-0.29500
3561110;-0.27500
3563888;-0.25500
3566666;-0.24500
3569443;-0.24500
3572221;-0.25000
3574999;-0.25000
3577777;-0.25500
3580555;-0.25000
3583332;-0.24000
3586110;-0.25000
3588888;-0.24500
3591666;-0.27500
3594443;-0.25500
3597221;-0.25000
3599999;-0.23500
3602777;-0.23500
3605555;-0.23500
3608332;-0.25500
3611110;-0.26000
3613888;-0.25500
3616666;-0.23500
3619443;-0.25500
3622221;-0.25000
3624999;-0.26500
3627777;-0.25500
3630555;-0.25000
3633332;-0.25000
3636110;-0.25000
3638888;-0.25500
3641666;-0.26500
3644443;-0.26500
3647221;-0.26000
3649999;-0.25500
3652777;-0.27000
3655555;-0.26500
3658332;-0.28000
3661110;-0.28500
3663888;-0.27000
3666666;-0.27000
3669443;-0.26000
3672221;-0.27500
3674999;-0.28000
3677777;-0.27500
3680555;-0.26500
3683332;-0.26000
3686110;-0.27000
3688888;-0.27000
3691666;-0.27500
3694443;-0.27500
3697221;-0.27500
3699999;-0.26000
3702777;-0.26500
3705555;-0.28000
3708332;-0.29000
3711110;-0.29000
3713888;-0.28500
3716666;-0.27500
3719443;-0.28500
3722221;-0.29500
3724999;-0.31500
3727777;-0.31000
3730555;-0.29500
3733332;-0.28000
3736110;-0.28500
3738888;-0.30500
3741666;-0.30000
3744443;-0.30500
3747221;-0.29000
3749999;-0.28500
3752777;-0.30000
3755555;-0.30000
3758332;-0.29500
3761110;-0.30000
3763888;-0.29000
3766666;-0.27500
3769443;-0.29000
3772221;-0.29500
3774999;-0.29500
3777777;-0.29000
3780554;-0.29500
3783332;-0.27500
3786110;-0.28500
3788888;-0.29500
3791666;-0.29500
3794443;-0.31000
3797221;-0.31000
3799999;-0.30000
3802777;-0.29000
3805554;-0.30000
3808332;-0.30000
3811110;-0.29500
3813888;-0.29500
3816666;-0.30000
3819443;-0.28500
3822221;-0.30000
3824999;-0.30500
3827777;-0.30000
3830554;-0.28500
3833332;-0.27500
3836110;-0.27000
3838888;-0.29000
3841666;-0.30500
3844443;-0.29000
3847221;-0.27500
3849999;-0.25000
3852777;-0.25000
3855554;-0.24000
3858332;-0.22500
3861110;-0.22500
3863888;-0.22500
3866666;-0.20500
3869443;-0.21000
3872221;-0.21000
3874999;-0.20500
3877777;-0.20000
3880554;-0.19000
3883332;-0.16500
3886110;-0.17500
3888888;-0.18500
3891666;-0.20000
3894443;-0.20000
3897221;-0.19500
3899999;-0.18500
3902777;-0.19000
3905554;-0.18500
3908332;-0.20500
3911110;-0.20500
3913888;-0.20500
3916666;-0.17500
3919443;-0.16000
3922221;-0.15500
3924999;-0.19500
3927777;-0.22500
3930554;-0.24500
3933332;-0.24500
3936110;-0.27000
3938888;-0.29500
3941666;-0.31000
3944443;-0.32000
3947221;-0.31500
3949999;-0.30500
3952777;-0.30000
3955554;-0.32000
3958332;-0.31500
3961110;-0.31500
3963888;-0.31000
3966666;-0.30000
3969443;-0.31000
3972221;-0.31500
3974999;-0.33000
3977777;-0.33000
3980554;-0.32000
3983332;-0.30000
3986110;-0.32000
3988888;-0.32000
3991666;-0.32500
3994443;-0.33500
3997221;-0.33000
3999999;-0.33500
4002777;-0.32000
4005554;-0.32500
4008332;-0.33500
4011110;-0.37000
4013888;-0.40000
4016666;-0.43500
4019443;-0.45500
4022221;-0.49000
4024999;-0.53000
4027777;-0.54500
4030554;-0.47000
4033332;-0.33500
4036110;-0.13500
4038888;0.06500
4041666;0.30500
4044443;0.59500
4047221;0.90000
4049999;1.07000
4052777;1.10500
4055554;0.95000
4058332;0.56500
4061110;0.06000
4063888;-0.30500
4066666;-0.45000
4069443;-0.44500
4072221;-0.39500
4074999;-0.36500
4077777;-0.36000
4080554;-0.36500
4083332;-0.36000
4086110;-0.36500
4088888;-0.37500
4091666;-0.38000
4094443;-0.38500
4097221;-0.37500
4099999;-0.37000
4102777;-0.38000
4105554;-0.37500
4108332;-0.38000
4111110;-0.39000
4113888;-0.37000
4116666;-0.36000
4119443;-0.37000
4122221;-0.39000
4124999;-0.39000
4127777;-0.40000
4130554;-0.39000
4133332;-0.37500
4136110;-0.37500
4138888;-0.38500
4141666;-0.40500
4144443;-0.39500
4147221;-0.39000
4149999;-0.37000
4152777;-0.38500
4155554;-0.40000
4158332;-0.40500
4161110;-0.40000
4163888;-0.39500
4166666;-0.38500
4169443;-0.39000
4172221;-0.39500
4174999;-0.40000
4177777;-0.40000
4180554;-0.38500
4183332;-0.38500
4186110;-0.38000
4188888;-0.38500
4191665;-0.39500
4194443;-0.39000
4197221;-0.39500
4199999;-0.38000
4202777;-0.37500
4205554;-0.38000
4208332;-0.38500
4211110;-0.40000
4213888;-0.39000
4216665;-0.39000
4219443;-0.38000
4222221;-0.38500
4224999;-0.40500
4227777;-0.40000
4230554;-0.39000
4233332;-0.39500
4236110;-0.40000
4238888;-0.40000
4241665;-0.40500
4244443;-0.40500
4247221;-0.40500
4249999;-0.38500
4252777;-0.41000
4255554;-0.40000
4258332;-0.41500
4261110;-0.41500
4263888;-0.41000
4266665;-0.39500
4269443;-0.39000
4272221;-0.39000
4274999;-0.40000
4277777;-0.40500
4280554;-0.40500
4283332;-0.40000
4286110;-0.41000
4288888;-0.41000
4291665;-0.39500
4294443;-0.41000
4297221;-0.40000
4299999;-0.39500
4302777;-0.40000
4305554;-0.40500
4308332;-0.40500
4311110;-0.42000
4313888;-0.39500
4316665;-0.39000
4319443;-0.40000
4322221;-0.41500
4324999;-0.40500
4327777;-0.40000
4330554;-0.38500
4333332;-0.38000
4336110;-0.37000
4338888;-0.36500
4341665;-0.36500
4344443;-0.35500
4347221;-0.33500
4349999;-0.31500
4352777;-0.30500
4355554;-0.30500
4358332;-0.31000
4361110;-0.29000
4363888;-0.27500
4366665;-0.25500
4369443;-0.26000
4372221;-0.26000
4374999;-0.27000
4377777;-0.27000
4380554;-0.26000
4383332;-0.24500
4386110;-0.24500
4388888;-0.24500
4391665;-0.24000
4394443;-0.25000
4397221;-0.24500
4399999;-0.24000
4402777;-0.24500
4405554;-0.24500
4408332;-0.25000
4411110;-0.25000
4413888;-0.25000
4416665;-0.24000
4419443;-0.24000
4422221;-0.24000
4424999;-0.25500
4427777;-0.26000
4430554;-0.25000
4433332;-0.23500
4436110;-0.23500
4438888;-0.25500
4441665;-0.25000
4444443;-0.26500
4447221;-0.25000
4449999;-0.24000
4452777;-0.24500
4455554;-0.25500
4458332;-0.26500
4461110;-0.27500
4463888;-0.27000
4466665;-0.25500
4469443;-0.26500
4472221;-0.27000
4474999;-0.27500
4477777;-0.28000
4480554;-0.27000
4483332;-0.25500
4486110;-0.27000
4488888;-0.27000
4491665;-0.28000
4494443;-0.28500
4497221;-0.27500
4499999;-0.27000
4502777;-0.27000
4505554;-0.28500
4508332;-0.28500
4511110;-0.28500
4513888;-0.27500
4516665;-0.27000
4519443;-0.28000
4522221;-0.28500
4524999;-0.29500
4527777;-0.30000
4530554;-0.29500
4533332;-0.28500
4536110;-0.29500
4538888;-0.30500
4541665;-0.32500
4544443;-0.31500
4547221;-0.31000
4549999;-0.30000
4552777;-0.30000
4555554;-0.30500
4558332;-0.31500
4561110;-0.32000
4563888;-0.31000
4566665;-0.29000
4569443;-0.31000
4572221;-0.29500
4574999;-0.30500
4577776;-0.30500
4580554;-0.30000
4583332;-0.29500
4586110;-0.29500
4588888;-0.29500
4591665;-0.30000
4594443;-0.30000
4597221;-0.29000
4599999;-0.29000
4602776;-0.29000
4605554;-0.29500
4608332;-0.31000
4611110;-0.31500
4613888;-0.30000
4616665;-0.28500
4619443;-0.28500
4622221;-0.29500
4624999;-0.29500
4627776;-0.29500
4630554;-0.29000
4633332;-0.28000
4636110;-0.28000
4638888;-0.29500
4641665;-0.30500
4644443;-0.29000
4647221;-0.28000
4649999;-0.27000
4652776;-0.27000
4655554;-0.28500
4658332;-0.28000
4661110;-0.28500
4663888;-0.27500
4666665;-0.28000
4669443;-0.26500
4672221;-0.27500
4674999;-0.26500
4677776;-0.25500
4680554;-0.23000
4683332;-0.22500
4686110;-0.21000
4688888;-0.22000
4691665;-0.21500
4694443;-0.22000
4697221;-0.20000
4699999;-0.18000
4702776;-0.17000
4705554;-0.18000
4708332;-0.18000
4711110;-0.17000
4713888;-0.16000
4716665;-0.16500
4719443;-0.16500
4722221;-0.17500
4724999;-0.17500
4727776;-0.18500
4730554;-0.18000
4733332;-0.17500
4736110;-0.18000
4738888;-0.20000
4741665;-0.20500
4744443;-0.20000
4747221;-0.19000
4749999;-0.20000
4752776;-0.21000
4755554;-0.19500
4758332;-0.18500
4761110;-0.18500
4763888;-0.18500
4766665;-0.20500
4769443;-0.24500
4772221;-0.25500
4774999;-0.27500
4777776;-0.28500
4780554;-0.28000
4783332;-0.28000
4786110;-0.29500
4788888;-0.30000
4791665;-0.31500
4794443;-0.32500
4797221;-0.30000
4799999;-0.29000
4802776;-0.29500
4805554;-0.31500
4808332;-0.32000
4811110;-0.32000
4813888;-0.31000
4816665;-0.31000
4819443;-0.31500
4822221;-0.32500
4824999;-0.33500
4827776;-0.33000
4830554;-0.33000
4833332;-0.31500
4836110;-0.32500
4838888;-0.31500
4841665;-0.32000
4844443;-0.33000
4847221;-0.33000
4849999;-0.34500
4852776;-0.38500
4855554;-0.43000
4858332;-0.46500
4861110;-0.50500
4863888;-0.53000
4866665;-0.55000
4869443;-0.54000
4872221;-0.47000
4874999;-0.36000
4877776;-0.24500
4880554;-0.14000
4883332;-0.02000
4886110;0.13500
4888888;0.34000
4891665;0.59500
4894443;0.84000
4897221;1.01500
4899999;1.08000
