time_ms;ecg_value
0;-0.20000
2778;-0.19500
5556;-0.19000
8333;-0.15500
11111;-0.14000
13889;-0.16000
16667;-0.20000
19444;-0.22500
22222;-0.24000
25000;-0.24500
27778;-0.25500
30556;-0.27000
33333;-0.28500
36111;-0.30500
38889;-0.29500
41667;-0.29000
44444;-0.28500
47222;-0.30000
50000;-0.30500
52778;-0.30500
55556;-0.29500
58333;-0.30500
61111;-0.29500
63889;-0.30500
66667;-0.30500
69444;-0.31000
72222;-0.31500
75000;-0.30000
77778;-0.30500
80556;-0.32000
83333;-0.32500
86111;-0.31500
88889;-0.30000
91667;-0.30000
94444;-0.30500
97222;-0.30500
100000;-0.31000
102778;-0.31500
105556;-0.31000
108333;-0.30500
111111;-0.33000
113889;-0.36000
116667;-0.41000
119444;-0.42500
122222;-0.44500
125000;-0.46500
127778;-0.47500
130556;-0.44000
133333;-0.31500
136111;-0.14000
138889;0.05500
141667;0.28000
144444;0.54500
147222;0.83000
150000;1.05500
152778;1.17000
155556;1.18000
158333;0.96000
161111;0.51500
163889;0.00000
166667;-0.34500
169444;-0.46000
172222;-0.43000
175000;-0.36000
177778;-0.32000
180556;-0.31500
183333;-0.34500
186111;-0.33500
188889;-0.33000
191667;-0.33000
194444;-0.33500
197222;-0.34000
200000;-0.34000
202778;-0.35500
205555;-0.35000
208333;-0.33500
211111;-0.33500
213889;-0.34500
216667;-0.35500
219444;-0.34500
222222;-0.33500
225000;-0.33000
227778;-0.33500
230555;-0.35500
233333;-0.35500
236111;-0.34500
238889;-0.33000
241667;-0.33000
244444;-0.32500
247222;-0.33500
250000;-0.34000
252778;-0.34500
255555;-0.34000
258333;-0.33000
261111;-0.33500
263889;-0.34500
266667;-0.35500
269444;-0.36500
272222;-0.35500
275000;-0.35000
277778;-0.34500
280555;-0.34500
283333;-0.36000
286111;-0.35000
288889;-0.35500
291667;-0.33500
294444;-0.34500
297222;-0.33500
300000;-0.34000
302778;-0.35500
305555;-0.34500
308333;-0.33500
311111;-0.34500
313889;-0.34000
316667;-0.34000
319444;-0.36000
322222;-0.34000
325000;-0.33500
327778;-0.33000
330555;-0.35000
333333;-0.34500
336111;-0.35500
338889;-0.33500
341667;-0.34000
344444;-0.33500
347222;-0.34000
350000;-0.35000
352778;-0.35500
355555;-0.35000
358333;-0.33000
361111;-0.33500
363889;-0.33500
366667;-0.35000
369444;-0.36000
372222;-0.35500
375000;-0.34500
377778;-0.34000
380555;-0.35500
383333;-0.35500
386111;-0.37500
388889;-0.36500
391667;-0.34500
394444;-0.36000
397222;-0.36500
400000;-0.37500
402778;-0.38500
405555;-0.37000
408333;-0.37000
411111;-0.38000
413889;-0.39000
416667;-0.41000
419444;-0.40000
422222;-0.38500
425000;-0.37500
427778;-0.36500
430555;-0.36000
433333;-0.37000
436111;-0.36500
438889;-0.35500
441667;-0.33500
444444;-0.33500
447222;-0.32000
450000;-0.32500
452778;-0.31500
455555;-0.30000
458333;-0.29000
461111;-0.27500
463889;-0.27500
466667;-0.26500
469444;-0.26000
472222;-0.24500
475000;-0.21500
477778;-0.21500
480555;-0.23000
483333;-0.21500
486111;-0.21500
488889;-0.21000
491667;-0.19500
494444;-0.18000
497222;-0.18500
500000;-0.19500
502778;-0.19500
505555;-0.18000
508333;-0.18000
511111;-0.19000
513889;-0.19000
516667;-0.20000
519444;-0.18500
522222;-0.18500
525000;-0.17000
527778;-0.17500
530555;-0.19000
533333;-0.18500
536111;-0.19500
538889;-0.18000
541667;-0.18000
544444;-0.18000
547222;-0.18000
550000;-0.19500
552778;-0.20000
555555;-0.18500
558333;-0.18500
561111;-0.18000
563889;-0.19000
566667;-0.18500
569444;-0.19000
572222;-0.18500
575000;-0.18500
577778;-0.19000
580555;-0.19000
583333;-0.20000
586111;-0.20500
588889;-0.20500
591667;-0.20500
594444;-0.20500
597222;-0.21000
600000;-0.22000
602778;-0.23000
605555;-0.22500
608333;-0.22000
611111;-0.21000
613889;-0.20500
616666;-0.22000
619444;-0.23000
622222;-0.22500
625000;-0.21000
627778;-0.22000
630555;-0.21000
633333;-0.23000
636111;-0.24000
638889;-0.23000
641666;-0.22500
644444;-0.23000
647222;-0.22000
650000;-0.24000
652778;-0.22500
655555;-0.22500
658333;-0.21500
661111;-0.21500
663889;-0.23000
666666;-0.23500
669444;-0.24500
672222;-0.23000
675000;-0.21500
677778;-0.23000
680555;-0.23000
683333;-0.23500
686111;-0.24500
688889;-0.23500
691666;-0.22000
694444;-0.23000
697222;-0.23000
700000;-0.22000
702778;-0.24000
705555;-0.23000
708333;-0.22500
711111;-0.22000
713889;-0.23000
716666;-0.22500
719444;-0.22500
722222;-0.23000
725000;-0.22000
727778;-0.21500
730555;-0.23500
733333;-0.24000
736111;-0.23500
738889;-0.23000
741666;-0.22500
744444;-0.21500
747222;-0.21500
750000;-0.22500
752778;-0.23500
755555;-0.22500
758333;-0.22000
761111;-0.21000
763889;-0.21000
766666;-0.20500
769444;-0.21500
772222;-0.21000
775000;-0.19000
777778;-0.18500
780555;-0.16500
783333;-0.17000
786111;-0.15000
788889;-0.14000
791666;-0.13500
794444;-0.14500
797222;-0.13000
800000;-0.13500
802778;-0.13500
805555;-0.11500
808333;-0.09000
811111;-0.08500
813889;-0.10500
816666;-0.11000
819444;-0.12500
822222;-0.11500
825000;-0.11500
827778;-0.11500
830555;-0.13000
833333;-0.12500
836111;-0.12000
838889;-0.13500
841666;-0.13000
844444;-0.12000
847222;-0.11500
850000;-0.10000
852778;-0.09500
855555;-0.09500
858333;-0.13000
861111;-0.16000
863889;-0.16000
866666;-0.17500
869444;-0.18500
872222;-0.19500
875000;-0.20000
877778;-0.19500
880555;-0.20500
883333;-0.21500
886111;-0.23500
888889;-0.23000
891666;-0.23500
894444;-0.22500
897222;-0.22500
900000;-0.24000
902778;-0.25000
905555;-0.24000
908333;-0.23000
911111;-0.23500
913889;-0.24000
916666;-0.24500
919444;-0.25000
922222;-0.24500
925000;-0.24000
927778;-0.24500
930555;-0.24500
933333;-0.25000
936111;-0.26000
938889;-0.25500
941666;-0.24000
944444;-0.25000
947222;-0.25500
950000;-0.26500
952778;-0.28500
955555;-0.31000
958333;-0.34000
961111;-0.36500
963889;-0.39000
966666;-0.42500
969444;-0.45500
972222;-0.42500
975000;-0.31500
977778;-0.14500
980555;0.03500
983333;0.21500
986111;0.46000
988889;0.75000
991666;1.01500
994444;1.19500
997222;1.25500
1000000;1.16000
1002777;0.82500
1005555;0.36000
1008333;-0.08000
1011111;-0.33000
1013889;-0.37000
1016666;-0.33000
1019444;-0.28500
1022222;-0.27000
1025000;-0.26000
1027777;-0.27000
1030555;-0.29500
1033333;-0.29000
1036111;-0.29000
1038889;-0.28000
1041666;-0.28000
1044444;-0.28500
1047222;-0.29000
1050000;-0.30500
1052777;-0.30500
1055555;-0.30500
1058333;-0.28500
1061111;-0.29000
1063889;-0.29000
1066666;-0.30000
1069444;-0.31500
1072222;-0.29500
1075000;-0.30000
1077777;-0.30000
1080555;-0.30500
1083333;-0.30500
1086111;-0.31500
1088889;-0.31500
1091666;-0.30500
1094444;-0.30500
1097222;-0.32000
1100000;-0.32500
1102777;-0.32000
1105555;-0.31000
1108333;-0.30500
1111111;-0.30500
1113889;-0.31500
1116666;-0.31500
1119444;-0.32000
1122222;-0.30500
1125000;-0.29000
1127777;-0.30000
1130555;-0.31000
1133333;-0.31500
1136111;-0.33000
1138889;-0.32000
1141666;-0.30500
1144444;-0.30500
1147222;-0.31500
1150000;-0.32000
1152777;-0.31500
1155555;-0.31500
1158333;-0.31000
1161111;-0.30500
1163889;-0.31500
1166666;-0.31500
1169444;-0.32500
1172222;-0.31500
1175000;-0.30500
1177777;-0.30000
1180555;-0.32000
1183333;-0.33500
1186111;-0.33000
1188889;-0.32500
1191666;-0.32000
1194444;-0.31000
1197222;-0.32000
1200000;-0.32500
1202777;-0.33500
1205555;-0.31500
1208333;-0.32000
1211111;-0.31500
1213889;-0.32500
1216666;-0.33000
1219444;-0.33000
1222222;-0.32500
1225000;-0.33500
1227777;-0.32500
1230555;-0.32500
1233333;-0.34000
1236111;-0.33500
1238889;-0.33500
1241666;-0.33000
1244444;-0.33000
1247222;-0.32500
1250000;-0.34000
1252777;-0.34500
1255555;-0.33000
1258333;-0.32500
1261111;-0.31500
1263889;-0.31500
1266666;-0.33500
1269444;-0.34000
1272222;-0.32500
1275000;-0.31000
1277777;-0.31500
1280555;-0.32000
1283333;-0.33000
1286111;-0.33000
1288889;-0.31000
1291666;-0.30000
1294444;-0.29500
1297222;-0.28500
1300000;-0.28500
1302777;-0.28500
1305555;-0.27000
1308333;-0.25000
1311111;-0.24000
1313889;-0.25000
1316666;-0.23500
1319444;-0.23500
1322222;-0.22500
1325000;-0.21000
1327777;-0.20000
1330555;-0.20500
1333333;-0.20500
1336111;-0.21000
1338889;-0.20000
1341666;-0.18500
1344444;-0.19000
1347222;-0.19000
1350000;-0.19000
1352777;-0.20000
1355555;-0.19000
1358333;-0.18500
1361111;-0.18500
1363889;-0.19000
1366666;-0.19500
1369444;-0.20000
1372222;-0.19500
1375000;-0.18000
1377777;-0.18000
1380555;-0.19500
1383333;-0.20000
1386111;-0.20500
1388888;-0.18500
1391666;-0.19000
1394444;-0.18000
1397222;-0.19500
1400000;-0.20500
1402777;-0.20500
1405555;-0.20500
1408333;-0.18500
1411111;-0.19500
1413888;-0.20500
1416666;-0.22500
1419444;-0.22000
1422222;-0.21000
1425000;-0.21500
1427777;-0.21000
1430555;-0.21500
1433333;-0.22000
1436111;-0.23500
1438888;-0.21500
1441666;-0.22000
1444444;-0.21500
1447222;-0.22500
1450000;-0.23000
1452777;-0.24500
1455555;-0.23500
1458333;-0.22500
1461111;-0.22000
1463888;-0.23000
1466666;-0.24500
1469444;-0.25000
1472222;-0.25000
1475000;-0.23000
1477777;-0.23000
1480555;-0.23000
1483333;-0.24500
1486111;-0.25500
1488888;-0.25000
1491666;-0.24000
1494444;-0.24500
1497222;-0.24500
1500000;-0.26500
1502777;-0.26500
1505555;-0.26500
1508333;-0.25000
1511111;-0.25500
1513888;-0.25000
1516666;-0.27000
1519444;-0.26000
1522222;-0.26000
1525000;-0.24500
1527777;-0.24500
1530555;-0.25500
1533333;-0.26500
1536111;-0.27500
1538888;-0.26000
1541666;-0.25500
1544444;-0.23500
1547222;-0.26500
1550000;-0.26000
1552777;-0.27500
1555555;-0.25500
1558333;-0.25000
1561111;-0.25000
1563888;-0.24500
1566666;-0.26000
1569444;-0.26000
1572222;-0.25500
1575000;-0.24500
1577777;-0.25000
1580555;-0.25000
1583333;-0.25000
1586111;-0.25000
1588888;-0.24500
1591666;-0.22500
1594444;-0.23000
1597222;-0.23500
1600000;-0.23500
1602777;-0.23500
1605555;-0.20000
1608333;-0.18500
1611111;-0.17000
1613888;-0.18000
1616666;-0.17000
1619444;-0.18500
1622222;-0.17000
1625000;-0.15500
1627777;-0.15000
1630555;-0.13500
1633333;-0.14000
1636111;-0.13500
1638888;-0.13000
1641666;-0.11000
1644444;-0.11000
1647222;-0.12000
1650000;-0.14000
1652777;-0.13000
1655555;-0.14000
1658333;-0.14000
1661111;-0.14000
1663888;-0.14500
1666666;-0.14000
1669444;-0.14500
1672222;-0.14000
1675000;-0.13500
1677777;-0.14500
1680555;-0.15000
1683333;-0.15000
1686111;-0.14000
1688888;-0.11000
1691666;-0.10000
1694444;-0.09500
1697222;-0.13500
1700000;-0.17000
1702777;-0.19500
1705555;-0.19500
1708333;-0.19500
1711111;-0.22500
1713888;-0.24000
1716666;-0.26500
1719444;-0.27000
1722222;-0.27000
1725000;-0.26500
1727777;-0.26000
1730555;-0.26000
1733333;-0.27000
1736111;-0.28000
1738888;-0.27500
1741666;-0.26000
1744444;-0.26000
1747222;-0.26500
1750000;-0.27500
1752777;-0.28500
1755555;-0.27500
1758333;-0.27500
1761111;-0.26000
1763888;-0.26500
1766666;-0.27000
1769444;-0.28500
1772222;-0.27000
1775000;-0.27000
1777777;-0.27000
1780555;-0.28000
1783333;-0.30500
1786111;-0.34000
1788888;-0.37000
1791666;-0.39500
1794444;-0.41000
1797222;-0.44500
1799999;-0.47500
1802777;-0.46500
1805555;-0.39000
1808333;-0.25000
1811111;-0.09000
1813888;0.06000
1816666;0.25500
1819444;0.52500
1822222;0.84000
1824999;1.06500
1827777;1.17500
