time_ms;ecg_value
0;0.90000
2778;0.96500
5556;0.83000
8333;0.52000
11111;0.09500
13889;-0.23500
16667;-0.40000
19444;-0.42000
22222;-0.36500
25000;-0.33500
27778;-0.32000
30556;-0.30500
33333;-0.31500
36111;-0.32000
38889;-0.31000
41667;-0.33000
44444;-0.33000
47222;-0.32000
50000;-0.34000
52778;-0.35000
55556;-0.34500
58333;-0.34000
61111;-0.34500
63889;-0.33500
66667;-0.33500
69444;-0.34000
72222;-0.35000
75000;-0.35000
77778;-0.34500
80556;-0.33000
83333;-0.32500
86111;-0.33500
88889;-0.35000
91667;-0.34000
94444;-0.34500
97222;-0.32500
100000;-0.33000
102778;-0.33500
105556;-0.34000
108333;-0.35000
111111;-0.33000
113889;-0.32000
116667;-0.32000
119444;-0.33000
122222;-0.33000
125000;-0.34000
127778;-0.34000
130556;-0.31500
133333;-0.33000
136111;-0.33000
138889;-0.33000
141667;-0.33000
144444;-0.32000
147222;-0.31000
150000;-0.31500
152778;-0.31500
155556;-0.33000
158333;-0.32500
161111;-0.31500
163889;-0.31000
166667;-0.32500
169444;-0.33000
172222;-0.33500
175000;-0.34500
177778;-0.33000
180556;-0.31500
183333;-0.32500
186111;-0.32000
188889;-0.33000
191667;-0.33500
194444;-0.32500
197222;-0.30500
200000;-0.33500
202778;-0.32000
205555;-0.34500
208333;-0.33000
211111;-0.32000
213889;-0.32000
216667;-0.33000
219444;-0.33000
222222;-0.34000
225000;-0.34000
227778;-0.33000
230555;-0.32000
233333;-0.33000
236111;-0.33500
238889;-0.33500
241667;-0.33500
244444;-0.32500
247222;-0.32000
250000;-0.34500
252778;-0.33500
255555;-0.33500
258333;-0.34500
261111;-0.33000
263889;-0.32000
266667;-0.32500
269444;-0.33000
272222;-0.33000
275000;-0.34000
277778;-0.32000
280555;-0.30500
283333;-0.30500
286111;-0.29500
288889;-0.30000
291667;-0.30500
294444;-0.28500
297222;-0.26500
300000;-0.27000
302778;-0.26500
305555;-0.27500
308333;-0.27500
311111;-0.26000
313889;-0.22500
316667;-0.23000
319444;-0.23500
322222;-0.24000
325000;-0.23500
327778;-0.23000
330555;-0.21500
333333;-0.21000
336111;-0.23000
338889;-0.23000
341667;-0.24000
344444;-0.22500
347222;-0.23000
350000;-0.22000
352778;-0.23000
355555;-0.24000
358333;-0.23500
361111;-0.23500
363889;-0.24000
366667;-0.23500
369444;-0.24000
372222;-0.24000
375000;-0.24500
377778;-0.24000
380555;-0.23000
383333;-0.24000
386111;-0.24500
388889;-0.25000
391667;-0.25500
394444;-0.24000
397222;-0.23000
400000;-0.24500
402778;-0.24500
405555;-0.25000
408333;-0.25000
411111;-0.26000
413889;-0.24000
416667;-0.25000
419444;-0.26000
422222;-0.27000
425000;-0.27000
427778;-0.26500
430555;-0.26000
433333;-0.26000
436111;-0.26500
438889;-0.27000
441667;-0.27500
444444;-0.27000
447222;-0.27500
450000;-0.28000
452778;-0.28500
455555;-0.28000
458333;-0.30000
461111;-0.28500
463889;-0.27500
466667;-0.29500
469444;-0.29500
472222;-0.29500
475000;-0.29000
477778;-0.29000
480555;-0.26500
483333;-0.28500
486111;-0.29000
488889;-0.30500
491667;-0.30500
494444;-0.29000
497222;-0.28000
500000;-0.29000
502778;-0.29500
505555;-0.30500
508333;-0.31500
511111;-0.29500
513889;-0.29500
516667;-0.28500
519444;-0.29500
522222;-0.31000
525000;-0.30000
527778;-0.29000
530555;-0.28000
533333;-0.28500
536111;-0.30000
538889;-0.30500
541667;-0.29500
544444;-0.30500
547222;-0.28500
550000;-0.28500
552778;-0.29000
555555;-0.29000
558333;-0.30000
561111;-0.29000
563889;-0.28000
566667;-0.28000
569444;-0.27500
572222;-0.28500
575000;-0.28500
577778;-0.28000
580555;-0.27000
583333;-0.28000
586111;-0.28000
588889;-0.28000
591667;-0.27000
594444;-0.25500
597222;-0.23000
600000;-0.23000
602778;-0.23000
605555;-0.24000
608333;-0.25000
611111;-0.24000
613889;-0.21500
616666;-0.21500
619444;-0.20500
622222;-0.20500
625000;-0.19500
627778;-0.18500
630555;-0.17500
633333;-0.18000
636111;-0.20000
638889;-0.21000
641666;-0.21000
644444;-0.20000
647222;-0.18500
650000;-0.20000
652778;-0.18500
655555;-0.21000
658333;-0.23000
661111;-0.21500
663889;-0.18500
666666;-0.17000
669444;-0.18000
672222;-0.22000
675000;-0.25000
677778;-0.25000
680555;-0.26500
683333;-0.27500
686111;-0.29500
688889;-0.30500
691666;-0.31500
694444;-0.31500
697222;-0.30500
700000;-0.30500
702778;-0.31000
705555;-0.32500
708333;-0.33500
711111;-0.32000
713889;-0.31500
716666;-0.32000
719444;-0.32000
722222;-0.34000
725000;-0.32500
727778;-0.32500
730555;-0.31000
733333;-0.32000
736111;-0.32000
738889;-0.32500
741666;-0.33500
744444;-0.33500
747222;-0.32500
750000;-0.34500
752778;-0.37000
755555;-0.41000
758333;-0.43000
761111;-0.44500
763889;-0.43000
766666;-0.46500
769444;-0.51000
772222;-0.56000
775000;-0.55500
777778;-0.49000
780555;-0.38500
783333;-0.29000
786111;-0.20500
788889;-0.09500
791666;0.09500
794444;0.35500
797222;0.60000
800000;0.75500
802778;0.81000
805555;0.70500
808333;0.41500
811111;0.05500
813889;-0.25000
816666;-0.43000
819444;-0.46500
822222;-0.43500
825000;-0.39500
827778;-0.37000
830555;-0.35000
833333;-0.35500
836111;-0.36500
838889;-0.35500
841666;-0.37000
844444;-0.36000
847222;-0.35000
850000;-0.35000
852778;-0.36000
855555;-0.37000
858333;-0.37000
861111;-0.36500
863889;-0.34000
866666;-0.35000
869444;-0.35500
872222;-0.36500
875000;-0.37000
877778;-0.36000
880555;-0.35000
883333;-0.34500
886111;-0.34500
888889;-0.35500
891666;-0.37500
894444;-0.35500
897222;-0.34500
900000;-0.35500
902778;-0.36000
905555;-0.36500
908333;-0.36000
911111;-0.35500
913889;-0.34000
916666;-0.34500
919444;-0.35500
922222;-0.36500
925000;-0.37000
927778;-0.36000
930555;-0.35000
933333;-0.35000
936111;-0.36000
938889;-0.36000
941666;-0.35500
944444;-0.35500
947222;-0.34500
950000;-0.34500
952778;-0.35000
955555;-0.36000
958333;-0.35500
961111;-0.34500
963889;-0.33500
966666;-0.34500
969444;-0.34500
972222;-0.35500
975000;-0.36500
977778;-0.36000
980555;-0.35000
983333;-0.35000
986111;-0.35500
988889;-0.36500
991666;-0.37500
994444;-0.35500
997222;-0.35500
1000000;-0.35500
1002777;-0.36000
1005555;-0.35500
1008333;-0.35500
1011111;-0.35000
1013889;-0.35000
1016666;-0.35500
1019444;-0.36500
1022222;-0.37500
1025000;-0.37500
1027777;-0.35500
1030555;-0.34000
1033333;-0.34500
1036111;-0.35500
1038889;-0.36500
1041666;-0.36500
1044444;-0.36000
1047222;-0.35500
1050000;-0.36500
1052777;-0.37000
1055555;-0.37500
1058333;-0.37500
1061111;-0.37500
1063889;-0.35500
1066666;-0.35000
1069444;-0.36500
1072222;-0.37000
1075000;-0.37500
1077777;-0.36000
1080555;-0.35000
1083333;-0.35500
1086111;-0.35500
1088889;-0.36500
1091666;-0.35500
1094444;-0.34500
1097222;-0.33000
1100000;-0.31000
1102777;-0.32000
1105555;-0.32000
1108333;-0.32000
1111111;-0.30000
1113889;-0.29000
1116666;-0.29000
1119444;-0.29500
1122222;-0.30500
1125000;-0.30000
1127777;-0.28500
1130555;-0.27500
1133333;-0.27500
1136111;-0.27500
1138889;-0.28500
1141666;-0.29000
1144444;-0.27500
1147222;-0.26000
1150000;-0.28000
1152777;-0.28500
1155555;-0.29500
1158333;-0.30500
1161111;-0.29000
1163889;-0.28500
1166666;-0.29500
1169444;-0.30500
1172222;-0.32000
1175000;-0.30500
1177777;-0.29500
1180555;-0.28500
1183333;-0.28500
1186111;-0.29000
1188889;-0.29500
1191666;-0.30500
1194444;-0.29500
1197222;-0.29500
1200000;-0.29500
1202777;-0.30000
1205555;-0.31000
1208333;-0.32000
1211111;-0.30000
1213889;-0.29000
1216666;-0.30500
1219444;-0.32000
1222222;-0.33000
1225000;-0.33000
1227777;-0.32500
1230555;-0.31500
1233333;-0.32000
1236111;-0.34500
1238889;-0.33500
1241666;-0.34500
1244444;-0.34000
1247222;-0.33000
1250000;-0.32000
1252777;-0.33500
1255555;-0.34000
1258333;-0.35000
1261111;-0.34000
1263889;-0.34000
1266666;-0.33500
1269444;-0.34500
1272222;-0.35000
1275000;-0.34500
1277777;-0.33000
1280555;-0.32500
1283333;-0.33500
1286111;-0.35000
1288889;-0.35000
1291666;-0.35000
1294444;-0.34000
1297222;-0.33500
1300000;-0.33500
1302777;-0.34000
1305555;-0.34500
1308333;-0.35500
1311111;-0.35000
1313889;-0.33000
1316666;-0.34500
1319444;-0.35000
1322222;-0.35500
1325000;-0.37000
1327777;-0.37500
1330555;-0.37000
1333333;-0.36500
1336111;-0.36000
1338889;-0.37000
1341666;-0.37500
1344444;-0.36000
1347222;-0.35000
1350000;-0.34500
1352777;-0.35500
1355555;-0.37000
1358333;-0.38500
1361111;-0.37500
1363889;-0.35000
1366666;-0.36000
1369444;-0.35000
1372222;-0.36000
1375000;-0.37000
1377777;-0.36500
1380555;-0.35000
1383333;-0.35000
1386111;-0.35000
1388888;-0.35000
1391666;-0.34000
1394444;-0.33500
1397222;-0.30500
1400000;-0.32000
1402777;-0.29500
1405555;-0.31000
1408333;-0.31500
1411111;-0.30500
1413888;-0.28500
1416666;-0.29000
1419444;-0.29000
1422222;-0.29000
1425000;-0.29000
1427777;-0.26500
1430555;-0.25500
1433333;-0.26500
1436111;-0.26500
1438888;-0.27500
1441666;-0.28500
1444444;-0.27000
1447222;-0.26500
1450000;-0.27500
1452777;-0.27500
1455555;-0.28000
1458333;-0.27500
1461111;-0.25500
1463888;-0.25500
1466666;-0.26500
1469444;-0.28500
1472222;-0.27500
1475000;-0.26500
1477777;-0.25000
1480555;-0.25000
1483333;-0.29500
1486111;-0.31500
1488888;-0.32500
1491666;-0.34500
1494444;-0.36000
1497222;-0.37000
1500000;-0.37000
1502777;-0.39500
1505555;-0.40500
1508333;-0.40000
1511111;-0.39500
1513888;-0.38000
1516666;-0.38000
1519444;-0.39000
1522222;-0.39000
1525000;-0.39000
1527777;-0.38500
1530555;-0.38000
1533333;-0.38500
1536111;-0.40000
1538888;-0.40000
1541666;-0.39500
1544444;-0.39000
1547222;-0.38000
1550000;-0.37500
1552777;-0.38500
1555555;-0.41000
1558333;-0.40500
1561111;-0.40500
1563888;-0.39000
1566666;-0.40000
1569444;-0.41000
1572222;-0.43500
1575000;-0.47500
1577777;-0.48500
1580555;-0.50000
1583333;-0.51500
1586111;-0.55500
1588888;-0.59500
1591666;-0.58500
1594444;-0.49500
1597222;-0.38500
1600000;-0.27500
1602777;-0.13000
1605555;0.06500
1608333;0.28500
1611111;0.50000
1613888;0.66500
1616666;0.77000
1619444;0.82500
1622222;0.81500
1625000;0.67500
1627777;0.43000
1630555;0.15500
1633333;-0.13000
1636111;-0.34000
1638888;-0.47000
1641666;-0.56500
1644444;-0.56500
1647222;-0.51500
1650000;-0.47000
1652777;-0.45500
1655555;-0.45000
1658333;-0.45000
1661111;-0.44500
1663888;-0.42500
1666666;-0.44500
1669444;-0.44000
1672222;-0.44500
1675000;-0.44000
1677777;-0.43000
1680555;-0.43000
1683333;-0.44000
1686111;-0.44500
1688888;-0.45000
1691666;-0.45500
1694444;-0.44500
1697222;-0.43500
1700000;-0.44000
1702777;-0.45000
1705555;-0.46000
1708333;-0.45000
1711111;-0.44500
1713888;-0.43500
1716666;-0.44000
1719444;-0.44000
1722222;-0.46000
1725000;-0.45500
1727777;-0.45500
1730555;-0.44500
1733333;-0.44000
1736111;-0.45500
1738888;-0.45500
1741666;-0.45000
1744444;-0.44000
1747222;-0.43000
1750000;-0.44500
1752777;-0.44000
1755555;-0.45500
1758333;-0.46000
1761111;-0.44000
1763888;-0.43000
1766666;-0.44000
1769444;-0.45000
1772222;-0.45500
1775000;-0.46000
1777777;-0.44500
1780555;-0.42000
1783333;-0.43500
1786111;-0.44000
1788888;-0.45500
1791666;-0.46000
1794444;-0.45000
1797222;-0.44500
1799999;-0.44500
1802777;-0.44000
1805555;-0.44500
1808333;-0.44000
1811111;-0.42500
1813888;-0.43000
1816666;-0.42500
1819444;-0.43500
1822222;-0.45500
1824999;-0.45500
1827777;-0.44500
1830555;-0.43500
1833333;-0.44500
1836111;-0.44000
1838888;-0.44500
1841666;-0.45500
1844444;-0.44500
1847222;-0.44500
1849999;-0.44500
1852777;-0.46000
1855555;-0.46500
1858333;-0.47500
1861111;-0.46000
1863888;-0.45000
1866666;-0.44000
1869444;-0.46500
1872222;-0.47000
1874999;-0.47000
1877777;-0.47500
1880555;-0.46500
1883333;-0.47000
1886111;-0.46500
1888888;-0.48500
1891666;-0.49000
1894444;-0.49000
1897222;-0.48000
1899999;-0.48000
1902777;-0.48000
1905555;-0.49000
1908333;-0.49000
1911111;-0.47000
1913888;-0.46000
1916666;-0.46000
1919444;-0.46500
1922222;-0.44500
1924999;-0.44500
1927777;-0.42000
1930555;-0.41000
1933333;-0.39500
1936111;-0.38500
1938888;-0.39500
1941666;-0.39500
1944444;-0.37500
1947222;-0.37500
1949999;-0.36500
1952777;-0.36500
1955555;-0.37500
1958333;-0.37000
1961111;-0.36000
1963888;-0.34500
1966666;-0.35000
1969444;-0.34000
1972222;-0.35500
1974999;-0.35000
1977777;-0.34500
1980555;-0.33500
1983333;-0.33500
1986111;-0.33500
1988888;-0.34000
1991666;-0.35500
1994444;-0.35500
1997222;-0.35000
1999999;-0.35500
2002777;-0.35500
2005555;-0.36000
2008333;-0.36500
2011111;-0.35500
2013888;-0.35000
2016666;-0.35000
2019444;-0.36000
2022222;-0.36500
2024999;-0.35500
2027777;-0.35000
2030555;-0.34500
2033333;-0.34000
2036111;-0.36000
2038888;-0.37500
2041666;-0.38000
2044444;-0.37500
2047222;-0.35500
2049999;-0.35000
2052777;-0.36000
2055555;-0.36500
2058333;-0.37500
2061111;-0.37500
2063888;-0.35000
2066666;-0.36000
2069444;-0.36000
2072222;-0.36500
2074999;-0.38000
2077777;-0.37500
2080555;-0.37000
2083333;-0.37500
2086111;-0.39000
2088888;-0.39500
2091666;-0.40500
2094444;-0.39500
2097222;-0.37500
2099999;-0.38500
2102777;-0.39500
2105555;-0.39500
2108333;-0.39500
2111111;-0.39000
2113888;-0.38000
2116666;-0.39500
2119444;-0.40000
2122222;-0.39500
2124999;-0.40500
2127777;-0.39500
2130555;-0.37500
2133333;-0.39000
2136111;-0.38500
2138888;-0.39000
2141666;-0.39000
2144444;-0.38500
2147222;-0.37500
2149999;-0.38500
2152777;-0.39000
2155555;-0.40000
2158333;-0.40000
2161111;-0.39500
2163888;-0.37000
2166666;-0.37000
2169444;-0.39000
2172222;-0.39500
2174999;-0.39500
2177777;-0.39000
2180555;-0.38000
2183333;-0.37500
2186110;-0.38000
2188888;-0.39000
2191666;-0.38500
2194444;-0.38500
2197222;-0.37000
2199999;-0.37500
2202777;-0.38000
2205555;-0.38000
2208333;-0.38500
2211110;-0.38000
2213888;-0.36000
2216666;-0.36500
2219444;-0.35500
2222222;-0.37000
2224999;-0.37000
2227777;-0.36000
2230555;-0.35500
2233333;-0.35000
2236110;-0.35000
2238888;-0.34500
2241666;-0.35000
2244444;-0.32000
2247222;-0.32000
2249999;-0.31500
2252777;-0.32500
2255555;-0.32500
2258333;-0.31500
2261110;-0.30000
2263888;-0.27500
2266666;-0.28500
2269444;-0.28500
2272222;-0.28500
2274999;-0.27500
2277777;-0.27000
2280555;-0.26500
2283333;-0.26500
2286110;-0.27500
2288888;-0.29500
2291666;-0.29000
2294444;-0.28500
2297222;-0.27500
2299999;-0.28500
2302777;-0.31500
2305555;-0.30000
2308333;-0.30000
2311110;-0.28000
2313888;-0.25000
2316666;-0.26000
2319444;-0.28500
2322222;-0.30500
2324999;-0.34000
2327777;-0.33500
2330555;-0.33500
2333333;-0.36500
2336110;-0.38000
2338888;-0.37500
2341666;-0.38500
2344444;-0.37500
2347222;-0.37000
2349999;-0.38000
2352777;-0.38000
2355555;-0.38500
2358333;-0.39000
2361110;-0.37500
2363888;-0.36500
2366666;-0.37000
2369444;-0.38000
2372222;-0.39000
2374999;-0.38500
2377777;-0.37500
2380555;-0.36500
2383333;-0.37000
2386110;-0.38500
2388888;-0.38500
2391666;-0.38500
2394444;-0.38000
2397222;-0.38000
2399999;-0.37500
2402777;-0.39500
2405555;-0.40000
2408333;-0.43500
2411110;-0.46500
2413888;-0.48500
2416666;-0.49500
2419444;-0.53500
2422222;-0.56500
2424999;-0.58500
2427777;-0.52000
2430555;-0.42000
2433333;-0.32000
2436110;-0.21500
2438888;-0.10500
2441666;0.05500
2444444;0.25000
2447222;0.46500
2449999;0.62500
2452777;0.74000
2455555;0.83500
2458333;0.91500
2461110;0.90500
2463888;0.82500
2466666;0.57500
2469444;0.24000
2472222;-0.07500
2474999;-0.31000
2477777;-0.44000
2480555;-0.48500
2483333;-0.49500
2486110;-0.48000
2488888;-0.44500
2491666;-0.43000
2494444;-0.42000
2497222;-0.40500
2499999;-0.40000
2502777;-0.39500
2505555;-0.40500
2508333;-0.41500
2511110;-0.40500
2513888;-0.39000
2516666;-0.40000
2519444;-0.40000
2522222;-0.41000
2524999;-0.40500
2527777;-0.40000
2530555;-0.38500
2533333;-0.39500
2536110;-0.40000
2538888;-0.41500
2541666;-0.41000
2544444;-0.40500
2547222;-0.39500
2549999;-0.39500
2552777;-0.39500
2555555;-0.41000
2558333;-0.42500
2561110;-0.40500
2563888;-0.39500
2566666;-0.39500
2569444;-0.40000
2572222;-0.40000
2574999;-0.41000
2577777;-0.40000
2580555;-0.38500
2583333;-0.38500
2586110;-0.40000
2588888;-0.40500
2591666;-0.41000
2594444;-0.39000
2597221;-0.39500
2599999;-0.39000
2602777;-0.39500
2605555;-0.40500
2608333;-0.40500
2611110;-0.39000
2613888;-0.38500
2616666;-0.39000
2619444;-0.40000
2622221;-0.40500
2624999;-0.40000
2627777;-0.39500
2630555;-0.39000
2633333;-0.38500
2636110;-0.38000
2638888;-0.39000
2641666;-0.38500
2644444;-0.39000
2647221;-0.38500
2649999;-0.39000
2652777;-0.39000
2655555;-0.39500
2658333;-0.40000
2661110;-0.39000
2663888;-0.38000
2666666;-0.38500
2669444;-0.38500
2672221;-0.39000
2674999;-0.39000
2677777;-0.38500
2680555;-0.38500
2683333;-0.38000
2686110;-0.38500
2688888;-0.39500
2691666;-0.39500
2694444;-0.39000
2697221;-0.39000
2699999;-0.38000
2702777;-0.40000
2705555;-0.41500
2708333;-0.42000
2711110;-0.40500
2713888;-0.41000
2716666;-0.41000
2719444;-0.42000
2722221;-0.42500
2724999;-0.43500
2727777;-0.42000
2730555;-0.40000
2733333;-0.40000
2736110;-0.40500
2738888;-0.41500
2741666;-0.42000
2744444;-0.39500
2747221;-0.39000
2749999;-0.37500
2752777;-0.37000
2755555;-0.36500
2758333;-0.36000
2761110;-0.34000
2763888;-0.32500
2766666;-0.31500
2769444;-0.33000
2772221;-0.32500
2774999;-0.31000
2777777;-0.30500
2780555;-0.29000
2783333;-0.29000
2786110;-0.29500
2788888;-0.30000
2791666;-0.30000
2794444;-0.29000
2797221;-0.27500
2799999;-0.28000
2802777;-0.29000
2805555;-0.28000
2808333;-0.29500
2811110;-0.28500
2813888;-0.28000
2816666;-0.27000
2819444;-0.28500
2822221;-0.29000
2824999;-0.29500
2827777;-0.28500
2830555;-0.27500
2833333;-0.28500
2836110;-0.28500
2838888;-0.28500
2841666;-0.29000
2844444;-0.28500
2847221;-0.28500
2849999;-0.28000
2852777;-0.28500
2855555;-0.29500
2858333;-0.29500
2861110;-0.29500
2863888;-0.27500
2866666;-0.29000
2869444;-0.29500
2872221;-0.31000
2874999;-0.31000
2877777;-0.30500
2880555;-0.29500
2883333;-0.29500
2886110;-0.30000
2888888;-0.30000
2891666;-0.32000
2894444;-0.30000
2897221;-0.29000
2899999;-0.29000
2902777;-0.31000
2905555;-0.31500
2908333;-0.31500
2911110;-0.30500
2913888;-0.30000
2916666;-0.29500
2919444;-0.31000
2922221;-0.31500
2924999;-0.32500
2927777;-0.31500
2930555;-0.30500
2933333;-0.32000
2936110;-0.32000
2938888;-0.33500
2941666;-0.32500
2944444;-0.32000
2947221;-0.31500
2949999;-0.31000
2952777;-0.32000
2955555;-0.34000
2958333;-0.34500
2961110;-0.32500
2963888;-0.31500
2966666;-0.31500
2969444;-0.32500
2972221;-0.32500
2974999;-0.33000
2977777;-0.32000
2980555;-0.30000
2983332;-0.31000
2986110;-0.32000
2988888;-0.32500
2991666;-0.32500
2994444;-0.32000
2997221;-0.30500
2999999;-0.30000
3002777;-0.31000
3005555;-0.32000
3008332;-0.32500
3011110;-0.29500
3013888;-0.29500
3016666;-0.29500
3019444;-0.31000
3022221;-0.31500
3024999;-0.31500
3027777;-0.31000
3030555;-0.31000
3033332;-0.30500
3036110;-0.31000
3038888;-0.32000
3041666;-0.32500
3044444;-0.32500
3047221;-0.30500
3049999;-0.30500
3052777;-0.32500
3055555;-0.32000
3058332;-0.31500
3061110;-0.30500
3063888;-0.29500
3066666;-0.28500
3069444;-0.29000
3072221;-0.28500
3074999;-0.27500
3077777;-0.26500
3080555;-0.24000
3083332;-0.23000
3086110;-0.24000
3088888;-0.23000
3091666;-0.23500
3094444;-0.21500
3097221;-0.21000
3099999;-0.20000
3102777;-0.20000
3105555;-0.20500
3108332;-0.20000
3111110;-0.21000
3113888;-0.19000
3116666;-0.20500
3119444;-0.20500
3122221;-0.22000
3124999;-0.23000
3127777;-0.21500
3130555;-0.20500
3133332;-0.19500
3136110;-0.20500
3138888;-0.22000
3141666;-0.23000
3144444;-0.21500
3147221;-0.18000
3149999;-0.17500
3152777;-0.19000
3155555;-0.22000
3158332;-0.26000
3161110;-0.24500
3163888;-0.26000
3166666;-0.27000
3169444;-0.29500
3172221;-0.30500
3174999;-0.30500
3177777;-0.31000
3180555;-0.30500
3183332;-0.30000
3186110;-0.29000
3188888;-0.30500
3191666;-0.31000
3194444;-0.30500
3197221;-0.29500
3199999;-0.29500
3202777;-0.30500
3205555;-0.31000
3208332;-0.31500
3211110;-0.30500
3213888;-0.30000
3216666;-0.31000
3219444;-0.31500
3222221;-0.33500
3224999;-0.33000
3227777;-0.32500
3230555;-0.32000
3233332;-0.32000
3236110;-0.32500
3238888;-0.34000
3241666;-0.33000
3244444;-0.32500
3247221;-0.32000
3249999;-0.32000
3252777;-0.34000
3255555;-0.37000
3258332;-0.43000
3261110;-0.44500
3263888;-0.44500
3266666;-0.47500
3269444;-0.51500
3272221;-0.50000
3274999;-0.41500
3277777;-0.27000
3280555;-0.14000
3283332;0.00500
3286110;0.22000
3288888;0.47500
3291666;0.70000
3294444;0.85000
3297221;0.90000
3299999;0.82500
3302777;0.53000
3305555;0.14500
3308332;-0.21500
3311110;-0.40500
3313888;-0.44000
3316666;-0.41500
3319444;-0.38000
3322221;-0.35500
3324999;-0.35500
3327777;-0.35000
3330555;-0.33500
3333332;-0.33500
3336110;-0.35000
3338888;-0.35500
3341666;-0.36000
3344444;-0.36000
3347221;-0.34000
3349999;-0.35000
3352777;-0.35500
3355555;-0.37000
3358332;-0.38500
3361110;-0.35000
3363888;-0.35000
3366666;-0.35500
3369444;-0.35500
3372221;-0.36500
3374999;-0.37000
3377777;-0.36500
3380555;-0.35500
3383332;-0.35000
3386110;-0.35500
3388888;-0.35500
3391666;-0.36500
3394443;-0.34500
3397221;-0.35000
3399999;-0.35000
3402777;-0.35500
3405555;-0.35500
3408332;-0.35000
3411110;-0.35000
3413888;-0.33500
3416666;-0.33500
3419443;-0.33500
3422221;-0.35000
3424999;-0.35000
3427777;-0.35000
3430555;-0.34500
3433332;-0.35000
3436110;-0.36000
3438888;-0.35500
3441666;-0.36000
3444443;-0.35500
3447221;-0.33000
3449999;-0.34500
3452777;-0.35000
3455555;-0.35000
3458332;-0.36500
3461110;-0.35000
3463888;-0.35000
3466666;-0.34500
3469443;-0.35000
3472221;-0.35500
3474999;-0.34500
3477777;-0.35000
3480555;-0.33500
3483332;-0.34000
3486110;-0.34000
3488888;-0.35000
3491666;-0.35000
3494443;-0.34000
3497221;-0.33500
3499999;-0.34500
3502777;-0.35000
3505555;-0.35000
3508332;-0.36500
3511110;-0.34500
3513888;-0.33000
3516666;-0.34000
3519443;-0.33500
3522221;-0.35500
3524999;-0.35500
3527777;-0.35000
3530555;-0.34500
3533332;-0.33500
3536110;-0.34500
3538888;-0.34500
3541666;-0.35500
3544443;-0.34000
3547221;-0.34000
3549999;-0.35000
3552777;-0.33500
3555555;-0.35000
3558332;-0.35000
3561110;-0.35000
3563888;-0.33500
3566666;-0.34000
3569443;-0.34500
3572221;-0.36500
3574999;-0.35000
3577777;-0.34000
3580555;-0.33000
3583332;-0.33500
3586110;-0.34000
3588888;-0.34000
3591666;-0.34000
3594443;-0.33000
3597221;-0.30500
3599999;-0.30500
3602777;-0.31500
3605555;-0.31500
3608332;-0.30500
3611110;-0.28500
3613888;-0.27000
3616666;-0.26500
3619443;-0.26000
3622221;-0.26500
3624999;-0.26000
3627777;-0.25500
3630555;-0.24500
3633332;-0.24000
3636110;-0.25500
3638888;-0.25500
3641666;-0.26500
3644443;-0.25000
3647221;-0.24000
3649999;-0.24000
3652777;-0.25000
3655555;-0.25500
3658332;-0.26000
3661110;-0.25500
3663888;-0.24000
3666666;-0.25500
3669443;-0.25000
3672221;-0.27000
3674999;-0.26500
3677777;-0.26000
3680555;-0.25500
3683332;-0.25500
3686110;-0.25500
3688888;-0.26500
3691666;-0.26000
3694443;-0.25500
3697221;-0.25500
3699999;-0.25500
3702777;-0.26000
3705555;-0.27000
3708332;-0.27000
3711110;-0.26500
3713888;-0.26000
3716666;-0.27500
3719443;-0.27500
3722221;-0.28500
3724999;-0.29500
3727777;-0.27500
3730555;-0.27000
3733332;-0.27000
3736110;-0.28500
3738888;-0.28500
3741666;-0.29500
3744443;-0.28000
3747221;-0.27000
3749999;-0.28000
3752777;-0.28500
3755555;-0.30000
3758332;-0.29000
3761110;-0.30500
3763888;-0.28500
3766666;-0.28500
3769443;-0.29500
3772221;-0.30500
3774999;-0.30500
3777777;-0.30500
3780554;-0.29000
3783332;-0.29000
3786110;-0.31000
3788888;-0.30500
3791666;-0.31000
3794443;-0.30500
3797221;-0.29500
3799999;-0.29500
3802777;-0.30500
3805554;-0.32000
3808332;-0.31500
3811110;-0.31000
3813888;-0.30000
3816666;-0.29500
3819443;-0.30500
3822221;-0.31000
3824999;-0.30000
3827777;-0.30500
3830554;-0.29500
3833332;-0.30000
3836110;-0.30500
3838888;-0.30500
3841666;-0.31500
3844443;-0.30500
3847221;-0.29500
3849999;-0.29500
3852777;-0.29000
3855554;-0.31000
3858332;-0.31000
3861110;-0.31000
3863888;-0.29500
3866666;-0.29000
3869443;-0.31500
3872221;-0.31000
3874999;-0.30500
3877777;-0.29500
3880554;-0.27500
3883332;-0.26500
3886110;-0.26500
3888888;-0.25500
3891666;-0.24500
3894443;-0.23500
3897221;-0.22500
3899999;-0.22500
3902777;-0.24500
3905554;-0.24000
3908332;-0.24500
3911110;-0.23000
3913888;-0.20000
3916666;-0.20000
3919443;-0.20500
3922221;-0.20000
3924999;-0.19500
3927777;-0.19000
3930554;-0.19000
3933332;-0.19500
3936110;-0.21500
3938888;-0.22000
3941666;-0.21500
3944443;-0.22000
3947221;-0.21000
3949999;-0.21000
3952777;-0.22000
3955554;-0.22500
3958332;-0.20000
3961110;-0.17500
3963888;-0.17500
3966666;-0.20000
3969443;-0.24000
3972221;-0.25500
3974999;-0.26500
3977777;-0.27500
3980554;-0.27500
3983332;-0.29500
3986110;-0.30000
3988888;-0.30500
3991666;-0.32500
3994443;-0.32500
3997221;-0.32500
3999999;-0.30500
4002777;-0.32500
4005554;-0.33500
4008332;-0.33000
4011110;-0.32500
4013888;-0.32500
4016666;-0.31500
4019443;-0.33500
4022221;-0.33500
4024999;-0.34000
4027777;-0.33000
4030554;-0.32000
4033332;-0.32000
4036110;-0.32500
4038888;-0.34000
4041666;-0.34000
4044443;-0.34000
4047221;-0.32000
4049999;-0.34000
4052777;-0.35500
4055554;-0.38500
4058332;-0.42500
4061110;-0.44500
4063888;-0.45000
4066666;-0.46500
4069443;-0.52000
4072221;-0.53000
4074999;-0.47500
4077777;-0.36000
4080554;-0.22000
4083332;-0.08000
4086110;0.13000
4088888;0.38000
4091666;0.61000
4094443;0.75000
4097221;0.80500
4099999;0.69500
4102777;0.39000
4105554;0.01000
4108332;-0.30500
4111110;-0.45500
4113888;-0.48000
4116666;-0.44000
4119443;-0.39000
4122221;-0.37000
4124999;-0.37500
4127777;-0.39000
4130554;-0.36000
4133332;-0.35500
4136110;-0.36500
4138888;-0.38000
4141666;-0.37500
4144443;-0.37000
4147221;-0.35500
4149999;-0.36500
4152777;-0.37000
4155554;-0.37000
4158332;-0.37500
4161110;-0.38000
4163888;-0.36500
4166666;-0.35500
4169443;-0.36500
4172221;-0.37500
4174999;-0.37500
4177777;-0.38000
4180554;-0.36000
4183332;-0.37000
4186110;-0.37500
4188888;-0.37500
4191665;-0.39000
4194443;-0.38000
4197221;-0.37000
4199999;-0.37500
4202777;-0.37500
4205554;-0.38000
4208332;-0.38000
4211110;-0.37500
4213888;-0.37000
4216665;-0.37500
4219443;-0.36500
4222221;-0.38000
4224999;-0.36000
4227777;-0.36000
4230554;-0.36500
4233332;-0.36500
4236110;-0.37000
4238888;-0.38000
4241665;-0.37500
4244443;-0.37000
4247221;-0.36000
4249999;-0.37000
4252777;-0.38000
4255554;-0.38000
4258332;-0.38500
4261110;-0.38500
4263888;-0.37000
4266665;-0.37500
4269443;-0.37500
4272221;-0.38500
4274999;-0.39500
4277777;-0.38000
4280554;-0.38000
4283332;-0.37000
4286110;-0.38000
4288888;-0.38500
4291665;-0.39000
4294443;-0.36500
4297221;-0.35000
4299999;-0.34500
4302777;-0.36000
4305554;-0.36500
4308332;-0.37000
4311110;-0.37500
4313888;-0.36000
4316665;-0.35500
4319443;-0.36000
4322221;-0.37000
4324999;-0.37500
4327777;-0.36000
4330554;-0.37500
4333332;-0.36000
4336110;-0.36500
4338888;-0.38000
4341665;-0.38000
4344443;-0.37000
4347221;-0.36500
4349999;-0.36000
4352777;-0.37000
4355554;-0.38000
4358332;-0.39000
4361110;-0.38500
4363888;-0.39000
4366665;-0.39000
4369443;-0.39000
4372221;-0.40000
4374999;-0.39500
4377777;-0.40000
4380554;-0.39000
4383332;-0.38000
4386110;-0.37500
4388888;-0.39000
4391665;-0.37500
4394443;-0.36000
4397221;-0.35000
4399999;-0.34500
4402777;-0.34000
4405554;-0.33500
4408332;-0.33000
4411110;-0.31500
4413888;-0.31000
4416665;-0.30500
4419443;-0.31500
4422221;-0.33000
4424999;-0.32500
4427777;-0.31500
4430554;-0.30000
4433332;-0.28500
4436110;-0.30000
4438888;-0.30500
4441665;-0.31500
4444443;-0.30500
4447221;-0.29500
4449999;-0.30500
4452777;-0.32000
4455554;-0.31500
4458332;-0.33500
4461110;-0.31000
4463888;-0.30500
4466665;-0.30000
4469443;-0.30500
4472221;-0.31000
4474999;-0.30500
4477777;-0.30500
4480554;-0.30000
4483332;-0.30000
4486110;-0.31000
4488888;-0.32000
4491665;-0.34000
4494443;-0.33000
4497221;-0.31500
4499999;-0.31000
4502777;-0.32000
4505554;-0.33000
4508332;-0.33500
4511110;-0.33000
4513888;-0.32500
4516665;-0.32000
4519443;-0.33500
4522221;-0.34500
4524999;-0.35500
4527777;-0.34500
4530554;-0.34500
4533332;-0.34000
4536110;-0.33500
4538888;-0.33500
4541665;-0.33000
4544443;-0.31500
4547221;-0.31000
4549999;-0.31000
4552777;-0.32500
4555554;-0.33500
4558332;-0.34000
4561110;-0.34500
4563888;-0.33000
4566665;-0.33500
4569443;-0.33000
4572221;-0.34500
4574999;-0.36500
4577776;-0.34500
4580554;-0.35500
4583332;-0.36000
4586110;-0.37500
4588888;-0.38500
4591665;-0.39000
4594443;-0.37000
4597221;-0.35000
4599999;-0.35500
4602776;-0.36000
4605554;-0.37000
4608332;-0.36500
4611110;-0.36500
4613888;-0.36500
4616665;-0.36500
4619443;-0.37000
4622221;-0.36500
4624999;-0.36000
4627776;-0.37000
4630554;-0.36500
4633332;-0.35500
4636110;-0.36500
4638888;-0.37000
4641665;-0.36000
4644443;-0.37000
4647221;-0.36500
4649999;-0.35500
4652776;-0.36000
4655554;-0.37000
4658332;-0.36000
4661110;-0.36000
4663888;-0.34500
4666665;-0.34500
4669443;-0.35000
4672221;-0.35500
4674999;-0.35000
4677776;-0.32000
4680554;-0.31500
4683332;-0.31000
4686110;-0.31000
4688888;-0.30500
4691665;-0.30500
4694443;-0.30000
4697221;-0.28500
4699999;-0.28000
4702776;-0.27500
4705554;-0.27000
4708332;-0.26500
4711110;-0.24500
4713888;-0.25000
4716665;-0.24500
4719443;-0.24500
4722221;-0.26500
4724999;-0.29500
4727776;-0.29500
4730554;-0.28500
4733332;-0.27000
4736110;-0.27000
4738888;-0.28500
4741665;-0.29500
4744443;-0.28000
4747221;-0.26000
4749999;-0.24000
4752776;-0.26000
4755554;-0.28500
4758332;-0.30000
4761110;-0.30000
4763888;-0.30500
4766665;-0.31000
4769443;-0.32000
4772221;-0.36000
4774999;-0.39000
4777776;-0.37500
4780554;-0.36000
4783332;-0.36000
4786110;-0.37500
4788888;-0.37500
4791665;-0.37000
4794443;-0.35500
4797221;-0.36000
4799999;-0.37000
4802776;-0.38000
4805554;-0.39000
4808332;-0.40000
4811110;-0.39500
4813888;-0.39500
4816665;-0.39000
4819443;-0.40000
4822221;-0.40500
4824999;-0.40000
4827776;-0.39500
4830554;-0.38000
4833332;-0.38500
4836110;-0.39500
4838888;-0.40500
4841665;-0.40000
4844443;-0.38500
4847221;-0.40000
4849999;-0.42500
4852776;-0.47000
4855554;-0.50500
4858332;-0.52500
4861110;-0.54500
4863888;-0.57000
4866665;-0.55000
4869443;-0.47500
4872221;-0.39000
4874999;-0.26000
4877776;-0.09000
4880554;0.13500
4883332;0.40000
4886110;0.62000
4888888;0.74500
4891665;0.74000
4894443;0.58000
4897221;0.28000
4899999;-0.08500
4902776;-0.35000
4905554;-0.47500
4908332;-0.51500
4911110;-0.50500
4913888;-0.47000
4916665;-0.44500
4919443;-0.44000
4922221;-0.44000
4924999;-0.44500
4927776;-0.42500
4930554;-0.42500
4933332;-0.41000
4936110;-0.43000
4938888;-0.43000
4941665;-0.43000
4944443;-0.43500
4947221;-0.44000
4949999;-0.44000
4952776;-0.43500
4955554;-0.43500
4958332;-0.43500
4961110;-0.43000
4963887;-0.43000
4966665;-0.42500
4969443;-0.42500
4972221;-0.42500
4974999;-0.44000
4977776;-0.44500
4980554;-0.43500
4983332;-0.44000
4986110;-0.43500
4988887;-0.45000
4991665;-0.44500
4994443;-0.44000
4997221;-0.43000
4999999;-0.43000
5002776;-0.44000
5005554;-0.45000
5008332;-0.45000
5011110;-0.44000
5013887;-0.43000
5016665;-0.44000
5019443;-0.43500
5022221;-0.45000
5024999;-0.45500
5027776;-0.44000
5030554;-0.44500
5033332;-0.43500
5036110;-0.44000
5038887;-0.44000
5041665;-0.46000
5044443;-0.46000
5047221;-0.44500
5049999;-0.44500
5052776;-0.45500
5055554;-0.46000
5058332;-0.46500
5061110;-0.46000
5063887;-0.45000
5066665;-0.45000
5069443;-0.44500
5072221;-0.44000
5074999;-0.45000
5077776;-0.44500
5080554;-0.43000
5083332;-0.43500
5086110;-0.44500
5088887;-0.45500
5091665;-0.45000
5094443;-0.43500
5097221;-0.42000
5099999;-0.42500
5102776;-0.44000
5105554;-0.44500
5108332;-0.44500
5111110;-0.43500
5113887;-0.43500
5116665;-0.43500
5119443;-0.44500
5122221;-0.45500
5124999;-0.45500
5127776;-0.45500
5130554;-0.44000
5133332;-0.43500
5136110;-0.44500
5138887;-0.45500
5141665;-0.47000
5144443;-0.48000
5147221;-0.47500
5149999;-0.47500
5152776;-0.48000
5155554;-0.48500
5158332;-0.48500
5161110;-0.47500
5163887;-0.47500
5166665;-0.47500
5169443;-0.48500
5172221;-0.49000
5174999;-0.50000
5177776;-0.49000
5180554;-0.48000
5183332;-0.47500
5186110;-0.47000
5188887;-0.49000
5191665;-0.48500
5194443;-0.46500
5197221;-0.44000
5199999;-0.43500
5202776;-0.43500
5205554;-0.42000
5208332;-0.42000
5211110;-0.40000
5213887;-0.38500
5216665;-0.38000
5219443;-0.37500
5222221;-0.37500
5224999;-0.38000
5227776;-0.36500
5230554;-0.34500
5233332;-0.35000
5236110;-0.35000
5238887;-0.35500
5241665;-0.34000
5244443;-0.34000
5247221;-0.33500
5249999;-0.33500
5252776;-0.34000
5255554;-0.34500
5258332;-0.35000
5261110;-0.34500
5263887;-0.34000
5266665;-0.34500
5269443;-0.34500
5272221;-0.35000
5274999;-0.36000
5277776;-0.35500
5280554;-0.35500
5283332;-0.34500
5286110;-0.35000
5288887;-0.36000
5291665;-0.36000
5294443;-0.35000
5297221;-0.34000
5299999;-0.34500
5302776;-0.35500
5305554;-0.37000
5308332;-0.37000
5311110;-0.37000
5313887;-0.34500
5316665;-0.34500
5319443;-0.35000
5322221;-0.36500
5324999;-0.37500
5327776;-0.36500
5330554;-0.36000
5333332;-0.35500
5336110;-0.35500
5338887;-0.35500
5341665;-0.37500
5344443;-0.36500
5347221;-0.36500
5349999;-0.36500
5352776;-0.37000
5355554;-0.37000
5358332;-0.38500
5361110;-0.38000
5363887;-0.36500
5366665;-0.37000
5369443;-0.37000
5372221;-0.37500
5374998;-0.38500
5377776;-0.37000
5380554;-0.37000
5383332;-0.36500
5386110;-0.37000
5388887;-0.36500
5391665;-0.37500
5394443;-0.36500
5397221;-0.35000
5399998;-0.35000
5402776;-0.36000
5405554;-0.37000
5408332;-0.39000
5411110;-0.37000
5413887;-0.35000
5416665;-0.34500
5419443;-0.36000
5422221;-0.36500
5424998;-0.36000
5427776;-0.35500
5430554;-0.35500
5433332;-0.34000
5436110;-0.35000
5438887;-0.36500
5441665;-0.36500
5444443;-0.35500
5447221;-0.34500
5449998;-0.34000
5452776;-0.35000
5455554;-0.34500
5458332;-0.35500
5461110;-0.34500
5463887;-0.33500
5466665;-0.34000
5469443;-0.34000
5472221;-0.34000
5474998;-0.35000
5477776;-0.34500
5480554;-0.33000
5483332;-0.32500
5486110;-0.32000
5488887;-0.31500
5491665;-0.31500
5494443;-0.30500
5497221;-0.29000
5499998;-0.27000
5502776;-0.27000
5505554;-0.28500
5508332;-0.27000
5511110;-0.26000
5513887;-0.24500
5516665;-0.25000
5519443;-0.24500
5522221;-0.25000
5524998;-0.25500
5527776;-0.24500
5530554;-0.25000
5533332;-0.25500
5536110;-0.25500
5538887;-0.26000
5541665;-0.26000
5544443;-0.25500
5547221;-0.26000
5549998;-0.27000
5552776;-0.24000
5555554;-0.23500
5558332;-0.24000
5561110;-0.25500
5563887;-0.28500
5566665;-0.29500
5569443;-0.31500
5572221;-0.33500
5574998;-0.35000
5577776;-0.36000
5580554;-0.34500
5583332;-0.35500
5586110;-0.36000
5588887;-0.36500
5591665;-0.37000
5594443;-0.36500
5597221;-0.35500
5599998;-0.36000
5602776;-0.36000
5605554;-0.37500
5608332;-0.37500
5611110;-0.37000
5613887;-0.36000
5616665;-0.36500
5619443;-0.35500
5622221;-0.36500
5624998;-0.37000
5627776;-0.36500
5630554;-0.35000
5633332;-0.35500
5636110;-0.35000
5638887;-0.36500
5641665;-0.37500
5644443;-0.37500
5647221;-0.37500
5649998;-0.40000
5652776;-0.44500
5655554;-0.47500
5658332;-0.50000
5661110;-0.50500
5663887;-0.55500
5666665;-0.55500
5669443;-0.50000
5672221;-0.41000
5674998;-0.26500
5677776;-0.09000
5680554;0.10500
5683332;0.37500
5686110;0.63000
5688887;0.78500
5691665;0.83500
5694443;0.76500
5697221;0.51500
5699998;0.12500
5702776;-0.25500
5705554;-0.46500
5708332;-0.51500
5711110;-0.46000
5713887;-0.41500
5716665;-0.38500
5719443;-0.39500
5722221;-0.40000
5724998;-0.41000
5727776;-0.40000
5730554;-0.39000
5733332;-0.39500
5736110;-0.39500
5738887;-0.41000
5741665;-0.40000
5744443;-0.40000
5747221;-0.38500
5749998;-0.38500
5752776;-0.38500
5755554;-0.39000
5758332;-0.40500
5761109;-0.39000
5763887;-0.38500
5766665;-0.38000
5769443;-0.39000
5772221;-0.40000
5774998;-0.41000
5777776;-0.39500
5780554;-0.38500
5783332;-0.38000
5786109;-0.39000
5788887;-0.38500
5791665;-0.39000
5794443;-0.39500
5797221;-0.37000
5799998;-0.38000
5802776;-0.37500
5805554;-0.39000
5808332;-0.39500
5811109;-0.37500
5813887;-0.36000
5816665;-0.35500
5819443;-0.36000
5822221;-0.38500
5824998;-0.38000
5827776;-0.37500
5830554;-0.36500
5833332;-0.37500
5836109;-0.37500
5838887;-0.38500
5841665;-0.39000
5844443;-0.38500
5847221;-0.38500
5849998;-0.38000
5852776;-0.38500
5855554;-0.38500
5858332;-0.39500
5861109;-0.38500
5863887;-0.37500
5866665;-0.37500
5869443;-0.37000
5872221;-0.38500
5874998;-0.38500
5877776;-0.38000
5880554;-0.37000
5883332;-0.36500
5886109;-0.36500
5888887;-0.36500
5891665;-0.38500
5894443;-0.37000
5897221;-0.37000
5899998;-0.36000
5902776;-0.37500
5905554;-0.38500
5908332;-0.37500
5911109;-0.38500
5913887;-0.37500
5916665;-0.37500
5919443;-0.38500
5922221;-0.39500
5924998;-0.39500
5927776;-0.40000
5930554;-0.39000
5933332;-0.38500
5936109;-0.40000
5938887;-0.40500
5941665;-0.41000
5944443;-0.40000
5947221;-0.39500
5949998;-0.39500
5952776;-0.39000
5955554;-0.39500
5958332;-0.39500
5961109;-0.39000
5963887;-0.37500
5966665;-0.36500
5969443;-0.36000
5972221;-0.37000
5974998;-0.35000
5977776;-0.34000
5980554;-0.34000
5983332;-0.33000
5986109;-0.31500
5988887;-0.32000
5991665;-0.31500
5994443;-0.30000
5997221;-0.28000
5999998;-0.27500
6002776;-0.28000
6005554;-0.28500
6008332;-0.28500
6011109;-0.28000
6013887;-0.27000
6016665;-0.26500
6019443;-0.28000
6022221;-0.28000
6024998;-0.28000
6027776;-0.27500
6030554;-0.26500
6033332;-0.26000
6036109;-0.26500
6038887;-0.28000
6041665;-0.28500
6044443;-0.27500
6047221;-0.27000
6049998;-0.26500
6052776;-0.28000
6055554;-0.28000
6058332;-0.28000
6061109;-0.26500
6063887;-0.27000
6066665;-0.26500
6069443;-0.27000
6072221;-0.28000
6074998;-0.28500
6077776;-0.29000
6080554;-0.28000
6083332;-0.28500
6086109;-0.28500
6088887;-0.30000
6091665;-0.29500
6094443;-0.28000
6097221;-0.28500
6099998;-0.28500
6102776;-0.28500
6105554;-0.30000
6108332;-0.30000
6111109;-0.29500
6113887;-0.28500
6116665;-0.29000
6119443;-0.28500
6122221;-0.29500
6124998;-0.29500
6127776;-0.30000
6130554;-0.29000
6133332;-0.29000
6136109;-0.29000
6138887;-0.30500
6141665;-0.30500
6144443;-0.30500
6147221;-0.30000
6149998;-0.30000
6152776;-0.30500
6155554;-0.30500
6158332;-0.30500
6161109;-0.31500
6163887;-0.28500
6166665;-0.29500
6169443;-0.30500
6172220;-0.31000
6174998;-0.32000
6177776;-0.32500
6180554;-0.31000
6183332;-0.30000
6186109;-0.30000
6188887;-0.31500
6191665;-0.32000
6194443;-0.31000
6197220;-0.31500
6199998;-0.31500
6202776;-0.31000
6205554;-0.32000
6208332;-0.31000
6211109;-0.30500
6213887;-0.29000
6216665;-0.29500
6219443;-0.28500
6222220;-0.30000
6224998;-0.32000
6227776;-0.30500
6230554;-0.29000
6233332;-0.29000
6236109;-0.30000
6238887;-0.31000
6241665;-0.31000
6244443;-0.29500
6247220;-0.28000
6249998;-0.29500
6252776;-0.29000
6255554;-0.29500
6258332;-0.31000
6261109;-0.29500
6263887;-0.27500
6266665;-0.27500
6269443;-0.26500
6272220;-0.26000
6274998;-0.25500
6277776;-0.22000
6280554;-0.22000
6283332;-0.21000
6286109;-0.22000
6288887;-0.23500
6291665;-0.21500
6294443;-0.20500
6297220;-0.19000
6299998;-0.18500
6302776;-0.18000
6305554;-0.19500
6308332;-0.18500
6311109;-0.18500
6313887;-0.17500
6316665;-0.17500
6319443;-0.18000
6322220;-0.19000
6324998;-0.20500
6327776;-0.21000
6330554;-0.19500
6333332;-0.19500
6336109;-0.19500
6338887;-0.20500
6341665;-0.21500
6344443;-0.20000
6347220;-0.17000
6349998;-0.15500
6352776;-0.18000
6355554;-0.21500
6358332;-0.24000
6361109;-0.24500
6363887;-0.26000
6366665;-0.26500
6369443;-0.28000
6372220;-0.29500
6374998;-0.31500
6377776;-0.31000
6380554;-0.30000
6383332;-0.29000
6386109;-0.30000
6388887;-0.30000
6391665;-0.32000
6394443;-0.30000
6397220;-0.30500
6399998;-0.30500
6402776;-0.30000
6405554;-0.31000
6408332;-0.31000
6411109;-0.30500
6413887;-0.30500
6416665;-0.29500
6419443;-0.30500
6422220;-0.31500
6424998;-0.32000
6427776;-0.32000
6430554;-0.33000
6433332;-0.35000
6436109;-0.41000
6438887;-0.44000
6441665;-0.46000
6444443;-0.49000
6447220;-0.51500
6449998;-0.50000
6452776;-0.45500
6455554;-0.36000
6458332;-0.28500
6461109;-0.19500
6463887;-0.09500
6466665;0.04500
6469443;0.26000
6472220;0.51500
6474998;0.74500
6477776;0.91000
6480554;0.97000
