time_ms;ecg_value
0;0.93500
2778;1.00000
5556;0.91000
8333;0.63500
11111;0.20000
13889;-0.19000
16667;-0.41500
19444;-0.52000
22222;-0.56000
25000;-0.55500
27778;-0.53500
30556;-0.49500
33333;-0.45000
36111;-0.43500
38889;-0.44500
41667;-0.47000
44444;-0.48000
47222;-0.45000
50000;-0.43000
52778;-0.44500
55556;-0.45500
58333;-0.46500
61111;-0.46000
63889;-0.44000
66667;-0.44500
69444;-0.45500
72222;-0.46000
75000;-0.46000
77778;-0.46000
80556;-0.45500
83333;-0.44500
86111;-0.45500
88889;-0.46500
91667;-0.46500
94444;-0.47000
97222;-0.45500
100000;-0.44500
102778;-0.46000
105556;-0.46000
108333;-0.46000
111111;-0.47000
113889;-0.46000
116667;-0.44500
119444;-0.44500
122222;-0.45000
125000;-0.45500
127778;-0.46000
130556;-0.45500
133333;-0.44500
136111;-0.45500
138889;-0.46500
141667;-0.46000
144444;-0.46500
147222;-0.45500
150000;-0.44500
152778;-0.45500
155556;-0.45500
158333;-0.45500
161111;-0.46000
163889;-0.45500
166667;-0.45000
169444;-0.45500
172222;-0.46500
175000;-0.45500
177778;-0.47000
180556;-0.46000
183333;-0.44500
186111;-0.45000
188889;-0.45500
191667;-0.46000
194444;-0.45500
197222;-0.44500
200000;-0.43000
202778;-0.44000
205555;-0.45000
208333;-0.46000
211111;-0.46500
213889;-0.45000
216667;-0.43000
219444;-0.44000
222222;-0.46000
225000;-0.46000
227778;-0.46000
230555;-0.45500
233333;-0.44000
236111;-0.45000
238889;-0.47000
241667;-0.47000
244444;-0.48500
247222;-0.47500
250000;-0.47500
252778;-0.48500
255555;-0.48500
258333;-0.50000
261111;-0.52000
263889;-0.51500
266667;-0.50000
269444;-0.51000
272222;-0.51000
275000;-0.52000
277778;-0.52000
280555;-0.52000
283333;-0.50500
286111;-0.51000
288889;-0.51500
291667;-0.53500
294444;-0.52000
297222;-0.51000
300000;-0.49500
302778;-0.47500
305555;-0.47000
308333;-0.47000
311111;-0.45500
313889;-0.43000
316667;-0.42500
319444;-0.41000
322222;-0.40500
325000;-0.40000
327778;-0.39500
330555;-0.38500
333333;-0.37000
336111;-0.35000
338889;-0.36000
341667;-0.35000
344444;-0.34500
347222;-0.33000
350000;-0.33000
352778;-0.32000
355555;-0.32000
358333;-0.33000
361111;-0.33500
363889;-0.33000
366667;-0.31000
369444;-0.31500
372222;-0.32500
375000;-0.32000
377778;-0.33000
380555;-0.31000
383333;-0.30500
386111;-0.30000
388889;-0.31000
391667;-0.32000
394444;-0.32000
397222;-0.30500
400000;-0.30000
402778;-0.30500
405555;-0.31000
408333;-0.32000
411111;-0.33000
413889;-0.32000
416667;-0.31500
419444;-0.33000
422222;-0.33000
425000;-0.33000
427778;-0.33500
430555;-0.33500
433333;-0.32000
436111;-0.33000
438889;-0.33500
441667;-0.34500
444444;-0.34500
447222;-0.33500
450000;-0.32500
452778;-0.31500
455555;-0.33500
458333;-0.32000
461111;-0.33500
463889;-0.33500
466667;-0.32000
469444;-0.33000
472222;-0.32500
475000;-0.33500
477778;-0.34000
480555;-0.34000
483333;-0.33500
486111;-0.34500
488889;-0.34000
491667;-0.35000
494444;-0.35000
497222;-0.34000
500000;-0.34000
502778;-0.33500
505555;-0.35000
508333;-0.33500
511111;-0.34500
513889;-0.34500
516667;-0.32500
519444;-0.33000
522222;-0.33000
525000;-0.33500
527778;-0.34500
530555;-0.33500
533333;-0.32000
536111;-0.31500
538889;-0.31000
541667;-0.31500
544444;-0.32500
547222;-0.32000
550000;-0.32000
552778;-0.31000
555555;-0.31500
558333;-0.33000
561111;-0.33000
563889;-0.33000
566667;-0.31500
569444;-0.32000
572222;-0.32500
575000;-0.34000
577778;-0.33500
580555;-0.33500
583333;-0.32500
586111;-0.32500
588889;-0.32500
591667;-0.33500
594444;-0.33500
597222;-0.33500
600000;-0.31500
602778;-0.31500
605555;-0.31000
608333;-0.32500
611111;-0.32500
613889;-0.30500
616666;-0.30000
619444;-0.30000
622222;-0.28500
625000;-0.29000
627778;-0.28000
630555;-0.26000
633333;-0.24500
636111;-0.25500
638889;-0.26000
641666;-0.26500
644444;-0.25500
647222;-0.22500
650000;-0.21000
652778;-0.21000
655555;-0.20500
658333;-0.22000
661111;-0.22000
663889;-0.21500
666666;-0.21500
669444;-0.22000
672222;-0.22500
675000;-0.23500
677778;-0.24500
680555;-0.23500
683333;-0.22500
686111;-0.21000
688889;-0.22500
691666;-0.24500
694444;-0.23500
697222;-0.20500
700000;-0.17500
702778;-0.19500
705555;-0.22500
708333;-0.27500
711111;-0.29500
713889;-0.29000
716666;-0.29500
719444;-0.31500
722222;-0.32500
725000;-0.34000
727778;-0.35000
730555;-0.33500
733333;-0.32500
736111;-0.32500
738889;-0.33500
741666;-0.35000
744444;-0.35000
747222;-0.34000
750000;-0.33500
752778;-0.33500
755555;-0.34000
758333;-0.35000
761111;-0.36500
763889;-0.34500
766666;-0.34000
769444;-0.35500
772222;-0.35000
775000;-0.35000
777778;-0.36500
780555;-0.35500
783333;-0.36500
786111;-0.40000
788889;-0.45000
791666;-0.48000
794444;-0.51500
797222;-0.50500
800000;-0.54000
802778;-0.58000
805555;-0.61000
808333;-0.57500
811111;-0.50500
813889;-0.38000
816666;-0.22500
819444;-0.05500
822222;0.13500
825000;0.39000
827778;0.69000
830555;0.96000
833333;1.11500
836111;1.13000
838889;0.95500
841666;0.52500
844444;0.00500
847222;-0.36000
850000;-0.48500
852778;-0.45000
855555;-0.38500
858333;-0.36500
861111;-0.35500
863889;-0.36000
866666;-0.37000
869444;-0.38000
872222;-0.36500
875000;-0.39000
877778;-0.40000
880555;-0.38500
883333;-0.38500
886111;-0.39000
888889;-0.39000
891666;-0.39000
894444;-0.40000
897222;-0.38500
900000;-0.37000
902778;-0.37500
905555;-0.38500
908333;-0.38500
911111;-0.39000
913889;-0.38500
916666;-0.37500
919444;-0.38000
922222;-0.39500
925000;-0.40000
927778;-0.40500
930555;-0.40500
933333;-0.39000
936111;-0.39500
938889;-0.39500
941666;-0.39500
944444;-0.41000
947222;-0.40000
950000;-0.39000
952778;-0.39000
955555;-0.39500
958333;-0.40500
961111;-0.40500
963889;-0.39000
966666;-0.36500
969444;-0.38000
972222;-0.39000
975000;-0.40000
977778;-0.40000
980555;-0.38500
983333;-0.38500
986111;-0.37500
988889;-0.39000
991666;-0.39500
994444;-0.41000
997222;-0.39500
1000000;-0.39000
1002777;-0.38500
1005555;-0.39500
1008333;-0.40000
1011111;-0.40500
1013889;-0.39500
1016666;-0.39000
1019444;-0.38000
1022222;-0.39000
1025000;-0.39000
1027777;-0.39500
1030555;-0.40000
1033333;-0.38000
1036111;-0.40000
1038889;-0.39500
1041666;-0.40500
1044444;-0.39500
1047222;-0.40000
1050000;-0.37500
1052777;-0.38000
1055555;-0.39000
1058333;-0.40000
1061111;-0.41000
1063889;-0.39500
1066666;-0.39500
1069444;-0.39500
1072222;-0.41000
1075000;-0.41000
1077777;-0.42000
1080555;-0.42000
1083333;-0.41500
1086111;-0.42000
1088889;-0.41500
1091666;-0.42000
1094444;-0.42500
1097222;-0.40500
1100000;-0.39500
1102777;-0.39500
1105555;-0.41000
1108333;-0.40000
1111111;-0.39500
1113889;-0.37000
1116666;-0.36500
1119444;-0.36000
1122222;-0.35500
1125000;-0.34000
1127777;-0.33500
1130555;-0.31500
1133333;-0.29000
1136111;-0.28500
1138889;-0.28500
1141666;-0.28000
1144444;-0.28000
1147222;-0.27000
1150000;-0.25500
1152777;-0.25000
1155555;-0.26000
1158333;-0.27500
1161111;-0.28000
1163889;-0.27000
1166666;-0.25500
1169444;-0.26000
1172222;-0.27500
1175000;-0.27500
1177777;-0.27000
1180555;-0.26500
1183333;-0.26000
1186111;-0.26500
1188889;-0.27000
1191666;-0.27000
1194444;-0.28500
1197222;-0.27000
1200000;-0.26500
1202777;-0.26500
1205555;-0.27000
1208333;-0.28000
1211111;-0.28000
1213889;-0.28500
1216666;-0.26500
1219444;-0.27000
1222222;-0.27000
1225000;-0.27500
1227777;-0.28000
1230555;-0.27000
1233333;-0.28000
1236111;-0.26500
1238889;-0.29000
1241666;-0.28500
1244444;-0.28500
1247222;-0.28000
1250000;-0.27500
1252777;-0.28000
1255555;-0.28500
1258333;-0.30000
1261111;-0.30500
1263889;-0.29000
1266666;-0.28500
1269444;-0.29000
1272222;-0.30500
1275000;-0.30500
1277777;-0.31000
1280555;-0.30500
1283333;-0.29500
1286111;-0.30000
1288889;-0.31000
1291666;-0.31500
1294444;-0.31000
1297222;-0.30500
1300000;-0.29500
1302777;-0.30500
1305555;-0.30000
1308333;-0.31500
1311111;-0.32500
1313889;-0.32500
1316666;-0.32000
1319444;-0.31500
1322222;-0.32000
1325000;-0.31500
1327777;-0.33500
1330555;-0.31500
1333333;-0.30000
1336111;-0.31500
1338889;-0.33000
1341666;-0.31500
1344444;-0.32500
1347222;-0.31500
1350000;-0.30000
1352777;-0.30500
1355555;-0.31000
1358333;-0.32000
1361111;-0.33000
1363889;-0.32000
1366666;-0.31000
1369444;-0.30000
1372222;-0.31000
1375000;-0.31500
1377777;-0.30000
1380555;-0.30000
1383333;-0.30000
1386111;-0.28500
1388888;-0.29500
1391666;-0.31500
1394444;-0.32000
1397222;-0.31500
1400000;-0.29500
1402777;-0.30000
1405555;-0.30000
1408333;-0.30500
1411111;-0.29000
1413888;-0.28000
1416666;-0.25500
1419444;-0.23500
1422222;-0.24500
1425000;-0.24000
1427777;-0.23500
1430555;-0.21500
1433333;-0.20500
1436111;-0.21000
1438888;-0.20000
1441666;-0.19500
1444444;-0.19500
1447222;-0.17500
1450000;-0.16500
1452777;-0.16000
1455555;-0.19000
1458333;-0.19500
1461111;-0.21500
1463888;-0.21500
1466666;-0.20000
1469444;-0.19500
1472222;-0.20500
1475000;-0.21000
1477777;-0.23500
1480555;-0.23000
1483333;-0.21500
1486111;-0.21500
1488888;-0.21000
1491666;-0.18500
1494444;-0.18500
1497222;-0.19000
1500000;-0.21500
1502777;-0.25000
1505555;-0.25500
1508333;-0.27500
1511111;-0.29500
1513888;-0.30500
1516666;-0.30000
1519444;-0.30000
1522222;-0.31500
1525000;-0.31500
1527777;-0.31000
1530555;-0.30500
1533333;-0.29000
1536111;-0.30500
1538888;-0.30500
1541666;-0.31000
1544444;-0.32000
1547222;-0.31500
1550000;-0.31000
1552777;-0.32000
1555555;-0.32000
1558333;-0.33500
1561111;-0.33500
1563888;-0.33500
1566666;-0.32500
1569444;-0.33000
1572222;-0.32500
1575000;-0.34500
1577777;-0.38000
1580555;-0.40000
1583333;-0.44000
1586111;-0.47500
1588888;-0.50000
1591666;-0.54500
1594444;-0.58500
1597222;-0.54500
1600000;-0.45000
1602777;-0.34000
1605555;-0.21000
1608333;-0.05000
1611111;0.12000
1613888;0.37000
1616666;0.66500
1619444;0.92000
1622222;1.09500
1625000;1.15000
1627777;1.04500
1630555;0.72500
1633333;0.25500
1636111;-0.18000
1638888;-0.42000
1641666;-0.44000
1644444;-0.38500
1647222;-0.32500
1650000;-0.30000
1652777;-0.32000
1655555;-0.33500
1658333;-0.34500
1661111;-0.34500
1663888;-0.34000
1666666;-0.33500
1669444;-0.35000
1672222;-0.35500
1675000;-0.35500
1677777;-0.36000
1680555;-0.35000
1683333;-0.34500
1686111;-0.33500
1688888;-0.33500
1691666;-0.36000
1694444;-0.36500
1697222;-0.35000
1700000;-0.34500
1702777;-0.35000
1705555;-0.35500
1708333;-0.36000
1711111;-0.36500
1713888;-0.36000
1716666;-0.34500
1719444;-0.34000
1722222;-0.35500
1725000;-0.36500
1727777;-0.35500
1730555;-0.35000
1733333;-0.34500
1736111;-0.35500
1738888;-0.36000
1741666;-0.36500
1744444;-0.36500
1747222;-0.36000
1750000;-0.34000
1752777;-0.35000
1755555;-0.35500
1758333;-0.36000
1761111;-0.36000
1763888;-0.34500
1766666;-0.34000
1769444;-0.34500
1772222;-0.34500
1775000;-0.35500
1777777;-0.36500
1780555;-0.35000
1783333;-0.34500
1786111;-0.34500
1788888;-0.35000
1791666;-0.36000
1794444;-0.37000
1797222;-0.35000
1799999;-0.34000
1802777;-0.35000
1805555;-0.35000
1808333;-0.36000
1811111;-0.36500
1813888;-0.35000
1816666;-0.34000
1819444;-0.34500
1822222;-0.35500
1824999;-0.36500
1827777;-0.36000
1830555;-0.36500
1833333;-0.35000
1836111;-0.35500
1838888;-0.35500
1841666;-0.35500
1844444;-0.37000
1847222;-0.35000
1849999;-0.35500
1852777;-0.36500
1855555;-0.35500
1858333;-0.37500
1861111;-0.38000
1863888;-0.38000
1866666;-0.37500
1869444;-0.37500
1872222;-0.39000
1874999;-0.38500
1877777;-0.39000
1880555;-0.37500
1883333;-0.37000
1886111;-0.37000
1888888;-0.37500
1891666;-0.38000
1894444;-0.38000
1897222;-0.36000
1899999;-0.34500
1902777;-0.33500
1905555;-0.33000
1908333;-0.32500
1911111;-0.33000
1913888;-0.30500
1916666;-0.28000
1919444;-0.28000
1922222;-0.27500
1924999;-0.27000
1927777;-0.26500
1930555;-0.24500
1933333;-0.22500
1936111;-0.22000
1938888;-0.24500
1941666;-0.24500
1944444;-0.25000
1947222;-0.23500
1949999;-0.22500
1952777;-0.23500
1955555;-0.23000
1958333;-0.23500
1961111;-0.23000
1963888;-0.23000
1966666;-0.22000
1969444;-0.23000
1972222;-0.23000
1974999;-0.24500
1977777;-0.24000
1980555;-0.23500
1983333;-0.22000
1986111;-0.23000
1988888;-0.24000
1991666;-0.24000
1994444;-0.24500
1997222;-0.24000
1999999;-0.23000
2002777;-0.23500
2005555;-0.23500
2008333;-0.23500
2011111;-0.24500
2013888;-0.24000
2016666;-0.23000
2019444;-0.23000
2022222;-0.23500
2024999;-0.25500
2027777;-0.25500
2030555;-0.25000
2033333;-0.24500
2036111;-0.26000
2038888;-0.26500
2041666;-0.26500
2044444;-0.26500
2047222;-0.26000
2049999;-0.26000
2052777;-0.26000
2055555;-0.26000
2058333;-0.27500
2061111;-0.26500
2063888;-0.27000
2066666;-0.25000
2069444;-0.26000
2072222;-0.26500
2074999;-0.27500
2077777;-0.28500
2080555;-0.27500
2083333;-0.26500
2086111;-0.26000
2088888;-0.28000
2091666;-0.28000
2094444;-0.28500
2097222;-0.29000
2099999;-0.27500
2102777;-0.27500
2105555;-0.28500
2108333;-0.30000
2111111;-0.29500
2113888;-0.29000
2116666;-0.27500
2119444;-0.28000
2122222;-0.28000
2124999;-0.29500
2127777;-0.29500
2130555;-0.27500
2133333;-0.26500
2136111;-0.26500
2138888;-0.27000
2141666;-0.28500
2144444;-0.27500
2147222;-0.26500
2149999;-0.27000
2152777;-0.27000
2155555;-0.28500
2158333;-0.28500
2161111;-0.29000
2163888;-0.27000
2166666;-0.26500
2169444;-0.26000
2172222;-0.26000
2174999;-0.26500
2177777;-0.28000
2180555;-0.25500
2183333;-0.26000
2186110;-0.25500
2188888;-0.26500
2191666;-0.27000
2194444;-0.27000
2197222;-0.26000
2199999;-0.26000
2202777;-0.24500
2205555;-0.25500
2208333;-0.27500
2211110;-0.27500
2213888;-0.26500
2216666;-0.24000
2219444;-0.23000
2222222;-0.23000
2224999;-0.21000
2227777;-0.20000
2230555;-0.18500
2233333;-0.18500
2236110;-0.18500
2238888;-0.18500
2241666;-0.18500
2244444;-0.19000
2247222;-0.16000
2249999;-0.15500
2252777;-0.16500
2255555;-0.15500
2258333;-0.16000
2261110;-0.17500
2263888;-0.17000
2266666;-0.17000
2269444;-0.18000
2272222;-0.17000
2274999;-0.19000
2277777;-0.18000
2280555;-0.18000
2283333;-0.17500
2286110;-0.16500
2288888;-0.15000
2291666;-0.14500
2294444;-0.15500
2297222;-0.18000
2299999;-0.20000
2302777;-0.22000
2305555;-0.22500
2308333;-0.24500
2311110;-0.27500
2313888;-0.27000
2316666;-0.26500
2319444;-0.27500
2322222;-0.29000
2324999;-0.29500
2327777;-0.29500
2330555;-0.29000
2333333;-0.27500
2336110;-0.27500
2338888;-0.28000
2341666;-0.30000
2344444;-0.30000
2347222;-0.29500
2349999;-0.28000
2352777;-0.29000
2355555;-0.29500
2358333;-0.29500
2361110;-0.30000
2363888;-0.29000
2366666;-0.29000
2369444;-0.28000
2372222;-0.28000
2374999;-0.29500
2377777;-0.29000
2380555;-0.30000
2383333;-0.29500
2386110;-0.31000
2388888;-0.35500
2391666;-0.41500
2394444;-0.45000
2397222;-0.48000
2399999;-0.51000
2402777;-0.49500
2405555;-0.39000
2408333;-0.24500
2411110;-0.05000
2413888;0.16500
2416666;0.45000
2419444;0.75500
2422222;0.96000
2424999;1.03500
2427777;0.94500
2430555;0.62000
2433333;0.17500
2436110;-0.20000
2438888;-0.41500
2441666;-0.43500
2444444;-0.39000
2447222;-0.32500
2449999;-0.30500
2452777;-0.31500
2455555;-0.34000
2458333;-0.34000
2461110;-0.33500
2463888;-0.34000
2466666;-0.32500
2469444;-0.34000
2472222;-0.34500
2474999;-0.35500
2477777;-0.36000
2480555;-0.34500
2483333;-0.34000
2486110;-0.34000
2488888;-0.34500
2491666;-0.35500
2494444;-0.35500
2497222;-0.33500
2499999;-0.33500
2502777;-0.34000
2505555;-0.34500
2508333;-0.35000
2511110;-0.35000
2513888;-0.33500
2516666;-0.33500
2519444;-0.34500
2522222;-0.33500
2524999;-0.34500
2527777;-0.35000
2530555;-0.34500
2533333;-0.34000
2536110;-0.34000
2538888;-0.35000
2541666;-0.34500
2544444;-0.34500
2547222;-0.34000
2549999;-0.34500
2552777;-0.34000
2555555;-0.35000
2558333;-0.35500
2561110;-0.36000
2563888;-0.35500
2566666;-0.34000
2569444;-0.34500
2572222;-0.34500
2574999;-0.35000
2577777;-0.35500
2580555;-0.34500
2583333;-0.35000
2586110;-0.35500
2588888;-0.36500
2591666;-0.36000
2594444;-0.35500
2597221;-0.34500
2599999;-0.34500
2602777;-0.34000
2605555;-0.35000
2608333;-0.36500
2611110;-0.36500
2613888;-0.36000
2616666;-0.36000
2619444;-0.37000
2622221;-0.37500
2624999;-0.38500
2627777;-0.38000
2630555;-0.36500
2633333;-0.36000
2636110;-0.35500
2638888;-0.37000
2641666;-0.37500
2644444;-0.39000
2647221;-0.38500
2649999;-0.37500
2652777;-0.37000
2655555;-0.36500
2658333;-0.39000
2661110;-0.40000
2663888;-0.40000
2666666;-0.39000
2669444;-0.37500
2672221;-0.39000
2674999;-0.40000
2677777;-0.40500
2680555;-0.38500
2683333;-0.39000
2686110;-0.39500
2688888;-0.40000
2691666;-0.40000
2694444;-0.40000
2697221;-0.38000
2699999;-0.36500
2702777;-0.35000
2705555;-0.36000
2708333;-0.34500
2711110;-0.35000
2713888;-0.33000
2716666;-0.32000
2719444;-0.31000
2722221;-0.32500
2724999;-0.32000
2727777;-0.31000
2730555;-0.29500
2733333;-0.29000
2736110;-0.29500
2738888;-0.29500
2741666;-0.29500
2744444;-0.29000
2747221;-0.27500
2749999;-0.26000
2752777;-0.26500
2755555;-0.27500
2758333;-0.28000
2761110;-0.29000
2763888;-0.28000
2766666;-0.25500
2769444;-0.26000
2772221;-0.27000
2774999;-0.28000
2777777;-0.29000
2780555;-0.28000
2783333;-0.29000
2786110;-0.28500
2788888;-0.30000
2791666;-0.29500
2794444;-0.29500
2797221;-0.28500
2799999;-0.29000
2802777;-0.29500
2805555;-0.30500
2808333;-0.31500
2811110;-0.32000
2813888;-0.29000
2816666;-0.30000
2819444;-0.29000
2822221;-0.30000
2824999;-0.30000
2827777;-0.31000
2830555;-0.30500
2833333;-0.29000
2836110;-0.30500
2838888;-0.30500
2841666;-0.31500
2844444;-0.32500
2847221;-0.32500
2849999;-0.32500
2852777;-0.32500
2855555;-0.34000
2858333;-0.35000
2861110;-0.34000
2863888;-0.32000
2866666;-0.32000
2869444;-0.33500
2872221;-0.34500
2874999;-0.35000
2877777;-0.36000
2880555;-0.34500
2883333;-0.33500
2886110;-0.34000
2888888;-0.33500
2891666;-0.34500
2894444;-0.34500
2897221;-0.33000
2899999;-0.33500
2902777;-0.32500
2905555;-0.34000
2908333;-0.36000
2911110;-0.35000
2913888;-0.35000
2916666;-0.33500
2919444;-0.32000
2922221;-0.32000
2924999;-0.34000
2927777;-0.34000
2930555;-0.32500
2933333;-0.33000
2936110;-0.33000
2938888;-0.34500
2941666;-0.36000
2944444;-0.35500
2947221;-0.34000
2949999;-0.33000
2952777;-0.33500
2955555;-0.34500
2958333;-0.35000
2961110;-0.35000
2963888;-0.34000
2966666;-0.31500
2969444;-0.33500
2972221;-0.34500
2974999;-0.34500
2977777;-0.35000
2980555;-0.34500
2983332;-0.32000
2986110;-0.33000
2988888;-0.32000
2991666;-0.31500
2994444;-0.29500
2997221;-0.28000
2999999;-0.27500
3002777;-0.28500
3005555;-0.28500
3008332;-0.27000
3011110;-0.26500
3013888;-0.24500
3016666;-0.22500
3019444;-0.22500
3022221;-0.24500
3024999;-0.23500
3027777;-0.24000
3030555;-0.24500
3033332;-0.24000
3036110;-0.24000
3038888;-0.25500
3041666;-0.27000
3044444;-0.25000
3047221;-0.24500
3049999;-0.26000
3052777;-0.27500
3055555;-0.29500
3058332;-0.29500
3061110;-0.27000
3063888;-0.23000
3066666;-0.22500
3069444;-0.22500
3072221;-0.25000
3074999;-0.28000
3077777;-0.28000
3080555;-0.29500
3083332;-0.31000
3086110;-0.34500
3088888;-0.36500
3091666;-0.38500
3094444;-0.39500
3097221;-0.37000
3099999;-0.36000
3102777;-0.36000
3105555;-0.39500
3108332;-0.39500
3111110;-0.42000
3113888;-0.40500
3116666;-0.38500
3119444;-0.37000
3122221;-0.37500
3124999;-0.38500
3127777;-0.38000
3130555;-0.39500
3133332;-0.39000
3136110;-0.39500
3138888;-0.40000
3141666;-0.41000
3144444;-0.40500
3147221;-0.39500
3149999;-0.38000
3152777;-0.38500
3155555;-0.40000
3158332;-0.44000
3161110;-0.48500
3163888;-0.50500
3166666;-0.51500
