time_ms;ecg_value
0;0.88500
2778;0.94500
5556;0.85500
8333;0.53000
11111;0.12500
13889;-0.22500
16667;-0.45000
19444;-0.52500
22222;-0.50500
25000;-0.47000
27778;-0.44500
30556;-0.42000
33333;-0.42500
36111;-0.39500
38889;-0.37000
41667;-0.36500
44444;-0.38500
47222;-0.39500
50000;-0.40000
52778;-0.39500
55556;-0.40000
58333;-0.39500
61111;-0.41500
63889;-0.41500
66667;-0.40000
69444;-0.38500
72222;-0.38500
75000;-0.39500
77778;-0.41000
80556;-0.41500
83333;-0.43000
86111;-0.43500
88889;-0.43000
91667;-0.40500
94444;-0.38500
97222;-0.38500
100000;-0.40500
102778;-0.41000
105556;-0.43000
108333;-0.44500
111111;-0.43500
113889;-0.42500
116667;-0.41000
119444;-0.39000
122222;-0.37500
125000;-0.40500
127778;-0.44000
130556;-0.45000
133333;-0.43500
136111;-0.42000
138889;-0.42500
141667;-0.42500
144444;-0.41500
147222;-0.40000
150000;-0.40000
152778;-0.40500
155556;-0.39500
158333;-0.39500
161111;-0.41500
163889;-0.41500
166667;-0.41500
169444;-0.41000
172222;-0.39500
175000;-0.39000
177778;-0.38500
180556;-0.40000
183333;-0.41000
186111;-0.40000
188889;-0.39000
191667;-0.40000
194444;-0.41500
197222;-0.41500
200000;-0.40500
202778;-0.39000
205555;-0.38500
208333;-0.38500
211111;-0.39000
213889;-0.40000
216667;-0.41000
219444;-0.41500
222222;-0.39000
225000;-0.40000
227778;-0.41000
230555;-0.42500
233333;-0.43500
236111;-0.42000
238889;-0.39500
241667;-0.39500
244444;-0.39000
247222;-0.40000
250000;-0.42500
252778;-0.42000
255555;-0.41000
258333;-0.41000
261111;-0.42500
263889;-0.42500
266667;-0.44500
269444;-0.44000
272222;-0.44000
275000;-0.43000
277778;-0.44000
280555;-0.45500
283333;-0.45500
286111;-0.43500
288889;-0.41500
291667;-0.41000
294444;-0.41000
297222;-0.41000
300000;-0.39500
302778;-0.37000
305555;-0.33000
308333;-0.31500
311111;-0.32000
313889;-0.32500
316667;-0.32000
319444;-0.32000
322222;-0.30000
325000;-0.29000
327778;-0.30000
330555;-0.29500
333333;-0.29500
336111;-0.30000
338889;-0.27500
341667;-0.28500
344444;-0.27500
347222;-0.27500
350000;-0.27500
352778;-0.27500
355555;-0.28500
358333;-0.29000
361111;-0.29500
363889;-0.30500
366667;-0.29500
369444;-0.28500
372222;-0.29000
375000;-0.28500
377778;-0.28500
380555;-0.29500
383333;-0.30000
386111;-0.29000
388889;-0.27500
391667;-0.29000
394444;-0.29000
397222;-0.30000
400000;-0.30000
402778;-0.28500
405555;-0.28500
408333;-0.27000
411111;-0.27500
413889;-0.29500
416667;-0.30000
419444;-0.28000
422222;-0.27500
425000;-0.27500
427778;-0.30000
430555;-0.30500
433333;-0.30500
436111;-0.31000
438889;-0.31000
441667;-0.33000
444444;-0.33500
447222;-0.33000
450000;-0.33500
452778;-0.32500
455555;-0.31000
458333;-0.32000
461111;-0.32000
463889;-0.32000
466667;-0.32500
469444;-0.32500
472222;-0.31000
475000;-0.31500
477778;-0.32000
480555;-0.30500
483333;-0.32000
486111;-0.30500
488889;-0.31000
491667;-0.31500
494444;-0.32500
497222;-0.32000
500000;-0.31000
502778;-0.30500
505555;-0.30500
508333;-0.30500
511111;-0.30500
513889;-0.30500
516667;-0.30000
519444;-0.29000
522222;-0.26500
525000;-0.24500
527778;-0.24000
530555;-0.24500
533333;-0.24500
536111;-0.24000
538889;-0.24500
541667;-0.23500
544444;-0.24500
547222;-0.26000
550000;-0.24000
552778;-0.22000
555555;-0.21000
558333;-0.20500
561111;-0.20500
563889;-0.21000
566667;-0.18500
569444;-0.17000
572222;-0.17500
575000;-0.19000
577778;-0.21000
580555;-0.21500
583333;-0.23000
586111;-0.22500
588889;-0.21500
591667;-0.20500
594444;-0.22000
597222;-0.22000
600000;-0.22000
602778;-0.19000
605555;-0.17500
608333;-0.19000
611111;-0.23500
613889;-0.27000
616666;-0.29500
619444;-0.29000
622222;-0.29500
625000;-0.32000
627778;-0.34000
630555;-0.34500
633333;-0.36000
636111;-0.35500
638889;-0.34000
641666;-0.33000
644444;-0.33500
647222;-0.34500
650000;-0.34500
652778;-0.34500
655555;-0.33000
658333;-0.33500
661111;-0.34500
663889;-0.34000
666666;-0.36000
669444;-0.35000
672222;-0.34500
675000;-0.35000
677778;-0.35000
680555;-0.36000
683333;-0.37000
686111;-0.35500
688889;-0.36000
691666;-0.39500
694444;-0.45000
697222;-0.48000
700000;-0.48500
702778;-0.48500
705555;-0.50500
708333;-0.54500
711111;-0.55500
713889;-0.50000
716666;-0.36500
719444;-0.20500
722222;-0.04000
725000;0.15000
727778;0.41000
730555;0.69500
733333;0.92500
736111;1.10000
738889;1.15000
741666;1.04500
744444;0.75500
747222;0.33500
750000;-0.09000
752778;-0.37500
755555;-0.50000
758333;-0.49000
761111;-0.46000
763889;-0.43000
766666;-0.39000
769444;-0.37000
772222;-0.36000
775000;-0.37000
777778;-0.39000
780555;-0.39000
783333;-0.39500
786111;-0.39000
788889;-0.39000
791666;-0.40500
794444;-0.40500
797222;-0.40500
800000;-0.40500
802778;-0.39000
805555;-0.38500
808333;-0.39000
811111;-0.40500
813889;-0.40000
816666;-0.40500
819444;-0.40000
822222;-0.39000
825000;-0.39000
827778;-0.40000
830555;-0.40000
833333;-0.42000
836111;-0.41500
838889;-0.39500
841666;-0.39500
844444;-0.40500
847222;-0.41500
850000;-0.42000
852778;-0.42500
855555;-0.40500
858333;-0.41000
861111;-0.41500
863889;-0.42500
866666;-0.42500
869444;-0.42000
872222;-0.40000
875000;-0.40000
877778;-0.42000
880555;-0.42500
883333;-0.42000
886111;-0.40500
888889;-0.41500
891666;-0.42000
894444;-0.41500
897222;-0.42000
900000;-0.43000
902778;-0.42500
905555;-0.40000
908333;-0.42000
911111;-0.42500
913889;-0.42500
916666;-0.43000
919444;-0.42000
922222;-0.41000
925000;-0.43000
927778;-0.43000
930555;-0.43500
933333;-0.43500
936111;-0.43000
938889;-0.42500
941666;-0.43000
944444;-0.43500
947222;-0.45500
950000;-0.45000
952778;-0.44500
955555;-0.44500
958333;-0.43000
961111;-0.44500
963889;-0.46000
966666;-0.45000
969444;-0.44500
972222;-0.43500
975000;-0.43500
977778;-0.45000
980555;-0.47000
983333;-0.46500
986111;-0.46500
988889;-0.45000
991666;-0.45000
994444;-0.46000
997222;-0.47000
1000000;-0.47000
1002777;-0.45500
1005555;-0.44000
1008333;-0.44000
1011111;-0.46000
1013889;-0.46000
1016666;-0.45000
1019444;-0.43500
1022222;-0.41500
1025000;-0.41500
1027777;-0.41500
1030555;-0.41500
1033333;-0.41000
1036111;-0.38500
1038889;-0.37000
1041666;-0.37500
1044444;-0.38500
1047222;-0.38500
1050000;-0.36000
1052777;-0.36000
1055555;-0.34000
1058333;-0.33500
1061111;-0.33000
1063889;-0.33500
1066666;-0.33500
1069444;-0.33000
1072222;-0.32000
1075000;-0.32500
1077777;-0.34000
1080555;-0.35500
1083333;-0.33500
1086111;-0.33500
1088889;-0.32500
1091666;-0.32500
1094444;-0.33500
1097222;-0.33500
1100000;-0.34000
1102777;-0.34000
1105555;-0.34500
1108333;-0.33000
1111111;-0.35500
1113889;-0.36000
1116666;-0.36500
1119444;-0.35000
1122222;-0.34000
1125000;-0.33500
1127777;-0.36000
1130555;-0.35000
1133333;-0.35000
1136111;-0.34000
1138889;-0.32500
1141666;-0.33500
1144444;-0.35000
1147222;-0.36500
1150000;-0.36500
1152777;-0.35500
1155555;-0.35000
1158333;-0.35000
1161111;-0.36500
1163889;-0.37000
1166666;-0.38500
1169444;-0.37000
1172222;-0.35500
1175000;-0.37000
1177777;-0.37500
1180555;-0.39500
1183333;-0.41500
1186111;-0.41000
1188889;-0.39000
1191666;-0.39000
1194444;-0.39500
1197222;-0.41500
1200000;-0.39500
1202777;-0.39500
1205555;-0.38500
1208333;-0.39500
1211111;-0.40000
1213889;-0.40000
1216666;-0.40500
1219444;-0.38500
1222222;-0.38000
1225000;-0.38500
1227777;-0.37500
1230555;-0.38000
1233333;-0.38500
1236111;-0.38500
1238889;-0.39000
1241666;-0.39500
1244444;-0.38000
1247222;-0.39500
1250000;-0.39000
1252777;-0.37500
1255555;-0.36000
1258333;-0.36000
1261111;-0.36500
1263889;-0.35500
1266666;-0.33500
1269444;-0.31500
1272222;-0.30500
1275000;-0.31000
1277777;-0.32000
1280555;-0.32500
1283333;-0.31500
1286111;-0.28500
1288889;-0.27000
1291666;-0.27500
1294444;-0.27000
1297222;-0.27500
1300000;-0.28500
1302777;-0.28000
1305555;-0.27500
1308333;-0.27500
1311111;-0.28500
1313889;-0.29500
1316666;-0.28500
1319444;-0.29000
1322222;-0.28000
1325000;-0.27500
1327777;-0.24500
1330555;-0.23500
1333333;-0.26500
1336111;-0.29000
1338889;-0.31500
1341666;-0.33500
1344444;-0.34000
1347222;-0.36000
1350000;-0.38000
1352777;-0.39000
1355555;-0.39500
1358333;-0.40000
1361111;-0.41000
1363889;-0.41000
1366666;-0.40500
1369444;-0.40000
1372222;-0.40000
1375000;-0.39000
1377777;-0.39500
1380555;-0.40000
1383333;-0.41500
1386111;-0.40000
1388888;-0.39000
1391666;-0.39000
1394444;-0.39500
1397222;-0.41500
1400000;-0.42000
1402777;-0.40500
1405555;-0.40000
1408333;-0.43000
1411111;-0.47000
1413888;-0.51500
1416666;-0.53500
1419444;-0.55000
1422222;-0.57000
1425000;-0.58500
1427777;-0.52000
1430555;-0.36500
1433333;-0.18500
1436111;0.02500
1438888;0.22000
1441666;0.47500
1444444;0.75000
1447222;0.95000
1450000;1.07000
1452777;1.15500
1455555;1.23000
1458333;1.27000
1461111;1.20000
1463888;0.94000
1466666;0.49500
1469444;0.00500
1472222;-0.35500
1475000;-0.52000
1477777;-0.51000
1480555;-0.44000
1483333;-0.39500
1486111;-0.38500
1488888;-0.39000
1491666;-0.40000
1494444;-0.40000
1497222;-0.41500
1500000;-0.42500
1502777;-0.43500
1505555;-0.42500
1508333;-0.42500
1511111;-0.43000
1513888;-0.43500
1516666;-0.45500
1519444;-0.44500
1522222;-0.43500
1525000;-0.43500
1527777;-0.45000
1530555;-0.45000
1533333;-0.44500
1536111;-0.44500
1538888;-0.43500
1541666;-0.43000
1544444;-0.43500
1547222;-0.44000
1550000;-0.44000
1552777;-0.44000
1555555;-0.43000
1558333;-0.43000
1561111;-0.44500
1563888;-0.44000
1566666;-0.44000
1569444;-0.43500
1572222;-0.43000
1575000;-0.43000
1577777;-0.44500
1580555;-0.46000
1583333;-0.45000
1586111;-0.44500
1588888;-0.43500
1591666;-0.43500
1594444;-0.43500
1597222;-0.43500
1600000;-0.44000
1602777;-0.43500
1605555;-0.42500
1608333;-0.43500
1611111;-0.43000
1613888;-0.44000
1616666;-0.43500
1619444;-0.43000
1622222;-0.40500
1625000;-0.41000
1627777;-0.41000
1630555;-0.42000
1633333;-0.43000
1636111;-0.40500
1638888;-0.38500
1641666;-0.39000
1644444;-0.40000
1647222;-0.40500
1650000;-0.42000
1652777;-0.41500
1655555;-0.40000
1658333;-0.40500
1661111;-0.42000
1663888;-0.41500
1666666;-0.42500
1669444;-0.41500
1672222;-0.41500
1675000;-0.42000
1677777;-0.44000
1680555;-0.43500
1683333;-0.43500
1686111;-0.42500
1688888;-0.40500
1691666;-0.41000
1694444;-0.41500
1697222;-0.42000
1700000;-0.42000
1702777;-0.41000
1705555;-0.41500
1708333;-0.40500
1711111;-0.40000
1713888;-0.40000
1716666;-0.39500
1719444;-0.38500
1722222;-0.36500
1725000;-0.36000
1727777;-0.37500
1730555;-0.36000
1733333;-0.35500
1736111;-0.35000
1738888;-0.34500
1741666;-0.34000
1744444;-0.34000
1747222;-0.33500
1750000;-0.34000
1752777;-0.33000
1755555;-0.31500
1758333;-0.31500
1761111;-0.30000
1763888;-0.31000
1766666;-0.31500
1769444;-0.30000
1772222;-0.29000
1775000;-0.30000
1777777;-0.30500
1780555;-0.30500
1783333;-0.30000
1786111;-0.29000
1788888;-0.28500
1791666;-0.30000
1794444;-0.30500
1797222;-0.31000
1799999;-0.31000
1802777;-0.30500
1805555;-0.30000
1808333;-0.32000
1811111;-0.31500
1813888;-0.31500
1816666;-0.33000
1819444;-0.31500
1822222;-0.31000
1824999;-0.31000
1827777;-0.31500
1830555;-0.32000
1833333;-0.31000
1836111;-0.30500
1838888;-0.29500
1841666;-0.30500
1844444;-0.32000
1847222;-0.31000
1849999;-0.32500
1852777;-0.31500
1855555;-0.30500
1858333;-0.31500
1861111;-0.32500
1863888;-0.32500
1866666;-0.32500
1869444;-0.31500
1872222;-0.30500
1874999;-0.31500
1877777;-0.32500
1880555;-0.33500
1883333;-0.34000
1886111;-0.33000
1888888;-0.32000
1891666;-0.33500
1894444;-0.34000
1897222;-0.36000
1899999;-0.36500
1902777;-0.34500
1905555;-0.33500
1908333;-0.34000
1911111;-0.34500
1913888;-0.35000
1916666;-0.35000
1919444;-0.34000
1922222;-0.34500
1924999;-0.34000
1927777;-0.34500
1930555;-0.34500
1933333;-0.35000
1936111;-0.34500
1938888;-0.34000
1941666;-0.34500
1944444;-0.34000
1947222;-0.33000
1949999;-0.32500
1952777;-0.31500
1955555;-0.28000
1958333;-0.27500
1961111;-0.27000
1963888;-0.27500
1966666;-0.27000
1969444;-0.25500
1972222;-0.23000
1974999;-0.22500
1977777;-0.22000
1980555;-0.23000
1983333;-0.23000
1986111;-0.23000
1988888;-0.21500
1991666;-0.23000
1994444;-0.24500
1997222;-0.26500
1999999;-0.27000
2002777;-0.26000
2005555;-0.25000
2008333;-0.25500
2011111;-0.27000
2013888;-0.26000
2016666;-0.24500
2019444;-0.21000
2022222;-0.22500
2024999;-0.26000
2027777;-0.30000
2030555;-0.31500
2033333;-0.32500
2036111;-0.32500
2038888;-0.33500
2041666;-0.35500
2044444;-0.36500
2047222;-0.38500
2049999;-0.38000
2052777;-0.37500
2055555;-0.37000
2058333;-0.36500
2061111;-0.38000
2063888;-0.39500
2066666;-0.40000
2069444;-0.39000
2072222;-0.37500
2074999;-0.38500
2077777;-0.39500
2080555;-0.41500
2083333;-0.40000
2086111;-0.39000
2088888;-0.37500
2091666;-0.37000
2094444;-0.38000
2097222;-0.38000
2099999;-0.38000
2102777;-0.37500
2105555;-0.38000
2108333;-0.38500
2111111;-0.40500
2113888;-0.43500
2116666;-0.47000
2119444;-0.50000
2122222;-0.50500
2124999;-0.53500
2127777;-0.57500
2130555;-0.57000
2133333;-0.48000
2136111;-0.31000
2138888;-0.12500
2141666;0.08500
2144444;0.35500
2147222;0.64000
2149999;0.86500
2152777;0.94500
2155555;0.86000
2158333;0.49000
2161111;0.01000
2163888;-0.40000
2166666;-0.56000
2169444;-0.53000
2172222;-0.44500
2174999;-0.40000
2177777;-0.38500
2180555;-0.41000
2183333;-0.42000
2186110;-0.42000
2188888;-0.40000
2191666;-0.41000
2194444;-0.41500
2197222;-0.43500
2199999;-0.42000
2202777;-0.41500
2205555;-0.40500
2208333;-0.40000
2211110;-0.41000
2213888;-0.41500
2216666;-0.43000
2219444;-0.43000
2222222;-0.41000
2224999;-0.42000
2227777;-0.42500
2230555;-0.43500
2233333;-0.44500
2236110;-0.42000
2238888;-0.41000
2241666;-0.41500
2244444;-0.42500
2247222;-0.43000
2249999;-0.42500
2252777;-0.41500
2255555;-0.40500
2258333;-0.40000
2261110;-0.41500
2263888;-0.41500
2266666;-0.41000
2269444;-0.40000
2272222;-0.39500
2274999;-0.39500
2277777;-0.41500
2280555;-0.42000
2283333;-0.41500
2286110;-0.39000
2288888;-0.38500
2291666;-0.39500
2294444;-0.40500
2297222;-0.40500
2299999;-0.41500
2302777;-0.41000
2305555;-0.40000
2308333;-0.41000
2311110;-0.42000
2313888;-0.41500
2316666;-0.42000
2319444;-0.40000
2322222;-0.39000
2324999;-0.38500
2327777;-0.39000
2330555;-0.40500
2333333;-0.40500
2336110;-0.39000
2338888;-0.37500
2341666;-0.38000
2344444;-0.37500
2347222;-0.38000
2349999;-0.38500
2352777;-0.38500
2355555;-0.36500
2358333;-0.37000
2361110;-0.38500
2363888;-0.38500
2366666;-0.39500
2369444;-0.39000
2372222;-0.38500
2374999;-0.38500
2377777;-0.39000
2380555;-0.39000
2383333;-0.39500
2386110;-0.37500
2388888;-0.36000
2391666;-0.35000
2394444;-0.36000
2397222;-0.36500
2399999;-0.36000
2402777;-0.35000
2405555;-0.35000
2408333;-0.34500
2411110;-0.35000
2413888;-0.33500
2416666;-0.32500
2419444;-0.31500
2422222;-0.29500
2424999;-0.30000
2427777;-0.31000
2430555;-0.30000
2433333;-0.29500
2436110;-0.28500
2438888;-0.27000
2441666;-0.27000
2444444;-0.29000
2447222;-0.30500
2449999;-0.30000
2452777;-0.29500
2455555;-0.27500
2458333;-0.27500
2461110;-0.28000
2463888;-0.28000
2466666;-0.29500
2469444;-0.28500
2472222;-0.27000
2474999;-0.27000
2477777;-0.28000
2480555;-0.28500
2483333;-0.28000
2486110;-0.27500
2488888;-0.27000
2491666;-0.28000
2494444;-0.30000
2497222;-0.29500
2499999;-0.29000
2502777;-0.28500
2505555;-0.27000
2508333;-0.27500
2511110;-0.28500
2513888;-0.30000
2516666;-0.30000
2519444;-0.29000
2522222;-0.27500
2524999;-0.28500
2527777;-0.30500
2530555;-0.31000
2533333;-0.31500
2536110;-0.30500
2538888;-0.29000
2541666;-0.30000
2544444;-0.31500
2547222;-0.32000
2549999;-0.31500
2552777;-0.32000
2555555;-0.29000
2558333;-0.30000
2561110;-0.31000
2563888;-0.31500
2566666;-0.32000
2569444;-0.31000
2572222;-0.29500
2574999;-0.29000
2577777;-0.31000
2580555;-0.32000
2583333;-0.31000
2586110;-0.31500
2588888;-0.30000
2591666;-0.31000
2594444;-0.32000
2597221;-0.32000
2599999;-0.33000
2602777;-0.32000
2605555;-0.31500
2608333;-0.31500
2611110;-0.31000
2613888;-0.32500
2616666;-0.33000
2619444;-0.31500
2622221;-0.30500
2624999;-0.30000
2627777;-0.29000
2630555;-0.29500
2633333;-0.29500
2636110;-0.27000
2638888;-0.25000
2641666;-0.24000
2644444;-0.24000
2647221;-0.24000
2649999;-0.24000
2652777;-0.21500
2655555;-0.19500
2658333;-0.19500
2661110;-0.18000
2663888;-0.18000
2666666;-0.18500
2669444;-0.17000
2672221;-0.16500
2674999;-0.16000
2677777;-0.18000
2680555;-0.18000
2683333;-0.19000
2686110;-0.17500
2688888;-0.17500
2691666;-0.16500
2694444;-0.17500
2697221;-0.18000
2699999;-0.17000
2702777;-0.15500
2705555;-0.17500
2708333;-0.22500
2711110;-0.24000
2713888;-0.26000
2716666;-0.27000
2719444;-0.28000
2722221;-0.27500
2724999;-0.28000
2727777;-0.29500
2730555;-0.31000
2733333;-0.32000
2736110;-0.31000
2738888;-0.30500
2741666;-0.29500
2744444;-0.31000
2747221;-0.32000
2749999;-0.33500
2752777;-0.33000
2755555;-0.31000
2758333;-0.31500
2761110;-0.33000
2763888;-0.33000
2766666;-0.32500
2769444;-0.32000
2772221;-0.33000
2774999;-0.33000
2777777;-0.34000
2780555;-0.33500
2783333;-0.34000
2786110;-0.33500
2788888;-0.32500
2791666;-0.34000
2794444;-0.34500
2797221;-0.38000
2799999;-0.42500
2802777;-0.45500
2805555;-0.46000
2808333;-0.49500
2811110;-0.53000
2813888;-0.53500
2816666;-0.45500
2819444;-0.30500
2822221;-0.14000
2824999;0.04500
2827777;0.28000
2830555;0.55000
2833333;0.79000
2836110;0.92500
2838888;0.92500
2841666;0.71000
2844444;0.31000
2847221;-0.09500
2849999;-0.40500
2852777;-0.49500
2855555;-0.45500
2858333;-0.39000
2861110;-0.36000
2863888;-0.36000
2866666;-0.37000
2869444;-0.36000
2872221;-0.33500
2874999;-0.34000
2877777;-0.34500
2880555;-0.34500
2883333;-0.34500
2886110;-0.35000
2888888;-0.35000
2891666;-0.33000
2894444;-0.34000
2897221;-0.33000
2899999;-0.33000
2902777;-0.32000
2905555;-0.33000
2908333;-0.32500
2911110;-0.33000
2913888;-0.33500
2916666;-0.34500
2919444;-0.33500
2922221;-0.34500
2924999;-0.33000
2927777;-0.33000
2930555;-0.34500
2933333;-0.34000
2936110;-0.32000
2938888;-0.32000
2941666;-0.33000
2944444;-0.33500
2947221;-0.34000
2949999;-0.35000
2952777;-0.33500
2955555;-0.32500
2958333;-0.32500
2961110;-0.33500
2963888;-0.34500
2966666;-0.35000
2969444;-0.32000
2972221;-0.32000
2974999;-0.31000
2977777;-0.32500
2980555;-0.33500
2983332;-0.34500
2986110;-0.33500
2988888;-0.31500
2991666;-0.31000
2994444;-0.31000
2997221;-0.31000
2999999;-0.32000
3002777;-0.30000
3005555;-0.30000
3008332;-0.29000
3011110;-0.29000
3013888;-0.29500
3016666;-0.29500
3019444;-0.28500
3022221;-0.27000
3024999;-0.28000
3027777;-0.27000
3030555;-0.28000
3033332;-0.28000
3036110;-0.28500
3038888;-0.26500
3041666;-0.25500
3044444;-0.25500
3047221;-0.26000
3049999;-0.26500
3052777;-0.26500
3055555;-0.25000
3058332;-0.27000
3061110;-0.27500
3063888;-0.27500
3066666;-0.27000
3069444;-0.28500
3072221;-0.27500
3074999;-0.28500
3077777;-0.28500
3080555;-0.30000
3083332;-0.29000
3086110;-0.29000
3088888;-0.27500
3091666;-0.28000
3094444;-0.29000
3097221;-0.28500
3099999;-0.27500
3102777;-0.26000
3105555;-0.24500
3108332;-0.23500
3111110;-0.24000
3113888;-0.23500
3116666;-0.25500
3119444;-0.25000
3122221;-0.21500
3124999;-0.22500
3127777;-0.20500
3130555;-0.20000
3133332;-0.20500
3136110;-0.21000
3138888;-0.20000
3141666;-0.20500
3144444;-0.20500
3147221;-0.22000
3149999;-0.21000
3152777;-0.19000
3155555;-0.18500
3158332;-0.19000
3161110;-0.19000
3163888;-0.20000
3166666;-0.19500
3169444;-0.19500
3172221;-0.18500
3174999;-0.18500
3177777;-0.19500
3180555;-0.20000
3183332;-0.21500
3186110;-0.20500
3188888;-0.21000
3191666;-0.21000
3194444;-0.22000
3197221;-0.22500
3199999;-0.22500
3202777;-0.21000
3205555;-0.21000
3208332;-0.19500
3211110;-0.20000
3213888;-0.20000
3216666;-0.21500
3219444;-0.21500
3222221;-0.21000
3224999;-0.20500
3227777;-0.22500
3230555;-0.22500
3233332;-0.23500
3236110;-0.22500
3238888;-0.22000
3241666;-0.21500
3244444;-0.22500
3247221;-0.22000
3249999;-0.23500
3252777;-0.22500
3255555;-0.22500
3258332;-0.23000
3261110;-0.24500
3263888;-0.24500
3266666;-0.25000
3269444;-0.23500
3272221;-0.22000
3274999;-0.24000
3277777;-0.24000
3280555;-0.25500
3283332;-0.27000
3286110;-0.24500
3288888;-0.24500
3291666;-0.24000
3294444;-0.24000
3297221;-0.25000
3299999;-0.26500
3302777;-0.27000
3305555;-0.25000
3308332;-0.26500
3311110;-0.26500
3313888;-0.26500
3316666;-0.26000
3319444;-0.23500
3322221;-0.22500
3324999;-0.23000
3327777;-0.23500
3330555;-0.23000
3333332;-0.23500
3336110;-0.22500
3338888;-0.20000
3341666;-0.19500
3344444;-0.19000
3347221;-0.20000
3349999;-0.20500
3352777;-0.18500
3355555;-0.18000
3358332;-0.17000
3361110;-0.15500
3363888;-0.14500
3366666;-0.13500
3369444;-0.13000
3372221;-0.11500
3374999;-0.12500
3377777;-0.14500
3380555;-0.15500
3383332;-0.16000
3386110;-0.15500
3388888;-0.14500
3391666;-0.14000
3394443;-0.16000
3397221;-0.16000
3399999;-0.16500
3402777;-0.16500
3405555;-0.14500
3408332;-0.15000
3411110;-0.16000
3413888;-0.18000
3416666;-0.20500
3419443;-0.21500
3422221;-0.22000
3424999;-0.22000
3427777;-0.22500
3430555;-0.24000
3433332;-0.25500
3436110;-0.25000
3438888;-0.26000
3441666;-0.26000
3444443;-0.27500
3447221;-0.29000
3449999;-0.30500
3452777;-0.29000
3455555;-0.29500
3458332;-0.29500
3461110;-0.29500
3463888;-0.31500
3466666;-0.30000
3469443;-0.30000
3472221;-0.28500
3474999;-0.30000
3477777;-0.30500
3480555;-0.31000
3483332;-0.32000
3486110;-0.32000
3488888;-0.31000
3491666;-0.31500
3494443;-0.32000
3497221;-0.33000
3499999;-0.32000
3502777;-0.31000
3505555;-0.31500
3508332;-0.32000
3511110;-0.36000
3513888;-0.39500
3516666;-0.43000
3519443;-0.44000
3522221;-0.47000
3524999;-0.53000
3527777;-0.54000
3530555;-0.48000
3533332;-0.37000
3536110;-0.22000
3538888;-0.05500
3541666;0.15500
3544443;0.41000
3547221;0.66000
3549999;0.85000
3552777;0.96000
3555555;0.91500
3558332;0.67500
3561110;0.29000
3563888;-0.08000
3566666;-0.34000
3569443;-0.46500
3572221;-0.48000
3574999;-0.46500
3577777;-0.43000
3580555;-0.40000
3583332;-0.38000
3586110;-0.37500
3588888;-0.36000
3591666;-0.36500
3594443;-0.36000
3597221;-0.36500
3599999;-0.36000
3602777;-0.37000
3605555;-0.34500
3608332;-0.35000
3611110;-0.36000
3613888;-0.38000
3616666;-0.38000
3619443;-0.37000
3622221;-0.36500
3624999;-0.38000
3627777;-0.38500
3630555;-0.38000
3633332;-0.39000
3636110;-0.37000
3638888;-0.37000
3641666;-0.36000
3644443;-0.38000
3647221;-0.39500
3649999;-0.39000
3652777;-0.37500
3655555;-0.36500
3658332;-0.37000
3661110;-0.35500
3663888;-0.37000
3666666;-0.37500
3669443;-0.36000
3672221;-0.35500
3674999;-0.35000
3677777;-0.35000
3680555;-0.36500
3683332;-0.36500
3686110;-0.34500
3688888;-0.34500
3691666;-0.34500
3694443;-0.37000
3697221;-0.38000
3699999;-0.40000
3702777;-0.37000
3705555;-0.36000
3708332;-0.36500
3711110;-0.37000
3713888;-0.37500
3716666;-0.38000
3719443;-0.37000
3722221;-0.37000
3724999;-0.37000
3727777;-0.37000
3730555;-0.37500
3733332;-0.37000
3736110;-0.36500
3738888;-0.36000
3741666;-0.35500
3744443;-0.35500
3747221;-0.36500
3749999;-0.36500
3752777;-0.36000
3755555;-0.36000
3758332;-0.36500
3761110;-0.37000
3763888;-0.37500
3766666;-0.37500
3769443;-0.37500
3772221;-0.36500
3774999;-0.36500
3777777;-0.37000
3780554;-0.39000
3783332;-0.38000
3786110;-0.39000
3788888;-0.39000
3791666;-0.38000
3794443;-0.38500
3797221;-0.40500
3799999;-0.41500
3802777;-0.40500
3805554;-0.40000
3808332;-0.40000
3811110;-0.40500
3813888;-0.41500
3816666;-0.42500
3819443;-0.42000
3822221;-0.41500
3824999;-0.41000
3827777;-0.41000
3830554;-0.41000
3833332;-0.40500
3836110;-0.38500
3838888;-0.36500
3841666;-0.36500
3844443;-0.37000
3847221;-0.36500
3849999;-0.37000
3852777;-0.34000
3855554;-0.32000
3858332;-0.31500
3861110;-0.31500
3863888;-0.31000
3866666;-0.31500
3869443;-0.29000
3872221;-0.27000
3874999;-0.27500
3877777;-0.28500
3880554;-0.28500
3883332;-0.28500
3886110;-0.27000
3888888;-0.25500
3891666;-0.25500
3894443;-0.26500
3897221;-0.26500
3899999;-0.28000
3902777;-0.27500
3905554;-0.27000
3908332;-0.27000
3911110;-0.27000
3913888;-0.27500
3916666;-0.29000
3919443;-0.27500
3922221;-0.27000
3924999;-0.28000
3927777;-0.28000
3930554;-0.28000
3933332;-0.29000
3936110;-0.28000
3938888;-0.28000
3941666;-0.28000
3944443;-0.29000
3947221;-0.29500
3949999;-0.29500
3952777;-0.28500
3955554;-0.28000
3958332;-0.29000
3961110;-0.29500
3963888;-0.31000
3966666;-0.30500
3969443;-0.29000
3972221;-0.29000
3974999;-0.29500
3977777;-0.30000
3980554;-0.30500
3983332;-0.32500
3986110;-0.30000
3988888;-0.30000
3991666;-0.30500
3994443;-0.32000
3997221;-0.31000
3999999;-0.32500
4002777;-0.31000
4005554;-0.31000
4008332;-0.31500
4011110;-0.32500
4013888;-0.32000
4016666;-0.33000
4019443;-0.32000
4022221;-0.31500
4024999;-0.33000
4027777;-0.33000
4030554;-0.34500
4033332;-0.35000
4036110;-0.33000
4038888;-0.31000
4041666;-0.31500
4044443;-0.31500
4047221;-0.32500
4049999;-0.33500
4052777;-0.31000
4055554;-0.31000
4058332;-0.31000
4061110;-0.30000
4063888;-0.30000
4066666;-0.30000
4069443;-0.29000
4072221;-0.25500
4074999;-0.26000
4077777;-0.25500
4080554;-0.25500
4083332;-0.24500
4086110;-0.24000
4088888;-0.23000
4091666;-0.22000
4094443;-0.22000
4097221;-0.21000
4099999;-0.21000
4102777;-0.20000
4105554;-0.17500
4108332;-0.18000
4111110;-0.19500
4113888;-0.20000
4116666;-0.21500
4119443;-0.21000
4122221;-0.20500
4124999;-0.20500
4127777;-0.19500
4130554;-0.20500
4133332;-0.20500
4136110;-0.20000
4138888;-0.17000
4141666;-0.16000
4144443;-0.17500
4147221;-0.21000
4149999;-0.25500
4152777;-0.26000
4155554;-0.24500
4158332;-0.26000
4161110;-0.28000
4163888;-0.31000
4166666;-0.33000
4169443;-0.32000
4172221;-0.32500
4174999;-0.33500
4177777;-0.34500
4180554;-0.35500
4183332;-0.35000
4186110;-0.33500
4188888;-0.34000
4191665;-0.32500
4194443;-0.34500
4197221;-0.36000
4199999;-0.37000
4202777;-0.35500
4205554;-0.36000
4208332;-0.36000
4211110;-0.37500
4213888;-0.38000
4216665;-0.37500
4219443;-0.38000
4222221;-0.35500
4224999;-0.36000
4227777;-0.36500
4230554;-0.38000
4233332;-0.38500
4236110;-0.38500
4238888;-0.39500
4241665;-0.43500
4244443;-0.48500
4247221;-0.50500
4249999;-0.52000
4252777;-0.55000
4255554;-0.56500
4258332;-0.54500
4261110;-0.45500
4263888;-0.33000
4266665;-0.17000
4269443;0.01500
4272221;0.26000
4274999;0.54500
4277777;0.79500
4280554;0.92500
4283332;0.98500
