time_ms;ecg_value
0;-0.55000
2778;-0.58000
5556;-0.59000
8333;-0.56000
11111;-0.50500
13889;-0.39500
16667;-0.29000
19444;-0.20500
22222;-0.13000
25000;-0.06000
27778;0.02000
30556;0.18000
33333;0.40500
36111;0.67500
38889;0.90000
41667;1.04000
44444;1.09500
47222;1.01500
50000;0.74000
52778;0.31000
55556;-0.12500
58333;-0.40000
61111;-0.46000
63889;-0.41000
66667;-0.37000
69444;-0.32500
72222;-0.33500
75000;-0.34500
77778;-0.36500
80556;-0.36500
83333;-0.36500
86111;-0.35500
88889;-0.36000
91667;-0.36500
94444;-0.38500
97222;-0.38500
100000;-0.38000
102778;-0.38500
105556;-0.36500
108333;-0.37500
111111;-0.39000
113889;-0.40000
116667;-0.40000
119444;-0.38000
122222;-0.37500
125000;-0.39500
127778;-0.41000
130556;-0.41000
133333;-0.40000
136111;-0.37500
138889;-0.37500
141667;-0.38500
144444;-0.39000
147222;-0.39500
150000;-0.38000
152778;-0.37000
155556;-0.37000
158333;-0.38000
161111;-0.38500
163889;-0.39000
166667;-0.38500
169444;-0.37000
172222;-0.38000
175000;-0.40000
177778;-0.38500
180556;-0.39000
183333;-0.38500
186111;-0.37500
188889;-0.36500
191667;-0.38000
194444;-0.38500
197222;-0.38000
200000;-0.37500
202778;-0.37000
205555;-0.37000
208333;-0.39000
211111;-0.39500
213889;-0.38500
216667;-0.37500
219444;-0.37000
222222;-0.37500
225000;-0.38500
227778;-0.40000
230555;-0.39000
233333;-0.38000
236111;-0.37000
238889;-0.37500
241667;-0.37500
244444;-0.39000
247222;-0.39000
250000;-0.37500
252778;-0.36500
255555;-0.38000
258333;-0.38000
261111;-0.39000
263889;-0.38500
266667;-0.38000
269444;-0.36500
272222;-0.37500
275000;-0.38500
277778;-0.39500
280555;-0.41000
283333;-0.39000
286111;-0.39000
288889;-0.40000
291667;-0.39500
294444;-0.41000
297222;-0.40500
300000;-0.40500
302778;-0.39000
305555;-0.39000
308333;-0.39500
311111;-0.41000
313889;-0.41000
316667;-0.40000
319444;-0.39500
322222;-0.40000
325000;-0.39500
327778;-0.39000
330555;-0.38500
333333;-0.38500
336111;-0.36500
338889;-0.35000
341667;-0.35500
344444;-0.34500
347222;-0.34000
350000;-0.32000
352778;-0.31000
355555;-0.30500
358333;-0.30000
361111;-0.31000
363889;-0.31500
366667;-0.29000
369444;-0.27500
372222;-0.28000
375000;-0.27500
377778;-0.28000
380555;-0.27500
383333;-0.28000
386111;-0.26000
388889;-0.26500
391667;-0.28000
394444;-0.26500
397222;-0.27500
400000;-0.26000
402778;-0.26000
405555;-0.26500
408333;-0.27000
411111;-0.27500
413889;-0.28000
416667;-0.27000
419444;-0.26500
422222;-0.28000
425000;-0.28500
427778;-0.28500
430555;-0.28500
433333;-0.28500
436111;-0.28000
438889;-0.27000
441667;-0.28000
444444;-0.29000
447222;-0.28500
450000;-0.29000
452778;-0.27500
455555;-0.28500
458333;-0.28000
461111;-0.30500
463889;-0.30500
466667;-0.30000
469444;-0.29500
472222;-0.28500
475000;-0.30000
477778;-0.31000
480555;-0.30500
483333;-0.30000
486111;-0.29000
488889;-0.30000
491667;-0.31000
494444;-0.32000
497222;-0.32000
500000;-0.31500
502778;-0.31000
505555;-0.30500
508333;-0.31500
511111;-0.33000
513889;-0.33000
516667;-0.31500
519444;-0.32000
522222;-0.31500
525000;-0.33000
527778;-0.33000
530555;-0.33000
533333;-0.31500
536111;-0.32500
538889;-0.31500
541667;-0.32500
544444;-0.33500
547222;-0.32500
550000;-0.32000
552778;-0.31500
555555;-0.31000
558333;-0.33000
561111;-0.32500
563889;-0.33000
566667;-0.32500
569444;-0.30500
572222;-0.30500
575000;-0.33000
577778;-0.34000
580555;-0.33000
583333;-0.33500
586111;-0.32000
588889;-0.31500
591667;-0.32000
594444;-0.32500
597222;-0.32500
600000;-0.31000
602778;-0.31000
605555;-0.31000
608333;-0.31500
611111;-0.32500
613889;-0.32000
616666;-0.30000
619444;-0.30000
622222;-0.30000
625000;-0.31000
627778;-0.31500
630555;-0.31500
633333;-0.29500
636111;-0.29500
638889;-0.30000
641666;-0.30000
644444;-0.28500
647222;-0.29500
650000;-0.26000
652778;-0.23500
655555;-0.22500
658333;-0.23500
661111;-0.24000
663889;-0.23500
666666;-0.23500
669444;-0.22500
672222;-0.21500
675000;-0.21500
677778;-0.21000
680555;-0.20500
683333;-0.18500
686111;-0.18000
688889;-0.19000
691666;-0.19000
694444;-0.21500
697222;-0.21500
700000;-0.21500
702778;-0.21500
705555;-0.21000
708333;-0.21500
711111;-0.23000
713889;-0.23500
716666;-0.22000
719444;-0.21000
722222;-0.18000
725000;-0.17500
727778;-0.20500
730555;-0.23500
733333;-0.25000
736111;-0.26000
738889;-0.27000
741666;-0.29500
744444;-0.32000
747222;-0.31000
750000;-0.32000
752778;-0.32000
755555;-0.32000
758333;-0.33000
761111;-0.33000
763889;-0.33500
766666;-0.32000
769444;-0.32000
772222;-0.31500
775000;-0.34000
777778;-0.34000
780555;-0.34500
783333;-0.33500
786111;-0.33500
788889;-0.33000
791666;-0.34000
794444;-0.35000
797222;-0.35000
800000;-0.35000
802778;-0.32500
805555;-0.33000
808333;-0.34000
811111;-0.34500
813889;-0.34500
816666;-0.35000
819444;-0.33500
822222;-0.37000
825000;-0.42500
827778;-0.46000
830555;-0.48000
833333;-0.49000
836111;-0.51000
838889;-0.55500
841666;-0.54500
844444;-0.47000
847222;-0.29000
850000;-0.09500
852778;0.10500
855555;0.35500
858333;0.65000
861111;0.88000
863889;1.01500
866666;1.02000
869444;0.82500
872222;0.42500
875000;-0.03000
877778;-0.34500
880555;-0.45500
883333;-0.44500
886111;-0.38000
888889;-0.35000
891666;-0.35000
894444;-0.37000
897222;-0.38500
900000;-0.36000
902778;-0.35000
905555;-0.36000
908333;-0.37500
911111;-0.39000
913889;-0.39000
916666;-0.38000
919444;-0.37500
922222;-0.37000
925000;-0.38500
927778;-0.39500
930555;-0.38500
933333;-0.37000
936111;-0.35500
938889;-0.37000
941666;-0.38000
944444;-0.38500
947222;-0.38000
950000;-0.38000
952778;-0.37000
955555;-0.37000
958333;-0.37000
961111;-0.38500
963889;-0.37500
966666;-0.37000
969444;-0.37500
972222;-0.37500
975000;-0.39000
977778;-0.40000
980555;-0.39500
983333;-0.38500
986111;-0.38000
988889;-0.37000
991666;-0.37000
994444;-0.38500
997222;-0.39000
1000000;-0.37500
1002777;-0.36500
1005555;-0.36000
1008333;-0.37000
1011111;-0.37000
1013889;-0.37000
1016666;-0.37000
1019444;-0.36000
1022222;-0.36000
1025000;-0.36500
1027777;-0.38000
1030555;-0.37500
1033333;-0.36500
1036111;-0.36000
1038889;-0.37000
1041666;-0.37500
1044444;-0.39000
1047222;-0.38000
1050000;-0.38000
1052777;-0.37000
1055555;-0.38500
1058333;-0.37500
1061111;-0.37000
1063889;-0.37000
1066666;-0.36000
1069444;-0.35500
1072222;-0.36000
1075000;-0.36500
1077777;-0.37000
1080555;-0.37000
1083333;-0.37000
1086111;-0.36000
1088889;-0.36000
1091666;-0.38000
1094444;-0.39000
1097222;-0.39500
1100000;-0.39000
1102777;-0.38000
1105555;-0.39500
1108333;-0.38500
1111111;-0.39500
1113889;-0.39500
1116666;-0.39500
1119444;-0.38000
1122222;-0.40500
1125000;-0.39500
1127777;-0.41000
1130555;-0.41500
1133333;-0.38000
1136111;-0.38000
1138889;-0.38500
1141666;-0.38500
1144444;-0.38000
1147222;-0.38500
1150000;-0.36500
1152777;-0.36500
1155555;-0.36000
1158333;-0.34500
1161111;-0.35000
1163889;-0.35000
1166666;-0.32500
1169444;-0.30500
1172222;-0.30500
1175000;-0.30000
1177777;-0.30500
1180555;-0.31000
1183333;-0.29500
1186111;-0.27500
1188889;-0.28500
1191666;-0.28000
1194444;-0.29000
1197222;-0.29000
1200000;-0.26500
1202777;-0.27500
1205555;-0.27000
1208333;-0.27000
1211111;-0.29000
1213889;-0.27500
1216666;-0.27000
1219444;-0.26000
1222222;-0.27000
1225000;-0.27500
1227777;-0.28000
1230555;-0.30000
1233333;-0.29000
1236111;-0.28000
1238889;-0.28000
1241666;-0.29500
1244444;-0.30000
1247222;-0.31000
1250000;-0.30000
1252777;-0.29500
1255555;-0.28500
1258333;-0.28000
1261111;-0.29000
1263889;-0.29000
1266666;-0.29000
1269444;-0.28500
1272222;-0.29500
1275000;-0.30500
1277777;-0.32000
1280555;-0.30500
1283333;-0.30000
1286111;-0.28000
1288889;-0.30000
1291666;-0.30000
1294444;-0.30500
1297222;-0.31500
1300000;-0.31500
1302777;-0.29500
1305555;-0.29500
1308333;-0.31000
1311111;-0.32500
1313889;-0.33000
1316666;-0.32000
1319444;-0.31000
1322222;-0.31500
1325000;-0.32500
1327777;-0.33000
1330555;-0.33000
1333333;-0.33000
1336111;-0.32000
1338889;-0.32500
1341666;-0.33500
1344444;-0.33500
1347222;-0.35000
1350000;-0.33500
1352777;-0.34000
1355555;-0.32500
1358333;-0.34500
1361111;-0.34500
1363889;-0.35000
1366666;-0.34500
1369444;-0.34000
1372222;-0.33000
1375000;-0.33500
1377777;-0.34500
1380555;-0.35000
1383333;-0.34500
1386111;-0.33500
1388888;-0.32000
1391666;-0.33000
1394444;-0.34000
1397222;-0.33000
1400000;-0.32000
1402777;-0.31000
1405555;-0.31000
1408333;-0.32500
1411111;-0.34500
1413888;-0.33000
1416666;-0.33000
1419444;-0.32000
1422222;-0.33000
1425000;-0.33500
1427777;-0.35000
1430555;-0.34500
1433333;-0.34500
1436111;-0.33500
1438888;-0.32500
1441666;-0.32500
1444444;-0.32000
1447222;-0.31000
1450000;-0.30000
1452777;-0.28500
1455555;-0.28000
1458333;-0.28000
1461111;-0.29000
1463888;-0.28500
1466666;-0.26500
1469444;-0.25000
1472222;-0.23500
1475000;-0.24000
1477777;-0.24500
1480555;-0.25500
1483333;-0.22500
1486111;-0.23500
1488888;-0.22000
1491666;-0.23500
1494444;-0.24500
1497222;-0.25000
1500000;-0.24500
1502777;-0.23500
1505555;-0.25000
1508333;-0.28000
1511111;-0.28500
1513888;-0.28000
1516666;-0.24500
1519444;-0.24000
1522222;-0.27000
1525000;-0.29500
1527777;-0.33000
1530555;-0.34500
1533333;-0.35000
1536111;-0.33500
1538888;-0.34000
1541666;-0.36000
1544444;-0.36000
1547222;-0.36000
1550000;-0.35500
1552777;-0.36500
1555555;-0.36000
1558333;-0.37000
1561111;-0.37000
1563888;-0.38500
1566666;-0.38000
1569444;-0.37000
1572222;-0.37000
1575000;-0.38500
1577777;-0.40000
1580555;-0.40000
1583333;-0.37500
1586111;-0.36000
1588888;-0.37000
1591666;-0.36500
1594444;-0.36500
1597222;-0.36500
1600000;-0.36000
1602777;-0.35000
1605555;-0.35000
1608333;-0.37500
1611111;-0.41500
1613888;-0.44000
1616666;-0.48000
1619444;-0.49500
1622222;-0.52500
1625000;-0.58000
1627777;-0.60500
1630555;-0.54000
1633333;-0.41500
1636111;-0.24500
1638888;-0.06500
1641666;0.18000
1644444;0.46500
1647222;0.72000
1650000;0.88000
1652777;0.86500
1655555;0.61000
1658333;0.20000
1661111;-0.21000
1663888;-0.46000
1666666;-0.52500
1669444;-0.50000
1672222;-0.46000
1675000;-0.43500
1677777;-0.44000
1680555;-0.45000
1683333;-0.44000
1686111;-0.41500
1688888;-0.41500
1691666;-0.41500
1694444;-0.43500
1697222;-0.43500
1700000;-0.43000
1702777;-0.41500
1705555;-0.42000
1708333;-0.43500
1711111;-0.43500
1713888;-0.42500
1716666;-0.42000
1719444;-0.41500
1722222;-0.42500
1725000;-0.43500
1727777;-0.44000
1730555;-0.44000
1733333;-0.42000
1736111;-0.41500
1738888;-0.42000
1741666;-0.43000
1744444;-0.44000
1747222;-0.44000
1750000;-0.42500
1752777;-0.41500
1755555;-0.42000
1758333;-0.43000
1761111;-0.44000
1763888;-0.42500
1766666;-0.42500
1769444;-0.40500
1772222;-0.42000
1775000;-0.43000
1777777;-0.43500
1780555;-0.43000
1783333;-0.43500
1786111;-0.42000
1788888;-0.43000
1791666;-0.44000
1794444;-0.45000
1797222;-0.45500
1799999;-0.45000
1802777;-0.43000
1805555;-0.43500
1808333;-0.43000
1811111;-0.44000
1813888;-0.43500
1816666;-0.43000
1819444;-0.40500
1822222;-0.43000
1824999;-0.44000
1827777;-0.45000
1830555;-0.45500
1833333;-0.44000
1836111;-0.43500
1838888;-0.43500
1841666;-0.45000
1844444;-0.45000
1847222;-0.45500
1849999;-0.44500
1852777;-0.44000
1855555;-0.44500
1858333;-0.45000
1861111;-0.46000
1863888;-0.46000
1866666;-0.45500
1869444;-0.45000
1872222;-0.45500
1874999;-0.46000
1877777;-0.48500
1880555;-0.50000
1883333;-0.49500
1886111;-0.47500
1888888;-0.48500
1891666;-0.48500
1894444;-0.50500
1897222;-0.51500
1899999;-0.50500
1902777;-0.50000
1905555;-0.50500
1908333;-0.52000
1911111;-0.51500
1913888;-0.51000
1916666;-0.50000
1919444;-0.48500
1922222;-0.50000
1924999;-0.49500
1927777;-0.49500
1930555;-0.49500
1933333;-0.47000
1936111;-0.45000
1938888;-0.45000
1941666;-0.46500
1944444;-0.44000
1947222;-0.41500
1949999;-0.39500
1952777;-0.37000
1955555;-0.37000
1958333;-0.38000
1961111;-0.38000
1963888;-0.38000
1966666;-0.37000
1969444;-0.34500
1972222;-0.35500
1974999;-0.36000
1977777;-0.36500
1980555;-0.36000
1983333;-0.35000
1986111;-0.34000
1988888;-0.35000
1991666;-0.35000
1994444;-0.34500
1997222;-0.33500
1999999;-0.31500
2002777;-0.30500
2005555;-0.32000
2008333;-0.33500
2011111;-0.34000
2013888;-0.34500
2016666;-0.34500
2019444;-0.34000
2022222;-0.34000
2024999;-0.35000
2027777;-0.34500
2030555;-0.35000
2033333;-0.33500
2036111;-0.35500
2038888;-0.36500
2041666;-0.36000
2044444;-0.35500
2047222;-0.36000
2049999;-0.34500
2052777;-0.35000
2055555;-0.35500
2058333;-0.36500
2061111;-0.38500
2063888;-0.36500
2066666;-0.36000
2069444;-0.35000
2072222;-0.35000
2074999;-0.37000
2077777;-0.38500
2080555;-0.37000
2083333;-0.37000
2086111;-0.36500
2088888;-0.37500
2091666;-0.37000
2094444;-0.37500
2097222;-0.38000
2099999;-0.37000
2102777;-0.37000
2105555;-0.38000
2108333;-0.39000
2111111;-0.38500
2113888;-0.38500
2116666;-0.37000
2119444;-0.38500
2122222;-0.38500
2124999;-0.39500
2127777;-0.39000
2130555;-0.40500
2133333;-0.39000
2136111;-0.38500
2138888;-0.40500
2141666;-0.39000
2144444;-0.39000
2147222;-0.39000
2149999;-0.38500
2152777;-0.37000
2155555;-0.37500
2158333;-0.39000
2161111;-0.39000
2163888;-0.39000
2166666;-0.38500
2169444;-0.37500
2172222;-0.37500
2174999;-0.38000
2177777;-0.39000
2180555;-0.38500
2183333;-0.38500
2186110;-0.38000
2188888;-0.38500
2191666;-0.39000
2194444;-0.40500
2197222;-0.40000
2199999;-0.39500
2202777;-0.37000
2205555;-0.38000
2208333;-0.39000
2211110;-0.38500
2213888;-0.38500
2216666;-0.38500
2219444;-0.37500
2222222;-0.35000
2224999;-0.35000
2227777;-0.34000
2230555;-0.33500
2233333;-0.32500
2236110;-0.31000
2238888;-0.31500
2241666;-0.31500
2244444;-0.31000
2247222;-0.31000
2249999;-0.30000
2252777;-0.27500
2255555;-0.26500
2258333;-0.27500
2261110;-0.27500
2263888;-0.28500
2266666;-0.28500
2269444;-0.26500
2272222;-0.28500
2274999;-0.29000
2277777;-0.30000
2280555;-0.31500
2283333;-0.29500
2286110;-0.29500
2288888;-0.31000
2291666;-0.32000
2294444;-0.31500
2297222;-0.30500
2299999;-0.28000
2302777;-0.28500
2305555;-0.31500
2308333;-0.34500
2311110;-0.36000
2313888;-0.37500
2316666;-0.37000
2319444;-0.38000
2322222;-0.38500
2324999;-0.39500
2327777;-0.40000
2330555;-0.39000
2333333;-0.38500
2336110;-0.37500
2338888;-0.38000
2341666;-0.39500
2344444;-0.40000
2347222;-0.40500
2349999;-0.39500
2352777;-0.38000
2355555;-0.38500
2358333;-0.39500
2361110;-0.41000
2363888;-0.39500
2366666;-0.38500
2369444;-0.38000
2372222;-0.39000
2374999;-0.39500
2377777;-0.39000
2380555;-0.38500
2383333;-0.37500
2386110;-0.38000
2388888;-0.38500
2391666;-0.39000
2394444;-0.42500
2397222;-0.45000
2399999;-0.47500
2402777;-0.48500
2405555;-0.51500
2408333;-0.55500
2411110;-0.59000
2413888;-0.54000
2416666;-0.40000
2419444;-0.23000
2422222;-0.06500
2424999;0.15000
2427777;0.39500
2430555;0.65500
2433333;0.85500
2436110;0.95500
2438888;0.88500
2441666;0.62000
2444444;0.19000
2447222;-0.22500
2449999;-0.44500
2452777;-0.49500
2455555;-0.47000
2458333;-0.43500
2461110;-0.41000
2463888;-0.39500
2466666;-0.39000
2469444;-0.38500
2472222;-0.39500
2474999;-0.39500
2477777;-0.39000
2480555;-0.40000
2483333;-0.39000
2486110;-0.38500
2488888;-0.38500
2491666;-0.40000
2494444;-0.41000
2497222;-0.40500
2499999;-0.40000
2502777;-0.38000
2505555;-0.39000
2508333;-0.40000
2511110;-0.41000
2513888;-0.41000
2516666;-0.39000
2519444;-0.38500
2522222;-0.39000
2524999;-0.39500
2527777;-0.40000
2530555;-0.41000
2533333;-0.39500
2536110;-0.38500
2538888;-0.38500
2541666;-0.39000
2544444;-0.39500
2547222;-0.40000
2549999;-0.39000
2552777;-0.39000
2555555;-0.39500
2558333;-0.39500
2561110;-0.39500
2563888;-0.40500
2566666;-0.39000
2569444;-0.39000
2572222;-0.38500
2574999;-0.39000
2577777;-0.39000
2580555;-0.40500
2583333;-0.39000
2586110;-0.38500
2588888;-0.39000
2591666;-0.39500
2594444;-0.39500
2597221;-0.41000
2599999;-0.39500
2602777;-0.38500
2605555;-0.39000
2608333;-0.40000
2611110;-0.39500
2613888;-0.39500
2616666;-0.39000
2619444;-0.38500
2622221;-0.38500
2624999;-0.39500
2627777;-0.39500
2630555;-0.40500
2633333;-0.38500
2636110;-0.38000
2638888;-0.38500
2641666;-0.39500
2644444;-0.40000
2647221;-0.41500
2649999;-0.39000
2652777;-0.39000
2655555;-0.39500
2658333;-0.40500
2661110;-0.41500
2663888;-0.42000
2666666;-0.41500
2669444;-0.41500
2672221;-0.42000
2674999;-0.43500
2677777;-0.45500
2680555;-0.45500
2683333;-0.44500
2686110;-0.44500
2688888;-0.44500
2691666;-0.45500
2694444;-0.46500
2697221;-0.47500
2699999;-0.47000
2702777;-0.44000
2705555;-0.44000
2708333;-0.44000
2711110;-0.43000
2713888;-0.43000
2716666;-0.40000
2719444;-0.38000
2722221;-0.37500
2724999;-0.36500
2727777;-0.35500
2730555;-0.35000
2733333;-0.32500
2736110;-0.31500
2738888;-0.32000
2741666;-0.32000
2744444;-0.31500
2747221;-0.30500
2749999;-0.28500
2752777;-0.27000
2755555;-0.28000
2758333;-0.27000
2761110;-0.27000
2763888;-0.27500
2766666;-0.26500
2769444;-0.25000
2772221;-0.25500
2774999;-0.27000
2777777;-0.27000
2780555;-0.26500
2783333;-0.25500
2786110;-0.24000
2788888;-0.25500
2791666;-0.26500
2794444;-0.27000
2797221;-0.27500
2799999;-0.25000
2802777;-0.24500
2805555;-0.25000
2808333;-0.26500
2811110;-0.27500
2813888;-0.27000
2816666;-0.25500
2819444;-0.25000
2822221;-0.26000
2824999;-0.28000
2827777;-0.27500
2830555;-0.29000
2833333;-0.28000
2836110;-0.26000
2838888;-0.28000
2841666;-0.28500
2844444;-0.29000
2847221;-0.27500
2849999;-0.27500
2852777;-0.27500
2855555;-0.28000
2858333;-0.27500
2861110;-0.29000
2863888;-0.29500
2866666;-0.27500
2869444;-0.27500
2872221;-0.28500
2874999;-0.28500
2877777;-0.29500
2880555;-0.29500
2883333;-0.30000
2886110;-0.28000
2888888;-0.28500
2891666;-0.28000
2894444;-0.29500
2897221;-0.29000
2899999;-0.28500
2902777;-0.28000
2905555;-0.28500
2908333;-0.30500
2911110;-0.30000
2913888;-0.30000
2916666;-0.29500
2919444;-0.29000
2922221;-0.30000
2924999;-0.30500
2927777;-0.32000
2930555;-0.30500
2933333;-0.30000
2936110;-0.29000
2938888;-0.30000
2941666;-0.30000
2944444;-0.30500
2947221;-0.29500
2949999;-0.29500
2952777;-0.29000
2955555;-0.30000
2958333;-0.29500
2961110;-0.31000
2963888;-0.31000
2966666;-0.30500
2969444;-0.29500
2972221;-0.29500
2974999;-0.30500
2977777;-0.30000
2980555;-0.30000
2983332;-0.29500
2986110;-0.28500
2988888;-0.29000
2991666;-0.29000
2994444;-0.30000
2997221;-0.30500
2999999;-0.28500
3002777;-0.27500
3005555;-0.28500
3008332;-0.29500
3011110;-0.29500
3013888;-0.29000
3016666;-0.28500
3019444;-0.28000
3022221;-0.28000
3024999;-0.29500
3027777;-0.29000
3030555;-0.29000
3033332;-0.26500
3036110;-0.24500
3038888;-0.23500
3041666;-0.23500
3044444;-0.24000
3047221;-0.23500
3049999;-0.23000
3052777;-0.21500
3055555;-0.21000
3058332;-0.20500
3061110;-0.20500
3063888;-0.19500
3066666;-0.19000
3069444;-0.18000
3072221;-0.19000
3074999;-0.19500
3077777;-0.20500
3080555;-0.21000
3083332;-0.21000
3086110;-0.19500
3088888;-0.20000
3091666;-0.19500
3094444;-0.21500
3097221;-0.23000
3099999;-0.22000
3102777;-0.21500
3105555;-0.21000
3108332;-0.19500
3111110;-0.18000
3113888;-0.17500
3116666;-0.17500
3119444;-0.19500
3122221;-0.22000
3124999;-0.25000
3127777;-0.27500
3130555;-0.29500
3133332;-0.29500
3136110;-0.29000
3138888;-0.30000
3141666;-0.31500
3144444;-0.32500
3147221;-0.33000
3149999;-0.32000
3152777;-0.30500
3155555;-0.30000
3158332;-0.32500
3161110;-0.34000
3163888;-0.32500
3166666;-0.31000
3169444;-0.31000
3172221;-0.31500
3174999;-0.33000
3177777;-0.34000
3180555;-0.33500
3183332;-0.33000
3186110;-0.31500
3188888;-0.33000
3191666;-0.33500
3194444;-0.34500
3197221;-0.34500
3199999;-0.34500
3202777;-0.35500
3205555;-0.39500
3208332;-0.45500
3211110;-0.48500
3213888;-0.50500
3216666;-0.53000
3219444;-0.53500
3222221;-0.48000
3224999;-0.34500
3227777;-0.16500
3230555;0.01000
3233332;0.24000
3236110;0.49500
3238888;0.77000
3241666;0.98500
3244444;1.14000
3247221;1.18500
3249999;1.12000
3252777;0.89000
3255555;0.49500
3258332;0.08500
3261110;-0.24500
3263888;-0.43000
3266666;-0.47000
3269444;-0.43500
3272221;-0.38000
3274999;-0.36000
3277777;-0.34500
3280555;-0.36000
3283332;-0.36000
3286110;-0.36000
3288888;-0.36500
3291666;-0.36500
3294444;-0.38500
3297221;-0.38500
3299999;-0.37500
3302777;-0.37500
3305555;-0.37500
3308332;-0.38500
3311110;-0.39500
3313888;-0.39500
3316666;-0.39000
3319444;-0.38000
3322221;-0.38000
3324999;-0.39500
3327777;-0.39000
3330555;-0.39500
3333332;-0.38500
3336110;-0.39000
3338888;-0.38000
3341666;-0.38500
3344444;-0.40500
3347221;-0.40000
3349999;-0.39000
3352777;-0.38500
3355555;-0.38500
3358332;-0.39000
3361110;-0.39500
3363888;-0.39500
3366666;-0.39000
3369444;-0.37500
3372221;-0.38000
3374999;-0.38000
3377777;-0.40000
3380555;-0.38500
3383332;-0.39000
3386110;-0.36500
3388888;-0.37500
3391666;-0.39000
3394443;-0.40000
3397221;-0.40000
3399999;-0.38500
3402777;-0.38000
3405555;-0.38000
3408332;-0.40000
3411110;-0.39500
3413888;-0.40000
3416666;-0.39500
3419443;-0.39000
3422221;-0.38500
3424999;-0.40000
3427777;-0.41500
3430555;-0.43000
3433332;-0.40500
3436110;-0.39000
3438888;-0.38500
3441666;-0.39500
3444443;-0.39500
3447221;-0.39000
3449999;-0.39500
3452777;-0.37500
3455555;-0.38000
3458332;-0.38500
3461110;-0.39500
3463888;-0.39500
3466666;-0.39500
3469443;-0.38000
3472221;-0.39000
3474999;-0.39500
3477777;-0.41000
3480555;-0.40500
3483332;-0.40000
3486110;-0.39000
3488888;-0.39500
3491666;-0.40500
3494443;-0.41000
3497221;-0.42000
3499999;-0.41000
3502777;-0.40000
3505555;-0.40500
3508332;-0.41000
3511110;-0.42000
3513888;-0.42500
3516666;-0.41000
3519443;-0.39500
3522221;-0.39000
3524999;-0.39500
3527777;-0.40000
3530555;-0.41000
3533332;-0.39500
3536110;-0.38000
3538888;-0.39000
3541666;-0.39000
3544443;-0.38500
3547221;-0.38000
3549999;-0.37000
3552777;-0.35500
3555555;-0.35000
3558332;-0.34500
3561110;-0.34500
3563888;-0.34000
3566666;-0.31500
3569443;-0.30000
3572221;-0.30000
3574999;-0.29000
3577777;-0.29000
3580555;-0.30000
3583332;-0.28500
3586110;-0.27000
3588888;-0.26000
3591666;-0.26500
3594443;-0.27000
3597221;-0.28000
3599999;-0.27000
3602777;-0.25500
3605555;-0.26500
3608332;-0.27500
3611110;-0.27500
3613888;-0.29000
3616666;-0.26000
3619443;-0.26000
3622221;-0.27000
3624999;-0.26500
3627777;-0.27000
3630555;-0.28000
3633332;-0.27500
3636110;-0.26000
3638888;-0.26500
3641666;-0.27000
3644443;-0.28000
3647221;-0.28500
3649999;-0.28000
3652777;-0.27500
3655555;-0.28000
3658332;-0.28500
3661110;-0.29000
3663888;-0.30000
3666666;-0.30000
3669443;-0.27500
3672221;-0.29000
3674999;-0.29500
3677777;-0.29500
3680555;-0.30500
3683332;-0.30500
3686110;-0.28500
3688888;-0.29000
3691666;-0.29000
3694443;-0.29500
3697221;-0.31000
3699999;-0.30500
3702777;-0.30000
3705555;-0.30000
3708332;-0.30500
3711110;-0.32500
3713888;-0.30500
3716666;-0.31000
3719443;-0.30000
3722221;-0.30500
3724999;-0.31500
3727777;-0.31500
3730555;-0.32000
3733332;-0.33000
3736110;-0.32500
3738888;-0.32500
3741666;-0.32500
3744443;-0.32500
3747221;-0.33000
3749999;-0.32000
3752777;-0.31500
3755555;-0.32500
3758332;-0.33000
3761110;-0.33000
3763888;-0.34500
3766666;-0.32500
3769443;-0.32500
3772221;-0.31500
3774999;-0.32000
3777777;-0.33000
3780554;-0.33500
3783332;-0.33000
3786110;-0.32500
3788888;-0.32500
3791666;-0.33500
3794443;-0.34000
3797221;-0.35000
3799999;-0.34000
3802777;-0.33000
3805554;-0.33000
3808332;-0.33000
3811110;-0.33000
3813888;-0.33000
3816666;-0.32000
3819443;-0.32000
3822221;-0.32500
3824999;-0.32000
3827777;-0.33000
3830554;-0.32500
3833332;-0.33000
3836110;-0.31500
3838888;-0.31000
3841666;-0.31000
3844443;-0.32000
3847221;-0.33000
3849999;-0.32000
3852777;-0.31500
3855554;-0.31500
3858332;-0.31500
3861110;-0.33000
3863888;-0.32500
3866666;-0.32000
3869443;-0.30500
3872221;-0.27500
3874999;-0.27000
3877777;-0.27000
3880554;-0.27000
3883332;-0.26000
3886110;-0.24500
3888888;-0.24500
3891666;-0.24500
3894443;-0.25000
3897221;-0.23500
3899999;-0.22000
3902777;-0.21500
3905554;-0.21000
3908332;-0.21500
3911110;-0.23000
3913888;-0.24000
3916666;-0.24000
3919443;-0.23500
3922221;-0.23500
3924999;-0.23000
3927777;-0.24000
3930554;-0.25000
3933332;-0.24500
3936110;-0.22500
3938888;-0.21500
3941666;-0.19000
3944443;-0.20000
3947221;-0.23500
3949999;-0.25500
3952777;-0.27000
3955554;-0.28500
3958332;-0.31000
3961110;-0.33500
3963888;-0.34500
3966666;-0.33500
3969443;-0.34000
3972221;-0.34000
3974999;-0.36000
3977777;-0.36000
3980554;-0.34500
3983332;-0.34500
3986110;-0.33500
3988888;-0.33500
3991666;-0.35000
3994443;-0.36000
3997221;-0.36500
3999999;-0.35000
4002777;-0.35000
4005554;-0.34500
4008332;-0.36000
4011110;-0.35500
4013888;-0.36500
4016666;-0.35500
4019443;-0.35500
4022221;-0.36000
4024999;-0.36500
4027777;-0.36000
4030554;-0.37500
4033332;-0.37000
4036110;-0.37000
4038888;-0.40500
4041666;-0.44000
4044443;-0.49500
4047221;-0.52500
4049999;-0.53000
4052777;-0.57000
4055554;-0.60000
4058332;-0.58000
4061110;-0.48500
4063888;-0.35000
4066666;-0.19000
4069443;-0.03000
4072221;0.15500
4074999;0.40500
4077777;0.67000
4080554;0.86500
4083332;1.01500
4086110;1.08000
