time_ms;ecg_value
0;-0.17000
2778;-0.16500
5556;-0.15500
8333;-0.17000
11111;-0.19000
13889;-0.20000
16667;-0.20500
19444;-0.19000
22222;-0.19500
25000;-0.20000
27778;-0.20000
30556;-0.21000
33333;-0.22500
36111;-0.20500
38889;-0.18000
41667;-0.16000
44444;-0.17000
47222;-0.19500
50000;-0.22000
52778;-0.23000
55556;-0.24000
58333;-0.25500
61111;-0.27000
63889;-0.28500
66667;-0.28500
69444;-0.28500
72222;-0.29000
75000;-0.29500
77778;-0.31000
80556;-0.31000
83333;-0.31000
86111;-0.30500
88889;-0.29000
91667;-0.30000
94444;-0.31500
97222;-0.32000
100000;-0.31500
102778;-0.31000
105556;-0.32500
108333;-0.33000
111111;-0.33500
113889;-0.32500
116667;-0.31500
119444;-0.31500
122222;-0.31500
125000;-0.31500
127778;-0.32000
130556;-0.32500
133333;-0.31500
136111;-0.32000
138889;-0.32000
141667;-0.32500
144444;-0.36500
147222;-0.41000
150000;-0.43500
152778;-0.44000
155556;-0.45500
158333;-0.50000
161111;-0.50500
163889;-0.44500
166667;-0.30000
169444;-0.11000
172222;0.09500
175000;0.31000
177778;0.58000
180556;0.86000
183333;1.08500
186111;1.20500
188889;1.20000
191667;1.04000
194444;0.65500
197222;0.18500
200000;-0.20500
202778;-0.42500
205555;-0.48000
208333;-0.45500
211111;-0.42500
213889;-0.39000
216667;-0.34000
219444;-0.33000
222222;-0.33500
225000;-0.34500
227778;-0.36000
230555;-0.35500
233333;-0.35500
236111;-0.35500
238889;-0.34000
241667;-0.34500
244444;-0.34500
247222;-0.35500
250000;-0.36500
252778;-0.35500
255555;-0.34500
258333;-0.35500
261111;-0.37000
263889;-0.36500
266667;-0.38500
269444;-0.37000
272222;-0.35500
275000;-0.36000
277778;-0.38000
280555;-0.37500
283333;-0.37500
286111;-0.36000
288889;-0.37000
291667;-0.36500
294444;-0.37500
297222;-0.38000
300000;-0.37500
302778;-0.36000
305555;-0.35500
308333;-0.37000
311111;-0.37500
313889;-0.38000
316667;-0.35500
319444;-0.36000
322222;-0.34500
325000;-0.35000
327778;-0.35500
330555;-0.36000
333333;-0.36000
336111;-0.35000
338889;-0.34500
341667;-0.34000
344444;-0.35000
347222;-0.37000
350000;-0.36500
352778;-0.35500
355555;-0.34000
358333;-0.35000
361111;-0.34500
363889;-0.37500
366667;-0.36000
369444;-0.35000
372222;-0.35500
375000;-0.34000
377778;-0.35000
380555;-0.37500
383333;-0.36000
386111;-0.35000
388889;-0.34000
391667;-0.34000
394444;-0.34500
397222;-0.36000
400000;-0.37000
402778;-0.34500
405555;-0.34000
408333;-0.35000
411111;-0.35000
413889;-0.37500
416667;-0.37000
419444;-0.36500
422222;-0.36500
425000;-0.36000
427778;-0.37500
430555;-0.37500
433333;-0.36500
436111;-0.36000
438889;-0.34500
441667;-0.35000
444444;-0.36000
447222;-0.35000
450000;-0.34500
452778;-0.35500
455555;-0.34500
458333;-0.35000
461111;-0.35000
463889;-0.35500
466667;-0.35000
469444;-0.33000
472222;-0.32000
475000;-0.33000
477778;-0.32000
480555;-0.32500
483333;-0.30500
486111;-0.29000
488889;-0.27500
491667;-0.27500
494444;-0.27500
497222;-0.27000
500000;-0.27000
502778;-0.24500
505555;-0.24000
508333;-0.23500
511111;-0.24500
513889;-0.25500
516667;-0.24500
519444;-0.24500
522222;-0.24000
525000;-0.24000
527778;-0.24000
530555;-0.24500
533333;-0.25000
536111;-0.23000
538889;-0.23500
541667;-0.23500
544444;-0.24500
547222;-0.25500
550000;-0.26000
552778;-0.25000
555555;-0.23000
558333;-0.23500
561111;-0.24500
563889;-0.25000
566667;-0.23500
569444;-0.23500
572222;-0.23000
575000;-0.23000
577778;-0.23500
580555;-0.24500
583333;-0.25000
586111;-0.24000
588889;-0.23000
591667;-0.24500
594444;-0.26000
597222;-0.26500
600000;-0.26500
602778;-0.27000
605555;-0.26000
608333;-0.26000
611111;-0.27500
613889;-0.28000
616666;-0.28500
619444;-0.26500
622222;-0.26000
625000;-0.27000
627778;-0.28000
630555;-0.29000
633333;-0.28000
636111;-0.27000
638889;-0.26500
641666;-0.28500
644444;-0.28500
647222;-0.30000
650000;-0.29000
652778;-0.29000
655555;-0.28500
658333;-0.29500
661111;-0.29500
663889;-0.31000
666666;-0.32000
669444;-0.29500
672222;-0.29500
675000;-0.30000
677778;-0.31000
680555;-0.32000
683333;-0.31500
686111;-0.31000
688889;-0.30000
691666;-0.29500
694444;-0.31000
697222;-0.31500
700000;-0.31000
702778;-0.30500
705555;-0.27500
708333;-0.28500
711111;-0.29500
713889;-0.30000
716666;-0.30000
719444;-0.29000
722222;-0.28000
725000;-0.28500
727778;-0.30000
730555;-0.30500
733333;-0.29500
736111;-0.29000
738889;-0.28500
741666;-0.28000
744444;-0.29000
747222;-0.29000
750000;-0.28500
752778;-0.26500
755555;-0.24500
758333;-0.23500
761111;-0.22500
763889;-0.22500
766666;-0.21000
769444;-0.20000
772222;-0.20500
775000;-0.19500
777778;-0.19000
780555;-0.18500
783333;-0.17000
786111;-0.16000
788889;-0.13500
791666;-0.14000
794444;-0.16000
797222;-0.19000
800000;-0.18500
802778;-0.17000
805555;-0.18000
808333;-0.18500
811111;-0.19500
813889;-0.21000
816666;-0.21500
819444;-0.21000
822222;-0.19500
825000;-0.16500
827778;-0.15500
830555;-0.14500
833333;-0.13500
836111;-0.13500
838889;-0.15500
841666;-0.19000
844444;-0.21500
847222;-0.23500
850000;-0.25000
852778;-0.25000
855555;-0.25500
858333;-0.26000
861111;-0.28500
863889;-0.30000
866666;-0.28500
869444;-0.27500
872222;-0.25500
875000;-0.27500
877778;-0.29000
880555;-0.30500
883333;-0.30000
886111;-0.29000
888889;-0.29000
891666;-0.29000
894444;-0.30500
897222;-0.31500
900000;-0.31000
902778;-0.29500
905555;-0.29500
908333;-0.30000
911111;-0.30500
913889;-0.30500
916666;-0.30000
919444;-0.28500
922222;-0.30000
925000;-0.32500
927778;-0.37000
930555;-0.42000
933333;-0.43500
936111;-0.44000
938889;-0.47500
941666;-0.47000
944444;-0.40500
947222;-0.27500
950000;-0.12000
952778;0.04500
955555;0.23500
958333;0.45500
961111;0.66500
963889;0.84000
966666;0.96500
969444;1.07000
972222;1.15000
975000;1.21000
977778;1.21500
980555;1.08500
983333;0.76500
986111;0.33500
988889;-0.07000
991666;-0.33000
994444;-0.42500
997222;-0.41500
1000000;-0.35500
1002777;-0.30500
1005555;-0.29500
1008333;-0.30500
1011111;-0.32500
1013889;-0.34000
1016666;-0.33000
1019444;-0.31500
1022222;-0.32500
1025000;-0.32500
1027777;-0.33500
1030555;-0.35000
1033333;-0.34500
1036111;-0.33000
1038889;-0.33000
1041666;-0.32500
1044444;-0.35000
1047222;-0.36500
1050000;-0.36000
1052777;-0.35500
1055555;-0.36000
1058333;-0.35500
1061111;-0.36000
1063889;-0.36500
1066666;-0.34500
1069444;-0.33500
1072222;-0.33500
1075000;-0.33000
1077777;-0.35000
1080555;-0.36000
1083333;-0.35500
1086111;-0.34000
1088889;-0.33500
1091666;-0.33500
1094444;-0.35000
1097222;-0.36000
1100000;-0.35500
1102777;-0.37000
1105555;-0.35000
1108333;-0.36500
1111111;-0.35500
1113889;-0.36000
1116666;-0.35500
1119444;-0.34500
1122222;-0.33000
1125000;-0.35000
1127777;-0.36000
1130555;-0.35000
1133333;-0.34500
1136111;-0.34000
1138889;-0.33500
1141666;-0.33500
1144444;-0.34500
1147222;-0.36000
1150000;-0.35500
1152777;-0.35000
1155555;-0.34000
1158333;-0.34500
1161111;-0.36000
1163889;-0.36000
1166666;-0.37000
1169444;-0.36000
1172222;-0.35500
1175000;-0.34500
1177777;-0.35000
1180555;-0.35500
1183333;-0.36000
1186111;-0.36000
1188889;-0.35500
1191666;-0.36000
1194444;-0.36500
1197222;-0.37000
1200000;-0.36500
1202777;-0.35500
1205555;-0.36000
1208333;-0.36000
1211111;-0.37500
1213889;-0.37500
1216666;-0.36500
1219444;-0.35000
1222222;-0.35000
1225000;-0.35000
1227777;-0.35500
1230555;-0.36500
1233333;-0.34500
1236111;-0.34500
1238889;-0.34000
1241666;-0.34500
1244444;-0.34000
1247222;-0.34500
1250000;-0.32000
1252777;-0.30000
1255555;-0.28000
1258333;-0.28000
1261111;-0.27000
1263889;-0.29500
1266666;-0.29000
1269444;-0.28500
1272222;-0.26500
1275000;-0.26500
1277777;-0.25500
1280555;-0.26500
1283333;-0.26000
1286111;-0.25500
1288889;-0.23000
1291666;-0.23000
1294444;-0.24000
1297222;-0.24500
1300000;-0.24000
1302777;-0.24500
1305555;-0.24500
1308333;-0.25500
1311111;-0.28000
1313889;-0.27500
1316666;-0.27500
1319444;-0.26000
1322222;-0.24500
1325000;-0.26000
1327777;-0.27000
1330555;-0.28000
1333333;-0.28000
1336111;-0.28000
1338889;-0.26500
1341666;-0.28500
1344444;-0.28500
1347222;-0.30500
1350000;-0.28500
1352777;-0.28000
1355555;-0.27000
1358333;-0.26500
1361111;-0.29000
1363889;-0.28000
1366666;-0.26500
1369444;-0.26500
1372222;-0.28000
1375000;-0.27500
1377777;-0.30000
1380555;-0.30500
1383333;-0.32000
1386111;-0.30500
1388888;-0.30500
1391666;-0.31000
1394444;-0.31500
1397222;-0.32500
1400000;-0.33000
1402777;-0.33500
1405555;-0.34000
1408333;-0.34000
1411111;-0.32000
1413888;-0.32500
1416666;-0.31000
1419444;-0.30000
1422222;-0.30500
1425000;-0.31500
1427777;-0.32000
1430555;-0.32500
1433333;-0.32000
1436111;-0.33500
1438888;-0.34000
1441666;-0.33500
1444444;-0.35000
1447222;-0.34500
1450000;-0.34500
1452777;-0.35500
1455555;-0.35000
1458333;-0.34000
1461111;-0.33000
1463888;-0.34000
1466666;-0.34000
1469444;-0.33500
1472222;-0.31000
1475000;-0.32500
1477777;-0.33500
1480555;-0.36000
1483333;-0.34500
1486111;-0.32000
1488888;-0.31500
1491666;-0.30000
1494444;-0.30500
1497222;-0.28500
1500000;-0.27500
1502777;-0.26000
1505555;-0.26000
1508333;-0.26500
1511111;-0.26000
1513888;-0.26000
1516666;-0.24000
1519444;-0.22000
1522222;-0.21000
1525000;-0.21000
1527777;-0.21500
1530555;-0.23500
1533333;-0.23000
1536111;-0.22500
1538888;-0.24000
1541666;-0.25000
1544444;-0.25000
1547222;-0.25000
1550000;-0.24500
1552777;-0.25000
1555555;-0.25000
1558333;-0.24000
1561111;-0.22500
1563888;-0.23500
1566666;-0.25500
1569444;-0.26500
1572222;-0.27500
1575000;-0.29000
1577777;-0.31500
1580555;-0.34000
1583333;-0.34000
1586111;-0.33500
1588888;-0.31500
1591666;-0.33000
1594444;-0.34500
1597222;-0.34000
1600000;-0.33000
1602777;-0.33500
1605555;-0.34500
1608333;-0.35000
1611111;-0.35500
1613888;-0.36500
1616666;-0.35500
1619444;-0.36500
1622222;-0.38000
1625000;-0.38000
1627777;-0.39000
1630555;-0.38000
1633333;-0.36500
1636111;-0.36500
1638888;-0.36500
1641666;-0.35000
1644444;-0.36000
1647222;-0.37000
1650000;-0.37000
1652777;-0.35500
1655555;-0.35500
1658333;-0.39000
1661111;-0.44000
1663888;-0.48000
1666666;-0.49000
1669444;-0.51500
1672222;-0.53000
1675000;-0.55000
1677777;-0.49500
1680555;-0.37000
1683333;-0.20000
1686111;0.00000
1688888;0.22500
1691666;0.49000
1694444;0.74000
1697222;0.91000
1700000;0.99000
1702777;0.90500
1705555;0.58000
1708333;0.11000
1711111;-0.29000
1713888;-0.49500
1716666;-0.52000
1719444;-0.48500
1722222;-0.42000
1725000;-0.38000
1727777;-0.39000
1730555;-0.41500
1733333;-0.42000
1736111;-0.41000
1738888;-0.39000
1741666;-0.39000
1744444;-0.39500
1747222;-0.39000
1750000;-0.37500
1752777;-0.36500
1755555;-0.35500
1758333;-0.38000
1761111;-0.39500
1763888;-0.42000
1766666;-0.40500
1769444;-0.39500
1772222;-0.39000
1775000;-0.39000
1777777;-0.40000
1780555;-0.41500
1783333;-0.41500
1786111;-0.41000
1788888;-0.40000
1791666;-0.40000
1794444;-0.41000
1797222;-0.41500
1799999;-0.41500
1802777;-0.41000
1805555;-0.39500
1808333;-0.41000
1811111;-0.42000
1813888;-0.43000
1816666;-0.42000
1819444;-0.42000
1822222;-0.40500
1824999;-0.40500
1827777;-0.41500
1830555;-0.43000
1833333;-0.42000
1836111;-0.40000
1838888;-0.41000
1841666;-0.40500
1844444;-0.41000
1847222;-0.42500
1849999;-0.42000
1852777;-0.42000
1855555;-0.41500
1858333;-0.42000
1861111;-0.42000
1863888;-0.42500
1866666;-0.42000
1869444;-0.42500
1872222;-0.41500
1874999;-0.41000
1877777;-0.42500
1880555;-0.42500
1883333;-0.43000
1886111;-0.41500
1888888;-0.41000
1891666;-0.39500
1894444;-0.41000
1897222;-0.41500
1899999;-0.41500
1902777;-0.41000
1905555;-0.41000
1908333;-0.42000
1911111;-0.42500
1913888;-0.44000
1916666;-0.44000
1919444;-0.44000
1922222;-0.43000
1924999;-0.43000
1927777;-0.43500
1930555;-0.44000
1933333;-0.43000
1936111;-0.42500
1938888;-0.42500
1941666;-0.44000
1944444;-0.44000
1947222;-0.46000
1949999;-0.45500
1952777;-0.46500
1955555;-0.46000
1958333;-0.46000
1961111;-0.46000
1963888;-0.48000
1966666;-0.45500
1969444;-0.45000
1972222;-0.44500
1974999;-0.43500
1977777;-0.43000
1980555;-0.42000
1983333;-0.41000
1986111;-0.38000
1988888;-0.37000
1991666;-0.35000
1994444;-0.34500
1997222;-0.35500
1999999;-0.34000
2002777;-0.33000
2005555;-0.31500
2008333;-0.31000
2011111;-0.31000
2013888;-0.31000
2016666;-0.30500
2019444;-0.29500
2022222;-0.28500
2024999;-0.29500
2027777;-0.30500
2030555;-0.31000
2033333;-0.29500
2036111;-0.30000
2038888;-0.29000
2041666;-0.28000
2044444;-0.29500
2047222;-0.30000
2049999;-0.29500
2052777;-0.29000
2055555;-0.29000
2058333;-0.29000
2061111;-0.29000
2063888;-0.29500
2066666;-0.30500
2069444;-0.29500
2072222;-0.28000
2074999;-0.30500
2077777;-0.30500
2080555;-0.31500
2083333;-0.31000
2086111;-0.31500
2088888;-0.30500
2091666;-0.32000
2094444;-0.32000
2097222;-0.34000
2099999;-0.33000
2102777;-0.32000
2105555;-0.31500
2108333;-0.31500
2111111;-0.32000
2113888;-0.33000
2116666;-0.33500
2119444;-0.32500
2122222;-0.31500
2124999;-0.31500
2127777;-0.31500
2130555;-0.34000
2133333;-0.33000
2136111;-0.31500
2138888;-0.31500
2141666;-0.32500
2144444;-0.33500
2147222;-0.34000
2149999;-0.34000
2152777;-0.33500
2155555;-0.33500
2158333;-0.34500
2161111;-0.35500
2163888;-0.36000
2166666;-0.35000
2169444;-0.34500
2172222;-0.33500
2174999;-0.35000
2177777;-0.35500
2180555;-0.35000
2183333;-0.35500
2186110;-0.33500
2188888;-0.34000
2191666;-0.33000
2194444;-0.33500
2197222;-0.35000
2199999;-0.34500
2202777;-0.34000
2205555;-0.33000
2208333;-0.32500
2211110;-0.32500
2213888;-0.35000
2216666;-0.33000
2219444;-0.31500
2222222;-0.32000
2224999;-0.32500
2227777;-0.34000
2230555;-0.34000
2233333;-0.33500
2236110;-0.31000
2238888;-0.29500
2241666;-0.28000
2244444;-0.27500
2247222;-0.26500
2249999;-0.27000
2252777;-0.25500
2255555;-0.24500
2258333;-0.25000
2261110;-0.24500
2263888;-0.24500
2266666;-0.24500
2269444;-0.24000
2272222;-0.22000
2274999;-0.22000
2277777;-0.21500
2280555;-0.22500
2283333;-0.22500
2286110;-0.22500
2288888;-0.23500
2291666;-0.23500
2294444;-0.25000
2297222;-0.25000
2299999;-0.24500
2302777;-0.23000
2305555;-0.23000
2308333;-0.24500
2311110;-0.25000
2313888;-0.24500
2316666;-0.22000
2319444;-0.21500
2322222;-0.22500
2324999;-0.26000
2327777;-0.29500
2330555;-0.31500
2333333;-0.32500
2336110;-0.33500
2338888;-0.33500
2341666;-0.35000
2344444;-0.36000
2347222;-0.36500
2349999;-0.36000
2352777;-0.35500
2355555;-0.33500
2358333;-0.33500
2361110;-0.35000
2363888;-0.35500
2366666;-0.36000
2369444;-0.35000
2372222;-0.35000
2374999;-0.34000
2377777;-0.36000
2380555;-0.37000
2383333;-0.37000
2386110;-0.35500
2388888;-0.36000
2391666;-0.36000
2394444;-0.37000
2397222;-0.37500
2399999;-0.38500
2402777;-0.38500
2405555;-0.43000
2408333;-0.47500
2411110;-0.50000
2413888;-0.50000
2416666;-0.50500
2419444;-0.53500
2422222;-0.55500
2424999;-0.53000
2427777;-0.41500
2430555;-0.25500
2433333;-0.05000
2436110;0.17000
2438888;0.44000
2441666;0.73000
2444444;0.96000
2447222;1.08000
2449999;1.08000
2452777;0.87500
2455555;0.43500
2458333;-0.07000
2461110;-0.42000
2463888;-0.51500
2466666;-0.47000
2469444;-0.39000
2472222;-0.35500
2474999;-0.37000
2477777;-0.38000
2480555;-0.40000
2483333;-0.40000
2486110;-0.39000
2488888;-0.37000
2491666;-0.37500
2494444;-0.39500
2497222;-0.41000
2499999;-0.40000
2502777;-0.40000
2505555;-0.38500
2508333;-0.38000
2511110;-0.39000
2513888;-0.41000
2516666;-0.40500
2519444;-0.39500
2522222;-0.38500
2524999;-0.39000
2527777;-0.41000
2530555;-0.42000
2533333;-0.40500
2536110;-0.41500
2538888;-0.42000
2541666;-0.41000
2544444;-0.41500
2547222;-0.42000
2549999;-0.42500
2552777;-0.41000
2555555;-0.42000
2558333;-0.42500
2561110;-0.41500
2563888;-0.43000
2566666;-0.43500
2569444;-0.41500
2572222;-0.40500
2574999;-0.41000
2577777;-0.42500
2580555;-0.43000
2583333;-0.42000
2586110;-0.41000
2588888;-0.40000
2591666;-0.41000
2594444;-0.41000
2597221;-0.43000
2599999;-0.41000
2602777;-0.40500
2605555;-0.40000
2608333;-0.40500
2611110;-0.42000
2613888;-0.43000
2616666;-0.42000
2619444;-0.42500
2622221;-0.40500
2624999;-0.41500
2627777;-0.41500
2630555;-0.42500
2633333;-0.42500
2636110;-0.41500
2638888;-0.40500
2641666;-0.40500
2644444;-0.41500
2647221;-0.42500
2649999;-0.42000
2652777;-0.42000
2655555;-0.40500
2658333;-0.41500
2661110;-0.41500
2663888;-0.43500
2666666;-0.42500
2669444;-0.42000
2672221;-0.41000
2674999;-0.41500
2677777;-0.42000
2680555;-0.43000
2683333;-0.43500
2686110;-0.43000
2688888;-0.42500
2691666;-0.41000
2694444;-0.42500
2697221;-0.43000
2699999;-0.43000
2702777;-0.42500
2705555;-0.42000
2708333;-0.40500
2711110;-0.41000
2713888;-0.42000
2716666;-0.41500
2719444;-0.40500
2722221;-0.39000
2724999;-0.37500
2727777;-0.37500
2730555;-0.38000
2733333;-0.36000
2736110;-0.34500
2738888;-0.32500
2741666;-0.33000
2744444;-0.31500
2747221;-0.32500
2749999;-0.31500
2752777;-0.31000
2755555;-0.30000
2758333;-0.29000
2761110;-0.30000
2763888;-0.31500
2766666;-0.30500
2769444;-0.30000
2772221;-0.31000
2774999;-0.31000
2777777;-0.30000
2780555;-0.31000
2783333;-0.30500
2786110;-0.30000
2788888;-0.29500
2791666;-0.29000
2794444;-0.30500
2797221;-0.30500
2799999;-0.31000
2802777;-0.30000
2805555;-0.30000
2808333;-0.30000
2811110;-0.31000
2813888;-0.33500
2816666;-0.32500
2819444;-0.31500
2822221;-0.31000
2824999;-0.31500
2827777;-0.31500
2830555;-0.33500
2833333;-0.32000
2836110;-0.32000
2838888;-0.31500
2841666;-0.31500
2844444;-0.32500
2847221;-0.34500
2849999;-0.34000
2852777;-0.33500
2855555;-0.32500
2858333;-0.32500
2861110;-0.33500
2863888;-0.35000
2866666;-0.33500
2869444;-0.33500
2872221;-0.33500
2874999;-0.32500
2877777;-0.34000
2880555;-0.35000
2883333;-0.36500
2886110;-0.35500
2888888;-0.35000
2891666;-0.35500
2894444;-0.36000
2897221;-0.37000
2899999;-0.36500
2902777;-0.35500
2905555;-0.35000
2908333;-0.36500
2911110;-0.37500
2913888;-0.37500
2916666;-0.37500
2919444;-0.37500
2922221;-0.37000
2924999;-0.36000
2927777;-0.37000
2930555;-0.37500
2933333;-0.37500
2936110;-0.36500
2938888;-0.35000
2941666;-0.34500
2944444;-0.35000
2947221;-0.37500
2949999;-0.36500
2952777;-0.35000
2955555;-0.36000
2958333;-0.34500
2961110;-0.35500
2963888;-0.36500
2966666;-0.36000
2969444;-0.35500
2972221;-0.35500
2974999;-0.35500
2977777;-0.36000
2980555;-0.37500
2983332;-0.36000
2986110;-0.33000
2988888;-0.30500
2991666;-0.29000
2994444;-0.29000
2997221;-0.29000
2999999;-0.28500
3002777;-0.27000
3005555;-0.25500
3008332;-0.25000
3011110;-0.24000
3013888;-0.24500
3016666;-0.23500
3019444;-0.22500
3022221;-0.22500
3024999;-0.22000
3027777;-0.23000
3030555;-0.25500
3033332;-0.25000
3036110;-0.24500
3038888;-0.25000
3041666;-0.26000
3044444;-0.27000
3047221;-0.27000
3049999;-0.26000
3052777;-0.25000
3055555;-0.24500
3058332;-0.25500
3061110;-0.26500
3063888;-0.27000
3066666;-0.24500
3069444;-0.22000
3072221;-0.21000
3074999;-0.24500
3077777;-0.28000
3080555;-0.29000
3083332;-0.31500
3086110;-0.31000
3088888;-0.31500
3091666;-0.33500
3094444;-0.34500
3097221;-0.37000
3099999;-0.36000
3102777;-0.35500
3105555;-0.34500
3108332;-0.33500
3111110;-0.34500
3113888;-0.35500
3116666;-0.36000
3119444;-0.36000
3122221;-0.36000
3124999;-0.36500
3127777;-0.38000
3130555;-0.39500
3133332;-0.38500
3136110;-0.37500
3138888;-0.36500
3141666;-0.36000
3144444;-0.36000
3147221;-0.37500
3149999;-0.37500
3152777;-0.37500
3155555;-0.37500
3158332;-0.39000
3161110;-0.42000
3163888;-0.46500
3166666;-0.49500
3169444;-0.50500
3172221;-0.52500
3174999;-0.56000
3177777;-0.60000
3180555;-0.57000
3183332;-0.48500
3186110;-0.35000
3188888;-0.20000
3191666;-0.06000
3194444;0.07500
3197221;0.24000
3199999;0.46000
3202777;0.71500
3205555;0.95000
3208332;1.08500
3211110;1.16000
3213888;1.16500
3216666;1.06000
3219444;0.73500
3222221;0.26000
3224999;-0.21000
3227777;-0.45000
3230555;-0.48000
3233332;-0.42000
3236110;-0.36500
3238888;-0.35000
3241666;-0.37000
3244444;-0.38500
3247221;-0.39500
3249999;-0.40000
3252777;-0.39500
3255555;-0.38000
3258332;-0.39500
3261110;-0.39000
3263888;-0.41000
3266666;-0.40000
3269444;-0.39000
3272221;-0.38000
3274999;-0.38500
3277777;-0.40000
3280555;-0.40000
3283332;-0.40500
3286110;-0.40000
3288888;-0.39500
3291666;-0.38500
3294444;-0.41000
3297221;-0.42500
3299999;-0.40500
3302777;-0.41500
3305555;-0.39500
3308332;-0.39000
3311110;-0.40500
3313888;-0.41500
3316666;-0.42000
3319444;-0.41000
3322221;-0.40000
3324999;-0.42000
3327777;-0.41500
3330555;-0.41000
3333332;-0.41500
3336110;-0.40500
3338888;-0.40000
3341666;-0.39500
3344444;-0.40000
3347221;-0.41500
3349999;-0.40000
3352777;-0.40500
3355555;-0.39000
3358332;-0.38500
3361110;-0.39500
3363888;-0.41000
3366666;-0.40500
3369444;-0.40000
3372221;-0.39000
3374999;-0.40000
3377777;-0.40500
3380555;-0.42500
3383332;-0.42000
3386110;-0.40500
3388888;-0.40500
3391666;-0.41500
3394443;-0.42500
3397221;-0.42500
3399999;-0.41500
3402777;-0.41000
3405555;-0.40000
3408332;-0.40000
3411110;-0.41000
3413888;-0.41500
3416666;-0.41500
3419443;-0.39500
3422221;-0.39500
3424999;-0.39000
3427777;-0.40000
3430555;-0.40500
3433332;-0.40500
3436110;-0.40500
3438888;-0.39500
3441666;-0.40500
3444443;-0.40500
3447221;-0.42000
3449999;-0.41000
3452777;-0.40500
3455555;-0.40500
3458332;-0.41000
3461110;-0.42500
3463888;-0.42500
3466666;-0.41000
3469443;-0.40500
3472221;-0.39000
3474999;-0.39000
3477777;-0.39000
3480555;-0.40000
3483332;-0.39500
3486110;-0.36500
3488888;-0.36000
3491666;-0.36500
3494443;-0.35000
3497221;-0.35000
3499999;-0.34000
3502777;-0.33000
3505555;-0.31500
3508332;-0.31000
3511110;-0.31500
3513888;-0.32500
3516666;-0.32000
3519443;-0.29000
3522221;-0.28000
3524999;-0.28500
3527777;-0.30500
3530555;-0.31500
3533332;-0.30000
3536110;-0.31000
3538888;-0.29500
3541666;-0.28500
3544443;-0.29500
3547221;-0.31000
3549999;-0.31000
3552777;-0.29500
3555555;-0.30000
3558332;-0.30000
3561110;-0.30000
3563888;-0.31000
3566666;-0.30000
3569443;-0.30500
3572221;-0.29000
3574999;-0.30000
3577777;-0.30500
3580555;-0.31500
3583332;-0.32000
3586110;-0.30500
3588888;-0.30000
3591666;-0.30500
3594443;-0.31000
3597221;-0.31500
3599999;-0.31500
3602777;-0.30000
3605555;-0.31000
3608332;-0.29500
3611110;-0.31000
3613888;-0.31500
3616666;-0.32000
3619443;-0.30500
3622221;-0.31500
3624999;-0.32500
3627777;-0.33500
3630555;-0.33500
3633332;-0.34000
3636110;-0.33500
3638888;-0.32500
3641666;-0.33000
3644443;-0.34500
3647221;-0.34500
3649999;-0.35500
3652777;-0.33500
3655555;-0.34500
3658332;-0.35500
3661110;-0.35500
3663888;-0.36500
3666666;-0.36000
3669443;-0.35000
3672221;-0.34000
3674999;-0.35000
3677777;-0.35000
3680555;-0.38000
3683332;-0.38000
3686110;-0.36000
3688888;-0.36000
3691666;-0.36500
3694443;-0.38000
3697221;-0.38000
3699999;-0.38000
3702777;-0.37500
3705555;-0.37000
3708332;-0.36500
3711110;-0.37500
3713888;-0.38500
3716666;-0.37500
3719443;-0.37500
3722221;-0.36500
3724999;-0.37000
3727777;-0.38000
3730555;-0.38500
3733332;-0.38000
3736110;-0.37000
3738888;-0.35500
3741666;-0.36000
3744443;-0.37000
3747221;-0.37000
3749999;-0.37000
3752777;-0.36000
3755555;-0.34500
3758332;-0.35000
3761110;-0.35500
3763888;-0.35500
3766666;-0.35500
3769443;-0.34500
3772221;-0.35000
3774999;-0.35000
3777777;-0.35000
3780554;-0.36000
3783332;-0.35000
3786110;-0.33500
3788888;-0.30500
3791666;-0.30500
3794443;-0.28500
3797221;-0.28500
3799999;-0.27500
3802777;-0.27500
3805554;-0.27000
3808332;-0.27000
3811110;-0.26500
3813888;-0.26500
3816666;-0.25000
3819443;-0.22000
3822221;-0.22500
3824999;-0.22500
3827777;-0.24000
3830554;-0.25000
3833332;-0.25000
3836110;-0.24500
3838888;-0.24000
3841666;-0.24000
3844443;-0.24500
3847221;-0.25500
3849999;-0.26000
3852777;-0.23500
3855554;-0.23000
3858332;-0.22000
3861110;-0.21000
3863888;-0.24000
3866666;-0.26500
3869443;-0.29000
3872221;-0.30000
3874999;-0.30000
3877777;-0.31500
3880554;-0.33500
3883332;-0.34000
3886110;-0.34500
3888888;-0.33500
3891666;-0.34500
3894443;-0.35500
3897221;-0.37000
3899999;-0.37000
3902777;-0.36500
3905554;-0.36000
3908332;-0.34500
3911110;-0.35500
3913888;-0.37500
3916666;-0.37500
3919443;-0.36500
3922221;-0.35000
3924999;-0.36000
3927777;-0.36500
3930554;-0.36500
3933332;-0.37500
3936110;-0.36000
3938888;-0.36000
3941666;-0.37000
3944443;-0.37000
3947221;-0.38500
3949999;-0.38500
3952777;-0.37000
3955554;-0.36500
3958332;-0.38500
3961110;-0.43000
3963888;-0.48000
3966666;-0.51000
3969443;-0.50500
3972221;-0.53000
3974999;-0.56500
3977777;-0.54500
3980554;-0.46000
3983332;-0.31000
3986110;-0.11000
3988888;0.10500
3991666;0.36000
3994443;0.66500
3997221;0.89500
3999999;1.03500
4002777;1.04500
