time_ms;ecg_value
0;0.75500
2778;0.84500
5556;0.75500
8333;0.43500
11111;-0.01000
13889;-0.38500
16667;-0.56500
19444;-0.57500
22222;-0.53000
25000;-0.47500
27778;-0.45000
30556;-0.46000
33333;-0.48500
36111;-0.47000
38889;-0.45500
41667;-0.44500
44444;-0.45500
47222;-0.47000
50000;-0.46500
52778;-0.47000
55556;-0.47000
58333;-0.46000
61111;-0.46500
63889;-0.48000
66667;-0.49000
69444;-0.48000
72222;-0.47000
75000;-0.47000
77778;-0.47500
80556;-0.47500
83333;-0.48000
86111;-0.48000
88889;-0.46500
91667;-0.47000
94444;-0.47000
97222;-0.46000
100000;-0.48000
102778;-0.47000
105556;-0.46000
108333;-0.45500
111111;-0.47000
113889;-0.46500
116667;-0.47500
119444;-0.46500
122222;-0.46000
125000;-0.46000
127778;-0.45500
130556;-0.46000
133333;-0.46500
136111;-0.46500
138889;-0.46000
141667;-0.45500
144444;-0.46500
147222;-0.47000
150000;-0.47500
152778;-0.48000
155556;-0.47500
158333;-0.45500
161111;-0.45000
163889;-0.46000
166667;-0.47000
169444;-0.46500
172222;-0.46500
175000;-0.45000
177778;-0.46000
180556;-0.46500
183333;-0.47000
186111;-0.46500
188889;-0.45500
191667;-0.44500
194444;-0.44000
197222;-0.45000
200000;-0.45500
202778;-0.45000
205555;-0.45500
208333;-0.46000
211111;-0.46000
213889;-0.48000
216667;-0.48500
219444;-0.48000
222222;-0.47500
225000;-0.47500
227778;-0.45500
230555;-0.47500
233333;-0.48000
236111;-0.48000
238889;-0.46500
241667;-0.46500
244444;-0.46500
247222;-0.48000
250000;-0.48500
252778;-0.48000
255555;-0.46500
258333;-0.47000
261111;-0.47000
263889;-0.46500
266667;-0.48500
269444;-0.47500
272222;-0.45000
275000;-0.45000
277778;-0.44500
280555;-0.44500
283333;-0.45500
286111;-0.44000
288889;-0.42000
291667;-0.41000
294444;-0.40000
297222;-0.39000
300000;-0.39500
302778;-0.37500
305555;-0.35000
308333;-0.34500
311111;-0.34500
313889;-0.35500
316667;-0.34500
319444;-0.35500
322222;-0.33500
325000;-0.32500
327778;-0.33000
330555;-0.34000
333333;-0.35500
336111;-0.33500
338889;-0.34000
341667;-0.32500
344444;-0.34500
347222;-0.35000
350000;-0.35000
352778;-0.34500
355555;-0.34000
358333;-0.33000
361111;-0.32500
363889;-0.33500
366667;-0.33500
369444;-0.33500
372222;-0.32500
375000;-0.32500
377778;-0.33500
380555;-0.34000
383333;-0.35000
386111;-0.34000
388889;-0.32500
391667;-0.33000
394444;-0.32500
397222;-0.33500
400000;-0.34000
402778;-0.34000
405555;-0.33500
408333;-0.34000
411111;-0.34000
413889;-0.35500
416667;-0.36000
419444;-0.35000
422222;-0.35000
425000;-0.34000
427778;-0.34500
430555;-0.36000
433333;-0.36500
436111;-0.35000
438889;-0.34500
441667;-0.34500
444444;-0.35000
447222;-0.35500
450000;-0.36500
452778;-0.36500
455555;-0.35000
458333;-0.34500
461111;-0.36000
463889;-0.36500
466667;-0.37500
469444;-0.36500
472222;-0.36500
475000;-0.35000
477778;-0.35000
480555;-0.37000
483333;-0.36500
486111;-0.36500
488889;-0.35500
491667;-0.35500
494444;-0.36500
497222;-0.37000
500000;-0.37500
502778;-0.37500
505555;-0.36000
508333;-0.36000
511111;-0.35500
513889;-0.36500
516667;-0.37000
519444;-0.36000
522222;-0.35500
525000;-0.35000
527778;-0.34500
530555;-0.36000
533333;-0.36500
536111;-0.35500
538889;-0.35000
541667;-0.34000
544444;-0.34000
547222;-0.32500
550000;-0.34000
552778;-0.32500
555555;-0.31000
558333;-0.30000
561111;-0.29000
563889;-0.29500
566667;-0.30500
569444;-0.28500
572222;-0.28000
575000;-0.27000
577778;-0.26000
580555;-0.25500
583333;-0.26000
586111;-0.24500
588889;-0.24000
591667;-0.22500
594444;-0.21500
597222;-0.23000
600000;-0.23500
602778;-0.25000
605555;-0.24500
608333;-0.24000
611111;-0.22500
613889;-0.23000
616666;-0.24000
619444;-0.22500
622222;-0.19500
625000;-0.18000
627778;-0.19000
630555;-0.23000
633333;-0.28500
636111;-0.29000
638889;-0.29000
641666;-0.30500
644444;-0.32500
647222;-0.33000
650000;-0.35500
652778;-0.35500
655555;-0.35000
658333;-0.35500
661111;-0.35500
663889;-0.36500
666666;-0.37000
669444;-0.36000
672222;-0.35500
675000;-0.36000
677778;-0.35500
680555;-0.35500
683333;-0.37500
686111;-0.37000
688889;-0.37000
691666;-0.36000
694444;-0.36000
697222;-0.37000
700000;-0.39000
702778;-0.38500
705555;-0.37000
708333;-0.38000
711111;-0.37000
713889;-0.39000
716666;-0.39000
719444;-0.39000
722222;-0.38000
725000;-0.36500
727778;-0.37500
730555;-0.40500
733333;-0.44000
736111;-0.47500
738889;-0.48500
741666;-0.49000
744444;-0.53000
747222;-0.57500
750000;-0.58000
752778;-0.50500
755555;-0.36500
758333;-0.21000
761111;-0.05000
763889;0.18000
766666;0.45000
769444;0.70500
772222;0.86000
775000;0.89000
777778;0.76500
780555;0.45000
783333;0.05000
786111;-0.31000
788889;-0.49500
791666;-0.53500
794444;-0.51000
797222;-0.47500
800000;-0.44500
802778;-0.42000
805555;-0.42000
808333;-0.41500
811111;-0.41000
813889;-0.41000
816666;-0.42000
819444;-0.43500
822222;-0.42500
825000;-0.41000
827778;-0.42500
830555;-0.43000
833333;-0.43000
836111;-0.43000
838889;-0.43000
841666;-0.42000
844444;-0.42500
847222;-0.43500
850000;-0.43500
852778;-0.44000
855555;-0.43000
858333;-0.42000
861111;-0.43000
863889;-0.43000
866666;-0.44000
869444;-0.43000
872222;-0.42000
875000;-0.41000
877778;-0.41000
880555;-0.41500
883333;-0.42000
886111;-0.40500
888889;-0.40000
891666;-0.38500
894444;-0.40500
897222;-0.41500
900000;-0.41500
902778;-0.42000
905555;-0.40500
908333;-0.41000
911111;-0.40500
913889;-0.42500
916666;-0.43000
919444;-0.42500
922222;-0.42500
925000;-0.41500
927778;-0.41500
930555;-0.44000
933333;-0.45000
936111;-0.43000
938889;-0.42500
941666;-0.41500
944444;-0.41500
947222;-0.42500
950000;-0.43500
952778;-0.43000
955555;-0.41500
958333;-0.41000
961111;-0.41000
963889;-0.43000
966666;-0.42500
969444;-0.42000
972222;-0.40500
975000;-0.40500
977778;-0.40500
980555;-0.40500
983333;-0.42500
986111;-0.42500
988889;-0.42000
991666;-0.41000
994444;-0.40500
997222;-0.41500
1000000;-0.42000
1002777;-0.42000
1005555;-0.41000
1008333;-0.40000
1011111;-0.40500
1013889;-0.40500
1016666;-0.41500
1019444;-0.42000
1022222;-0.40500
1025000;-0.39500
1027777;-0.41000
1030555;-0.41000
1033333;-0.42500
1036111;-0.41500
1038889;-0.40500
1041666;-0.39000
1044444;-0.40000
1047222;-0.39500
1050000;-0.42000
1052777;-0.41500
1055555;-0.40000
1058333;-0.39000
1061111;-0.39000
1063889;-0.39000
1066666;-0.39500
1069444;-0.39500
1072222;-0.36000
1075000;-0.36000
1077777;-0.37000
1080555;-0.35500
1083333;-0.36500
1086111;-0.35500
1088889;-0.34500
1091666;-0.34000
1094444;-0.33000
1097222;-0.32500
1100000;-0.32500
1102777;-0.32000
1105555;-0.31500
1108333;-0.30500
1111111;-0.30500
1113889;-0.30500
1116666;-0.31500
1119444;-0.31000
1122222;-0.32000
1125000;-0.30000
1127777;-0.30000
1130555;-0.31000
1133333;-0.32000
1136111;-0.30500
1138889;-0.30500
1141666;-0.29000
1144444;-0.30000
1147222;-0.30500
1150000;-0.31500
1152777;-0.32000
1155555;-0.31500
1158333;-0.31000
1161111;-0.31000
1163889;-0.32500
1166666;-0.32000
1169444;-0.32500
1172222;-0.31500
1175000;-0.31500
1177777;-0.31000
1180555;-0.32500
1183333;-0.33500
1186111;-0.33000
1188889;-0.31000
1191666;-0.31500
1194444;-0.32500
1197222;-0.32500
1200000;-0.33000
1202777;-0.33000
1205555;-0.32000
1208333;-0.31000
1211111;-0.31500
1213889;-0.32000
1216666;-0.33000
1219444;-0.33500
1222222;-0.33000
1225000;-0.32000
1227777;-0.33000
1230555;-0.34500
1233333;-0.34500
1236111;-0.34500
1238889;-0.34500
1241666;-0.34500
1244444;-0.35000
1247222;-0.35500
1250000;-0.36500
1252777;-0.36000
1255555;-0.35500
1258333;-0.35500
1261111;-0.35000
1263889;-0.35000
1266666;-0.36000
1269444;-0.37000
1272222;-0.35500
1275000;-0.34500
1277777;-0.35000
1280555;-0.36000
1283333;-0.36500
1286111;-0.35500
1288889;-0.36000
1291666;-0.34500
1294444;-0.35500
1297222;-0.36000
1300000;-0.37500
1302777;-0.36000
1305555;-0.36500
1308333;-0.36000
1311111;-0.35500
1313889;-0.35000
1316666;-0.36500
1319444;-0.36500
1322222;-0.34500
1325000;-0.34500
1327777;-0.35500
1330555;-0.36000
1333333;-0.36000
1336111;-0.35500
1338889;-0.34000
1341666;-0.33500
1344444;-0.33500
1347222;-0.34500
1350000;-0.36000
1352777;-0.35500
1355555;-0.35000
1358333;-0.33000
1361111;-0.32500
1363889;-0.31000
1366666;-0.31000
1369444;-0.31000
1372222;-0.29500
1375000;-0.28500
1377777;-0.28500
1380555;-0.28500
1383333;-0.29500
1386111;-0.28000
1388888;-0.27500
1391666;-0.26500
1394444;-0.26000
1397222;-0.25000
1400000;-0.25000
1402777;-0.23000
1405555;-0.21500
1408333;-0.20500
1411111;-0.21500
1413888;-0.23500
1416666;-0.25500
1419444;-0.25000
1422222;-0.24500
1425000;-0.23500
1427777;-0.23000
1430555;-0.23500
1433333;-0.24000
1436111;-0.23000
1438888;-0.19500
1441666;-0.20000
1444444;-0.22500
1447222;-0.28500
1450000;-0.31000
1452777;-0.30500
1455555;-0.31500
1458333;-0.32000
1461111;-0.34000
1463888;-0.35500
1466666;-0.37000
1469444;-0.36500
1472222;-0.37000
1475000;-0.36500
1477777;-0.38000
1480555;-0.37000
1483333;-0.39000
1486111;-0.38000
1488888;-0.38000
1491666;-0.36500
1494444;-0.37500
1497222;-0.39000
1500000;-0.40000
1502777;-0.39500
1505555;-0.39000
1508333;-0.38000
1511111;-0.39500
1513888;-0.39500
1516666;-0.41500
1519444;-0.40500
1522222;-0.38000
1525000;-0.38500
1527777;-0.39000
1530555;-0.38500
1533333;-0.39500
1536111;-0.40000
1538888;-0.40000
1541666;-0.40000
1544444;-0.41000
1547222;-0.44500
1550000;-0.49500
1552777;-0.51500
1555555;-0.51500
1558333;-0.53500
1561111;-0.58000
1563888;-0.60500
1566666;-0.58500
1569444;-0.48500
1572222;-0.36000
1575000;-0.19500
1577777;-0.01500
1580555;0.22000
1583333;0.47500
1586111;0.67000
1588888;0.77000
1591666;0.76000
1594444;0.59000
1597222;0.29000
1600000;-0.05500
1602777;-0.35500
1605555;-0.52000
1608333;-0.56500
1611111;-0.54000
1613888;-0.50500
1616666;-0.48000
1619444;-0.48000
1622222;-0.46000
1625000;-0.46500
1627777;-0.45000
1630555;-0.44500
1633333;-0.46000
1636111;-0.46500
1638888;-0.46000
1641666;-0.45500
1644444;-0.45500
1647222;-0.47000
1650000;-0.47000
1652777;-0.46500
1655555;-0.45500
1658333;-0.45500
1661111;-0.45500
1663888;-0.47500
1666666;-0.48000
1669444;-0.47000
1672222;-0.46500
1675000;-0.45000
1677777;-0.46000
1680555;-0.45000
1683333;-0.46500
1686111;-0.45500
1688888;-0.45500
1691666;-0.45000
1694444;-0.45500
1697222;-0.45000
1700000;-0.46500
1702777;-0.46000
1705555;-0.45500
1708333;-0.45500
1711111;-0.47000
1713888;-0.46000
1716666;-0.48000
1719444;-0.47000
1722222;-0.46500
1725000;-0.45000
1727777;-0.45500
1730555;-0.45500
1733333;-0.46000
1736111;-0.46000
1738888;-0.45000
1741666;-0.44500
1744444;-0.45500
1747222;-0.46500
1750000;-0.47000
1752777;-0.46500
1755555;-0.45000
1758333;-0.44500
1761111;-0.44500
1763888;-0.46000
1766666;-0.47000
1769444;-0.46500
1772222;-0.45000
1775000;-0.44500
1777777;-0.45500
1780555;-0.47000
1783333;-0.47000
1786111;-0.47500
1788888;-0.45500
1791666;-0.44500
1794444;-0.44000
1797222;-0.45000
1799999;-0.46000
1802777;-0.45500
1805555;-0.45000
1808333;-0.45500
1811111;-0.46500
1813888;-0.47500
1816666;-0.48500
1819444;-0.47000
1822222;-0.46500
1824999;-0.46000
1827777;-0.47000
1830555;-0.47500
1833333;-0.50000
1836111;-0.51000
1838888;-0.50500
1841666;-0.51500
1844444;-0.51000
1847222;-0.50500
1849999;-0.51000
1852777;-0.51500
1855555;-0.51500
1858333;-0.51000
1861111;-0.50500
1863888;-0.50000
1866666;-0.51000
1869444;-0.50000
1872222;-0.48500
1874999;-0.48000
1877777;-0.46500
1880555;-0.46000
1883333;-0.45500
1886111;-0.44000
1888888;-0.43500
1891666;-0.43000
1894444;-0.42500
1897222;-0.44000
1899999;-0.44000
1902777;-0.43000
1905555;-0.40500
1908333;-0.40000
1911111;-0.39500
1913888;-0.39500
1916666;-0.40000
1919444;-0.39000
1922222;-0.38000
1924999;-0.38500
1927777;-0.38500
1930555;-0.37500
1933333;-0.39000
1936111;-0.38500
1938888;-0.36500
1941666;-0.35500
1944444;-0.35500
1947222;-0.36500
1949999;-0.38000
1952777;-0.37000
1955555;-0.36500
1958333;-0.35500
1961111;-0.36500
1963888;-0.36000
1966666;-0.37000
1969444;-0.36500
1972222;-0.35500
1974999;-0.36000
1977777;-0.36500
1980555;-0.36500
1983333;-0.38000
1986111;-0.39000
1988888;-0.38000
1991666;-0.37500
1994444;-0.37000
1997222;-0.38000
1999999;-0.38500
2002777;-0.38500
2005555;-0.38500
2008333;-0.37000
2011111;-0.38500
2013888;-0.39000
2016666;-0.39000
2019444;-0.40000
2022222;-0.40000
2024999;-0.40000
2027777;-0.40000
2030555;-0.40000
2033333;-0.41000
2036111;-0.40500
2038888;-0.38500
2041666;-0.38500
2044444;-0.39500
2047222;-0.40500
2049999;-0.41500
2052777;-0.41000
2055555;-0.39500
2058333;-0.39500
2061111;-0.39000
2063888;-0.40500
2066666;-0.43000
2069444;-0.42000
2072222;-0.42000
2074999;-0.41500
2077777;-0.42000
2080555;-0.42000
2083333;-0.43000
2086111;-0.42500
2088888;-0.42000
2091666;-0.43500
2094444;-0.42500
2097222;-0.42500
2099999;-0.43000
2102777;-0.42500
2105555;-0.41500
2108333;-0.41500
2111111;-0.42000
2113888;-0.42500
2116666;-0.43500
2119444;-0.44000
2122222;-0.41000
2124999;-0.41000
2127777;-0.40000
2130555;-0.41000
2133333;-0.42500
2136111;-0.43000
2138888;-0.43000
2141666;-0.42000
2144444;-0.42500
2147222;-0.42000
2149999;-0.42500
2152777;-0.43000
2155555;-0.42500
2158333;-0.41000
2161111;-0.40500
2163888;-0.42500
2166666;-0.42500
2169444;-0.41000
2172222;-0.39000
2174999;-0.37500
2177777;-0.37500
2180555;-0.37500
2183333;-0.38000
2186110;-0.36000
2188888;-0.36000
2191666;-0.33500
2194444;-0.33000
2197222;-0.34500
2199999;-0.34500
2202777;-0.34500
2205555;-0.32500
2208333;-0.31000
2211110;-0.31000
2213888;-0.32000
2216666;-0.32500
2219444;-0.32500
2222222;-0.32000
2224999;-0.30500
2227777;-0.32000
2230555;-0.30500
2233333;-0.32000
2236110;-0.31000
2238888;-0.30000
2241666;-0.28000
2244444;-0.28500
2247222;-0.29500
2249999;-0.30500
2252777;-0.28000
2255555;-0.26000
2258333;-0.25500
2261110;-0.28500
2263888;-0.34000
2266666;-0.36500
2269444;-0.38500
2272222;-0.37000
2274999;-0.37000
2277777;-0.38000
2280555;-0.40500
2283333;-0.42500
2286110;-0.44000
2288888;-0.44500
2291666;-0.44000
2294444;-0.43000
2297222;-0.43000
2299999;-0.44500
2302777;-0.44500
2305555;-0.43000
2308333;-0.43500
2311110;-0.43500
2313888;-0.43500
2316666;-0.45500
2319444;-0.45500
2322222;-0.45000
2324999;-0.44500
2327777;-0.44500
2330555;-0.45500
2333333;-0.46000
2336110;-0.45500
2338888;-0.45500
2341666;-0.44500
2344444;-0.43500
2347222;-0.45000
2349999;-0.46000
2352777;-0.46500
2355555;-0.49000
2358333;-0.50500
2361110;-0.55000
2363888;-0.57500
2366666;-0.62000
2369444;-0.65000
2372222;-0.64500
2374999;-0.59000
2377777;-0.47000
2380555;-0.33000
2383333;-0.19000
2386110;0.02000
2388888;0.30000
2391666;0.56000
2394444;0.75500
2397222;0.84000
2399999;0.80500
2402777;0.57000
2405555;0.22000
2408333;-0.14000
2411110;-0.40500
2413888;-0.57000
2416666;-0.62500
2419444;-0.61500
2422222;-0.58000
2424999;-0.52500
2427777;-0.51000
2430555;-0.51000
