time_ms;ecg_value
0;1.08000
2778;1.17000
5556;1.13500
8333;0.87500
11111;0.44000
13889;-0.03000
16667;-0.33000
19444;-0.43000
22222;-0.40500
25000;-0.35500
27778;-0.33500
30556;-0.33500
33333;-0.33500
36111;-0.33500
38889;-0.35000
41667;-0.35500
44444;-0.36500
47222;-0.36500
50000;-0.35500
52778;-0.36000
55556;-0.37000
58333;-0.37000
61111;-0.38000
63889;-0.37000
66667;-0.37500
69444;-0.36000
72222;-0.36000
75000;-0.37000
77778;-0.38500
80556;-0.38000
83333;-0.38000
86111;-0.36500
88889;-0.37000
91667;-0.38000
94444;-0.39000
97222;-0.38000
100000;-0.37500
102778;-0.37500
105556;-0.37000
108333;-0.38500
111111;-0.38500
113889;-0.38000
116667;-0.37000
119444;-0.37000
122222;-0.38000
125000;-0.38500
127778;-0.39500
130556;-0.39000
133333;-0.37000
136111;-0.37000
138889;-0.38000
141667;-0.38500
144444;-0.38000
147222;-0.38500
150000;-0.38500
152778;-0.37500
155556;-0.38500
158333;-0.39000
161111;-0.39000
163889;-0.39000
166667;-0.38000
169444;-0.38000
172222;-0.37500
175000;-0.39000
177778;-0.39500
180556;-0.39500
183333;-0.38000
186111;-0.38000
188889;-0.38500
191667;-0.39000
194444;-0.39500
197222;-0.39500
200000;-0.39000
202778;-0.38000
205555;-0.38000
208333;-0.38500
211111;-0.40500
213889;-0.39500
216667;-0.39500
219444;-0.38000
222222;-0.37500
225000;-0.38000
227778;-0.39000
230555;-0.40000
233333;-0.39500
236111;-0.39500
238889;-0.38000
241667;-0.38000
244444;-0.39500
247222;-0.39000
250000;-0.40000
252778;-0.37500
255555;-0.38000
258333;-0.38500
261111;-0.40500
263889;-0.38500
266667;-0.38000
269444;-0.36500
272222;-0.35000
275000;-0.36000
277778;-0.35500
280555;-0.34000
283333;-0.33000
286111;-0.31000
288889;-0.30500
291667;-0.29500
294444;-0.30000
297222;-0.28500
300000;-0.27500
302778;-0.26500
305555;-0.26500
308333;-0.26500
311111;-0.26500
313889;-0.26500
316667;-0.25500
319444;-0.25000
322222;-0.25000
325000;-0.26000
327778;-0.26500
330555;-0.26000
333333;-0.26000
336111;-0.24000
338889;-0.25500
341667;-0.26000
344444;-0.27000
347222;-0.27000
350000;-0.26000
352778;-0.24500
355555;-0.25500
358333;-0.27500
361111;-0.29000
363889;-0.28500
366667;-0.27000
369444;-0.26000
372222;-0.27000
375000;-0.26500
377778;-0.28000
380555;-0.28500
383333;-0.27000
386111;-0.28000
388889;-0.29000
391667;-0.28500
394444;-0.29500
397222;-0.29500
400000;-0.29000
402778;-0.28500
405555;-0.28000
408333;-0.28000
411111;-0.29500
413889;-0.29500
416667;-0.29000
419444;-0.28000
422222;-0.29000
425000;-0.30000
427778;-0.31500
430555;-0.32000
433333;-0.30000
436111;-0.30000
438889;-0.30500
441667;-0.31500
444444;-0.33500
447222;-0.33500
450000;-0.32000
452778;-0.32000
455555;-0.31500
458333;-0.32500
461111;-0.34000
463889;-0.33000
466667;-0.32500
469444;-0.32000
472222;-0.32500
475000;-0.32500
477778;-0.33500
480555;-0.33000
483333;-0.33000
486111;-0.32000
488889;-0.32500
491667;-0.32000
494444;-0.34500
497222;-0.33500
500000;-0.33000
502778;-0.31500
505555;-0.31500
508333;-0.32000
511111;-0.33500
513889;-0.33500
516667;-0.32000
519444;-0.32000
522222;-0.32500
525000;-0.33000
527778;-0.33000
530555;-0.32500
533333;-0.32000
536111;-0.31500
538889;-0.31500
541667;-0.32000
544444;-0.33000
547222;-0.33000
550000;-0.32000
552778;-0.31500
555555;-0.31500
558333;-0.31500
561111;-0.33500
563889;-0.31500
566667;-0.30000
569444;-0.29000
572222;-0.28500
575000;-0.26500
577778;-0.26500
580555;-0.25500
583333;-0.25000
586111;-0.25000
588889;-0.24500
591667;-0.24500
594444;-0.26000
597222;-0.24500
600000;-0.23000
602778;-0.21000
605555;-0.22000
608333;-0.21000
611111;-0.21500
613889;-0.22500
616666;-0.21500
619444;-0.21500
622222;-0.21500
625000;-0.23500
627778;-0.24500
630555;-0.24000
633333;-0.23000
636111;-0.23000
638889;-0.23000
641666;-0.23500
644444;-0.23000
647222;-0.19500
650000;-0.18500
652778;-0.19500
655555;-0.24000
658333;-0.26500
661111;-0.28500
663889;-0.29000
666666;-0.30000
669444;-0.31000
672222;-0.32500
675000;-0.33000
677778;-0.32000
680555;-0.33500
683333;-0.33500
686111;-0.33000
688889;-0.33000
691666;-0.33500
694444;-0.34000
697222;-0.34000
700000;-0.33500
702778;-0.33000
705555;-0.33500
708333;-0.34000
711111;-0.34500
713889;-0.34500
716666;-0.34500
719444;-0.34500
722222;-0.34000
725000;-0.35000
727778;-0.36000
730555;-0.35500
733333;-0.34500
736111;-0.34000
738889;-0.35000
741666;-0.37500
744444;-0.41500
747222;-0.46000
750000;-0.47500
752778;-0.50500
755555;-0.54000
758333;-0.58000
761111;-0.59500
763889;-0.53000
766666;-0.40000
769444;-0.26500
772222;-0.10000
775000;0.06500
777778;0.28000
780555;0.59500
783333;0.87000
786111;1.02000
788889;1.06000
791666;0.91500
794444;0.52500
797222;0.05500
800000;-0.30500
802778;-0.45500
805555;-0.45500
808333;-0.41000
811111;-0.38000
813889;-0.36000
816666;-0.36500
819444;-0.36500
822222;-0.37000
825000;-0.37500
827778;-0.38500
830555;-0.37500
833333;-0.37500
836111;-0.38500
838889;-0.37500
841666;-0.38000
844444;-0.39500
847222;-0.38500
850000;-0.38500
852778;-0.38500
855555;-0.38000
858333;-0.38500
861111;-0.40500
863889;-0.38500
866666;-0.38000
869444;-0.36500
872222;-0.38500
875000;-0.37000
877778;-0.38000
880555;-0.38000
883333;-0.37500
886111;-0.38500
888889;-0.37000
891666;-0.37500
894444;-0.39000
897222;-0.38500
900000;-0.37500
902778;-0.37500
905555;-0.37000
908333;-0.38500
911111;-0.39500
913889;-0.38500
916666;-0.37500
919444;-0.36000
922222;-0.37000
925000;-0.38000
927778;-0.38500
930555;-0.37500
933333;-0.37000
936111;-0.37000
938889;-0.35500
941666;-0.36500
944444;-0.37000
947222;-0.37500
950000;-0.36500
952778;-0.36500
955555;-0.38000
958333;-0.38500
961111;-0.38500
963889;-0.37500
966666;-0.37000
969444;-0.36000
972222;-0.35500
975000;-0.36000
977778;-0.38000
980555;-0.37000
983333;-0.34500
986111;-0.35000
988889;-0.36000
991666;-0.37500
994444;-0.37000
997222;-0.36500
1000000;-0.36500
1002777;-0.36000
1005555;-0.36500
1008333;-0.38000
1011111;-0.36000
1013889;-0.38000
1016666;-0.37000
1019444;-0.36000
1022222;-0.35000
1025000;-0.36000
1027777;-0.36500
1030555;-0.36000
1033333;-0.35000
1036111;-0.35500
1038889;-0.34500
1041666;-0.35000
1044444;-0.36000
1047222;-0.35500
1050000;-0.35000
1052777;-0.34500
1055555;-0.35000
1058333;-0.36000
1061111;-0.38000
1063889;-0.36000
1066666;-0.34000
1069444;-0.31000
1072222;-0.31500
1075000;-0.31000
1077777;-0.30500
1080555;-0.30000
1083333;-0.28500
1086111;-0.28500
1088889;-0.28000
1091666;-0.28000
1094444;-0.27500
1097222;-0.26000
1100000;-0.25000
1102777;-0.24000
1105555;-0.24000
1108333;-0.25500
1111111;-0.26000
1113889;-0.25500
1116666;-0.25000
1119444;-0.25000
1122222;-0.24000
1125000;-0.25500
1127777;-0.27000
1130555;-0.27000
1133333;-0.27000
1136111;-0.25500
1138889;-0.25000
1141666;-0.26000
1144444;-0.26000
1147222;-0.25000
1150000;-0.26000
1152777;-0.25500
1155555;-0.26000
1158333;-0.25500
1161111;-0.27500
1163889;-0.27000
1166666;-0.26500
1169444;-0.26000
1172222;-0.26500
1175000;-0.28500
1177777;-0.29500
1180555;-0.29000
1183333;-0.28000
1186111;-0.28500
1188889;-0.27500
1191666;-0.28000
1194444;-0.29000
1197222;-0.28500
1200000;-0.28500
1202777;-0.27000
1205555;-0.27500
1208333;-0.28500
1211111;-0.30500
1213889;-0.29500
1216666;-0.30000
1219444;-0.30000
1222222;-0.31500
1225000;-0.31500
1227777;-0.31000
1230555;-0.31500
1233333;-0.30000
1236111;-0.31500
1238889;-0.31500
1241666;-0.32000
1244444;-0.33000
1247222;-0.31500
1250000;-0.30500
1252777;-0.30500
1255555;-0.30000
1258333;-0.32000
1261111;-0.32000
1263889;-0.32000
1266666;-0.31500
1269444;-0.31500
1272222;-0.32000
1275000;-0.32000
1277777;-0.32500
1280555;-0.33000
1283333;-0.32000
1286111;-0.31000
1288889;-0.31500
1291666;-0.31500
1294444;-0.32500
1297222;-0.32500
1300000;-0.31500
1302777;-0.30000
1305555;-0.30000
1308333;-0.32000
1311111;-0.33000
1313889;-0.31500
1316666;-0.32000
1319444;-0.31000
1322222;-0.32000
1325000;-0.33000
1327777;-0.33500
1330555;-0.32500
1333333;-0.31000
1336111;-0.31500
1338889;-0.31000
1341666;-0.32500
1344444;-0.32500
1347222;-0.31000
1350000;-0.30500
1352777;-0.28500
1355555;-0.28500
1358333;-0.27500
1361111;-0.29500
1363889;-0.26500
1366666;-0.24500
1369444;-0.24000
1372222;-0.23500
1375000;-0.24500
1377777;-0.23500
1380555;-0.23500
1383333;-0.22000
1386111;-0.21500
1388888;-0.20500
1391666;-0.21500
1394444;-0.22500
1397222;-0.21500
1400000;-0.21500
1402777;-0.21000
1405555;-0.21000
1408333;-0.22000
1411111;-0.23500
1413888;-0.23500
1416666;-0.21000
1419444;-0.22500
1422222;-0.24000
1425000;-0.26000
1427777;-0.25000
1430555;-0.21000
1433333;-0.18500
1436111;-0.19000
1438888;-0.22500
1441666;-0.26500
1444444;-0.30500
1447222;-0.32000
1450000;-0.32500
1452777;-0.31000
1455555;-0.32000
1458333;-0.33000
1461111;-0.33500
1463888;-0.33000
1466666;-0.32000
1469444;-0.33500
1472222;-0.33500
1475000;-0.34000
1477777;-0.36000
1480555;-0.36000
1483333;-0.35000
1486111;-0.33500
1488888;-0.35000
1491666;-0.36000
1494444;-0.36000
1497222;-0.36500
1500000;-0.35000
1502777;-0.35000
1505555;-0.34500
1508333;-0.36500
1511111;-0.37000
1513888;-0.35500
1516666;-0.36000
1519444;-0.34000
1522222;-0.33500
1525000;-0.35500
1527777;-0.38500
1530555;-0.41000
1533333;-0.45000
1536111;-0.44500
1538888;-0.48000
1541666;-0.54000
1544444;-0.57500
1547222;-0.53000
1550000;-0.42000
1552777;-0.28000
1555555;-0.11000
1558333;0.08000
1561111;0.35000
1563888;0.64500
1566666;0.86000
1569444;0.94500
1572222;0.82000
1575000;0.49000
1577777;0.05500
1580555;-0.29000
1583333;-0.45000
1586111;-0.48000
1588888;-0.45000
1591666;-0.41500
1594444;-0.40500
1597222;-0.39500
1600000;-0.40500
1602777;-0.38500
1605555;-0.39000
1608333;-0.38500
1611111;-0.39000
1613888;-0.40000
1616666;-0.39000
1619444;-0.38500
1622222;-0.38500
1625000;-0.39000
1627777;-0.40500
1630555;-0.39500
1633333;-0.39000
1636111;-0.38000
1638888;-0.38000
1641666;-0.39000
1644444;-0.40500
1647222;-0.41500
1650000;-0.40500
1652777;-0.37500
1655555;-0.38000
1658333;-0.37500
1661111;-0.39500
1663888;-0.41000
1666666;-0.40000
1669444;-0.39500
1672222;-0.39000
1675000;-0.40000
1677777;-0.41000
1680555;-0.40500
1683333;-0.40500
1686111;-0.38500
1688888;-0.38500
1691666;-0.38500
1694444;-0.40000
1697222;-0.39000
1700000;-0.38500
1702777;-0.37500
1705555;-0.39500
1708333;-0.38500
1711111;-0.41000
1713888;-0.39500
1716666;-0.38500
1719444;-0.39000
1722222;-0.39500
1725000;-0.39500
1727777;-0.41000
1730555;-0.42000
1733333;-0.40000
1736111;-0.38500
1738888;-0.38500
1741666;-0.39000
1744444;-0.41000
1747222;-0.41000
1750000;-0.39500
1752777;-0.38500
1755555;-0.39500
1758333;-0.39500
1761111;-0.38000
1763888;-0.39500
1766666;-0.39000
1769444;-0.39000
1772222;-0.39500
1775000;-0.40000
1777777;-0.41500
1780555;-0.41500
1783333;-0.40500
1786111;-0.39500
1788888;-0.41000
1791666;-0.42500
1794444;-0.42500
1797222;-0.42500
1799999;-0.42500
1802777;-0.42500
1805555;-0.42500
1808333;-0.43500
1811111;-0.43500
1813888;-0.45500
1816666;-0.44500
1819444;-0.44000
1822222;-0.44500
1824999;-0.45000
1827777;-0.45500
1830555;-0.44000
1833333;-0.44000
1836111;-0.43000
1838888;-0.43500
1841666;-0.43500
1844444;-0.43500
1847222;-0.42000
1849999;-0.40000
1852777;-0.37500
1855555;-0.35500
1858333;-0.36000
1861111;-0.35500
1863888;-0.32500
1866666;-0.29500
1869444;-0.29500
1872222;-0.30000
1874999;-0.31500
1877777;-0.31000
1880555;-0.29500
1883333;-0.27500
1886111;-0.27500
1888888;-0.29500
1891666;-0.28500
1894444;-0.30500
1897222;-0.30000
1899999;-0.29000
1902777;-0.27000
1905555;-0.27000
1908333;-0.26500
1911111;-0.28500
1913888;-0.27500
1916666;-0.26500
1919444;-0.25000
1922222;-0.25000
1924999;-0.27000
1927777;-0.29000
1930555;-0.29000
1933333;-0.28500
1936111;-0.27500
1938888;-0.28500
1941666;-0.29000
1944444;-0.30000
1947222;-0.30000
1949999;-0.28500
1952777;-0.28500
1955555;-0.28500
1958333;-0.28500
1961111;-0.29500
1963888;-0.30000
1966666;-0.29500
1969444;-0.30000
1972222;-0.29500
1974999;-0.29000
1977777;-0.30500
1980555;-0.30500
1983333;-0.29500
1986111;-0.30000
1988888;-0.30000
1991666;-0.31500
1994444;-0.33000
1997222;-0.32500
1999999;-0.31500
2002777;-0.30000
2005555;-0.30000
2008333;-0.30500
2011111;-0.32500
2013888;-0.31500
2016666;-0.30500
2019444;-0.31500
2022222;-0.31500
2024999;-0.32500
2027777;-0.33500
2030555;-0.32500
2033333;-0.32500
2036111;-0.32000
2038888;-0.31500
2041666;-0.32000
2044444;-0.33500
2047222;-0.33000
2049999;-0.32500
2052777;-0.32000
2055555;-0.32000
2058333;-0.34000
2061111;-0.34500
2063888;-0.34000
2066666;-0.32500
2069444;-0.32000
2072222;-0.32500
2074999;-0.33000
2077777;-0.34500
2080555;-0.33000
2083333;-0.32500
2086111;-0.32000
2088888;-0.32500
2091666;-0.34500
2094444;-0.33500
2097222;-0.34500
2099999;-0.32000
2102777;-0.31500
2105555;-0.32000
2108333;-0.32500
2111111;-0.34000
2113888;-0.34000
2116666;-0.33000
2119444;-0.32000
2122222;-0.32000
2124999;-0.32500
2127777;-0.34000
2130555;-0.32500
2133333;-0.30500
2136111;-0.29000
2138888;-0.28000
2141666;-0.28000
2144444;-0.28500
2147222;-0.27000
2149999;-0.26000
2152777;-0.25000
2155555;-0.25000
2158333;-0.25000
2161111;-0.24000
2163888;-0.23500
2166666;-0.23000
2169444;-0.21000
2172222;-0.21500
2174999;-0.22000
2177777;-0.23500
2180555;-0.23500
2183333;-0.23500
2186110;-0.24000
2188888;-0.24500
2191666;-0.25000
2194444;-0.26500
2197222;-0.27000
2199999;-0.25500
2202777;-0.24000
2205555;-0.22500
2208333;-0.21000
2211110;-0.22000
2213888;-0.22000
2216666;-0.22000
2219444;-0.24000
2222222;-0.25500
2224999;-0.29000
2227777;-0.30500
2230555;-0.32000
2233333;-0.32000
2236110;-0.33500
2238888;-0.33500
2241666;-0.34500
2244444;-0.36000
2247222;-0.34500
2249999;-0.33500
2252777;-0.33000
2255555;-0.34500
2258333;-0.35000
2261110;-0.37000
2263888;-0.36000
2266666;-0.36500
2269444;-0.35000
2272222;-0.36000
2274999;-0.37000
2277777;-0.36500
2280555;-0.35500
2283333;-0.35500
2286110;-0.34500
2288888;-0.35500
2291666;-0.36500
2294444;-0.36500
2297222;-0.35000
2299999;-0.36000
2302777;-0.35000
2305555;-0.37000
2308333;-0.39000
2311110;-0.45500
2313888;-0.48000
2316666;-0.48000
2319444;-0.49500
2322222;-0.52500
2324999;-0.52500
2327777;-0.46000
2330555;-0.33000
2333333;-0.15500
2336110;0.02500
2338888;0.25500
2341666;0.51000
2344444;0.75000
2347222;0.95500
2349999;1.08500
2352777;1.17000
2355555;1.22500
2358333;1.21500
2361110;1.10500
2363888;0.90500
2366666;0.62000
2369444;0.27500
2372222;-0.08500
2374999;-0.34500
2377777;-0.47000
2380555;-0.47500
2383333;-0.42000
2386110;-0.38000
2388888;-0.37000
2391666;-0.38000
2394444;-0.38500
2397222;-0.39500
2399999;-0.39000
2402777;-0.37000
2405555;-0.37500
2408333;-0.39000
2411110;-0.40500
2413888;-0.40000
2416666;-0.40000
2419444;-0.40000
2422222;-0.39500
2424999;-0.39000
2427777;-0.41500
2430555;-0.40500
2433333;-0.40500
2436110;-0.38500
2438888;-0.38500
2441666;-0.40000
2444444;-0.40500
2447222;-0.41500
2449999;-0.40000
2452777;-0.39500
2455555;-0.40000
2458333;-0.41000
2461110;-0.41500
2463888;-0.41500
2466666;-0.40000
2469444;-0.39000
2472222;-0.39000
2474999;-0.40500
2477777;-0.41000
2480555;-0.41500
2483333;-0.41000
2486110;-0.40000
2488888;-0.41000
2491666;-0.40000
2494444;-0.42500
2497222;-0.42500
2499999;-0.41500
2502777;-0.40000
2505555;-0.40000
2508333;-0.42000
2511110;-0.43000
2513888;-0.43000
2516666;-0.41500
2519444;-0.40000
2522222;-0.40500
2524999;-0.42000
2527777;-0.43500
2530555;-0.41500
2533333;-0.41500
2536110;-0.41000
2538888;-0.40000
2541666;-0.41500
2544444;-0.41500
2547222;-0.41000
2549999;-0.40500
2552777;-0.39500
2555555;-0.40500
2558333;-0.40500
2561110;-0.43000
2563888;-0.43500
2566666;-0.43000
2569444;-0.42000
2572222;-0.41000
2574999;-0.42000
2577777;-0.43000
2580555;-0.42500
2583333;-0.43000
2586110;-0.42000
2588888;-0.42500
2591666;-0.44000
2594444;-0.45500
2597221;-0.44500
2599999;-0.43500
2602777;-0.42500
2605555;-0.43000
2608333;-0.44000
2611110;-0.46500
2613888;-0.45500
2616666;-0.46000
2619444;-0.46000
2622221;-0.45500
2624999;-0.45500
2627777;-0.47000
2630555;-0.45500
2633333;-0.44500
2636110;-0.45500
2638888;-0.43500
2641666;-0.45000
2644444;-0.44500
2647221;-0.43000
2649999;-0.41500
2652777;-0.40500
2655555;-0.39000
2658333;-0.39500
2661110;-0.38000
2663888;-0.36000
2666666;-0.35000
2669444;-0.33000
2672221;-0.32500
2674999;-0.32500
2677777;-0.33000
2680555;-0.32000
2683333;-0.31500
2686110;-0.30000
2688888;-0.29000
2691666;-0.28000
2694444;-0.29000
2697221;-0.29500
2699999;-0.28500
2702777;-0.27000
2705555;-0.27000
2708333;-0.27000
2711110;-0.29000
2713888;-0.27500
2716666;-0.28000
2719444;-0.27000
2722221;-0.27500
2724999;-0.28000
2727777;-0.29500
2730555;-0.29000
2733333;-0.28000
2736110;-0.26500
2738888;-0.28000
2741666;-0.28000
2744444;-0.29000
2747221;-0.29500
2749999;-0.29000
2752777;-0.28500
2755555;-0.28000
2758333;-0.29500
2761110;-0.30500
2763888;-0.29500
2766666;-0.29500
2769444;-0.28000
2772221;-0.28500
2774999;-0.29000
2777777;-0.31000
2780555;-0.30500
2783333;-0.29500
2786110;-0.29000
2788888;-0.28500
2791666;-0.30000
2794444;-0.30500
2797221;-0.31500
2799999;-0.31000
2802777;-0.28500
2805555;-0.30000
2808333;-0.31000
2811110;-0.32000
2813888;-0.32000
2816666;-0.31000
2819444;-0.29500
2822221;-0.30500
2824999;-0.32000
2827777;-0.33000
2830555;-0.32500
2833333;-0.31500
2836110;-0.32000
2838888;-0.32500
2841666;-0.33500
2844444;-0.33500
2847221;-0.33000
2849999;-0.32500
2852777;-0.32000
2855555;-0.31500
2858333;-0.32000
2861110;-0.33500
2863888;-0.33500
2866666;-0.31500
2869444;-0.30000
2872221;-0.31500
2874999;-0.32000
2877777;-0.33000
2880555;-0.32500
2883333;-0.32000
2886110;-0.31000
2888888;-0.31500
2891666;-0.32500
2894444;-0.33500
2897221;-0.32000
2899999;-0.32500
2902777;-0.31000
2905555;-0.28500
2908333;-0.31000
2911110;-0.32000
2913888;-0.32000
2916666;-0.31000
2919444;-0.30000
2922221;-0.30000
2924999;-0.31500
2927777;-0.32000
2930555;-0.32500
2933333;-0.31500
2936110;-0.31000
2938888;-0.31000
2941666;-0.30500
2944444;-0.32500
2947221;-0.33000
2949999;-0.30500
2952777;-0.30500
2955555;-0.31500
2958333;-0.31500
2961110;-0.32000
2963888;-0.32000
2966666;-0.31000
2969444;-0.30000
2972221;-0.28500
2974999;-0.29000
2977777;-0.29000
2980555;-0.27000
2983332;-0.26000
2986110;-0.23500
2988888;-0.23500
2991666;-0.23500
2994444;-0.25000
2997221;-0.24500
2999999;-0.22000
3002777;-0.21000
3005555;-0.20000
3008332;-0.21000
3011110;-0.21000
3013888;-0.20500
3016666;-0.18500
3019444;-0.19500
3022221;-0.20000
3024999;-0.21000
3027777;-0.22500
3030555;-0.22500
3033332;-0.22000
3036110;-0.20500
3038888;-0.22500
3041666;-0.22000
3044444;-0.23500
3047221;-0.24000
3049999;-0.20500
3052777;-0.18000
3055555;-0.17000
3058332;-0.19500
3061110;-0.23500
3063888;-0.26000
3066666;-0.25500
3069444;-0.26500
3072221;-0.28500
3074999;-0.30000
3077777;-0.31500
3080555;-0.32000
3083332;-0.32500
3086110;-0.31000
3088888;-0.32000
3091666;-0.33500
3094444;-0.34000
3097221;-0.33500
3099999;-0.32500
3102777;-0.31500
3105555;-0.31000
3108332;-0.32500
3111110;-0.34500
3113888;-0.34000
3116666;-0.33500
3119444;-0.33000
3122221;-0.33000
3124999;-0.35000
3127777;-0.35500
3130555;-0.35000
3133332;-0.33500
3136110;-0.33500
3138888;-0.33500
3141666;-0.35000
3144444;-0.35500
3147221;-0.34500
3149999;-0.37000
3152777;-0.37500
3155555;-0.40500
3158332;-0.44000
3161110;-0.49000
3163888;-0.50500
3166666;-0.52000
3169444;-0.54000
3172221;-0.50000
3174999;-0.42000
3177777;-0.28000
3180555;-0.11000
3183332;0.06500
3186110;0.26500
3188888;0.52000
3191666;0.78000
3194444;0.96500
3197221;1.09500
3199999;1.10500
3202777;0.95000
3205555;0.57500
3208332;0.12000
3211110;-0.24000
3213888;-0.41500
3216666;-0.43500
3219444;-0.39000
3222221;-0.35000
3224999;-0.34000
3227777;-0.35500
3230555;-0.35000
3233332;-0.35500
3236110;-0.34500
3238888;-0.35000
3241666;-0.34500
3244444;-0.36000
3247221;-0.37000
3249999;-0.36000
3252777;-0.34000
3255555;-0.35500
3258332;-0.37000
3261110;-0.39500
3263888;-0.39500
3266666;-0.38000
3269444;-0.37500
3272221;-0.37000
3274999;-0.37500
3277777;-0.39000
3280555;-0.39500
3283332;-0.38500
3286110;-0.38000
3288888;-0.38000
3291666;-0.37500
3294444;-0.38500
3297221;-0.39000
3299999;-0.38500
3302777;-0.37500
3305555;-0.38000
3308332;-0.39500
3311110;-0.40000
3313888;-0.39000
3316666;-0.39000
3319444;-0.38500
3322221;-0.38000
3324999;-0.38500
3327777;-0.39000
3330555;-0.39000
3333332;-0.38000
3336110;-0.37500
3338888;-0.37000
3341666;-0.39500
3344444;-0.39000
3347221;-0.39000
3349999;-0.38500
3352777;-0.38500
3355555;-0.37500
3358332;-0.39500
3361110;-0.40500
3363888;-0.39500
3366666;-0.38500
3369444;-0.38000
3372221;-0.39000
3374999;-0.39000
3377777;-0.39000
3380555;-0.38500
3383332;-0.39000
3386110;-0.38000
3388888;-0.38500
3391666;-0.38500
3394443;-0.39500
3397221;-0.40000
3399999;-0.38500
3402777;-0.38000
3405555;-0.38000
3408332;-0.38500
3411110;-0.40000
3413888;-0.40000
3416666;-0.38500
3419443;-0.38500
3422221;-0.37500
3424999;-0.38500
3427777;-0.39500
3430555;-0.40000
3433332;-0.39000
3436110;-0.37000
3438888;-0.37000
3441666;-0.38500
3444443;-0.39500
3447221;-0.39500
3449999;-0.38500
3452777;-0.38000
3455555;-0.38000
3458332;-0.39000
3461110;-0.40000
3463888;-0.40000
3466666;-0.38000
3469443;-0.39000
3472221;-0.39000
3474999;-0.39000
3477777;-0.39500
3480555;-0.39500
3483332;-0.38500
3486110;-0.37500
3488888;-0.37000
3491666;-0.38500
3494443;-0.39000
3497221;-0.37500
3499999;-0.36500
3502777;-0.35500
3505555;-0.34000
3508332;-0.34000
3511110;-0.34500
3513888;-0.33500
3516666;-0.31500
3519443;-0.29500
3522221;-0.28000
3524999;-0.28500
3527777;-0.29000
3530555;-0.27500
3533332;-0.26500
3536110;-0.26000
3538888;-0.26000
3541666;-0.26500
3544443;-0.28000
3547221;-0.27000
3549999;-0.25500
3552777;-0.24500
3555555;-0.25500
3558332;-0.26500
3561110;-0.26500
3563888;-0.25000
3566666;-0.25000
3569443;-0.24000
3572221;-0.24500
3574999;-0.26500
3577777;-0.26000
3580555;-0.26000
3583332;-0.25000
3586110;-0.24500
3588888;-0.24500
3591666;-0.26500
3594443;-0.27000
3597221;-0.27000
3599999;-0.26500
3602777;-0.25500
3605555;-0.25500
3608332;-0.26000
3611110;-0.27500
3613888;-0.27000
3616666;-0.26500
3619443;-0.26000
3622221;-0.27000
3624999;-0.27500
3627777;-0.30000
3630555;-0.27500
3633332;-0.26500
3636110;-0.26500
3638888;-0.27000
3641666;-0.28500
3644443;-0.29500
3647221;-0.29500
3649999;-0.28500
3652777;-0.29000
3655555;-0.29000
3658332;-0.30000
3661110;-0.30500
3663888;-0.30500
3666666;-0.31000
3669443;-0.30000
3672221;-0.30500
3674999;-0.30500
3677777;-0.33000
3680555;-0.32500
3683332;-0.31000
3686110;-0.30000
3688888;-0.30500
3691666;-0.31500
3694443;-0.32000
3697221;-0.32500
3699999;-0.31500
3702777;-0.31500
3705555;-0.31000
3708332;-0.31500
3711110;-0.33500
3713888;-0.33500
3716666;-0.33000
3719443;-0.31500
3722221;-0.32000
3724999;-0.33500
3727777;-0.33000
3730555;-0.33500
3733332;-0.32500
3736110;-0.31000
3738888;-0.30500
3741666;-0.32500
3744443;-0.34000
3747221;-0.34500
3749999;-0.32000
3752777;-0.31500
3755555;-0.31000
3758332;-0.31500
3761110;-0.31500
3763888;-0.32500
3766666;-0.32000
3769443;-0.31000
3772221;-0.31000
3774999;-0.30500
3777777;-0.32000
3780554;-0.31000
3783332;-0.31000
3786110;-0.30000
3788888;-0.31000
3791666;-0.31000
3794443;-0.32000
3797221;-0.31500
3799999;-0.30500
3802777;-0.30000
3805554;-0.29000
3808332;-0.29500
3811110;-0.28000
3813888;-0.28000
3816666;-0.25500
3819443;-0.23500
3822221;-0.23500
3824999;-0.24000
3827777;-0.25000
3830554;-0.23500
3833332;-0.22000
3836110;-0.20000
3838888;-0.20000
3841666;-0.20500
3844443;-0.21000
3847221;-0.20000
3849999;-0.19000
3852777;-0.18500
3855554;-0.19000
3858332;-0.19500
3861110;-0.20500
3863888;-0.21000
3866666;-0.21000
3869443;-0.21000
3872221;-0.21500
3874999;-0.22500
3877777;-0.23000
3880554;-0.23000
3883332;-0.21500
3886110;-0.21500
3888888;-0.22000
3891666;-0.22000
3894443;-0.21000
3897221;-0.21000
3899999;-0.21500
3902777;-0.22500
3905554;-0.24500
3908332;-0.26500
3911110;-0.29000
3913888;-0.29500
3916666;-0.30500
3919443;-0.30000
3922221;-0.32000
3924999;-0.32500
3927777;-0.33500
3930554;-0.33500
3933332;-0.32000
3936110;-0.31000
3938888;-0.32000
3941666;-0.31500
3944443;-0.32500
3947221;-0.33000
3949999;-0.32000
3952777;-0.32500
3955554;-0.33500
3958332;-0.33000
3961110;-0.34500
3963888;-0.34500
3966666;-0.34000
3969443;-0.32500
3972221;-0.34500
3974999;-0.35000
3977777;-0.36000
3980554;-0.35000
3983332;-0.33500
3986110;-0.34500
3988888;-0.37000
3991666;-0.40500
3994443;-0.45500
3997221;-0.48000
3999999;-0.47500
4002777;-0.49500
4005554;-0.53000
4008332;-0.51000
4011110;-0.44500
4013888;-0.29500
4016666;-0.13500
4019443;0.04500
4022221;0.25000
4024999;0.49000
4027777;0.72000
4030554;0.93000
4033332;1.08000
4036110;1.17000
4038888;1.18500
4041666;1.08500
4044443;0.87500
4047221;0.57000
4049999;0.24500
4052777;-0.06000
4055554;-0.30500
4058332;-0.44000
4061110;-0.49500
4063888;-0.47000
4066666;-0.41500
4069443;-0.37000
4072221;-0.35500
4074999;-0.35500
4077777;-0.38000
4080554;-0.37500
4083332;-0.36000
4086110;-0.36000
4088888;-0.37500
4091666;-0.37500
4094443;-0.38500
4097221;-0.39000
4099999;-0.37000
4102777;-0.37500
4105554;-0.38000
4108332;-0.38500
4111110;-0.38500
4113888;-0.39000
4116666;-0.37000
4119443;-0.37500
4122221;-0.38500
4124999;-0.37000
4127777;-0.39000
4130554;-0.39000
4133332;-0.38500
4136110;-0.38500
4138888;-0.37000
4141666;-0.38500
4144443;-0.38500
4147221;-0.40000
4149999;-0.38000
4152777;-0.36500
4155554;-0.37500
4158332;-0.37500
4161110;-0.38500
4163888;-0.38000
4166666;-0.38000
4169443;-0.36500
4172221;-0.37000
4174999;-0.37500
4177777;-0.37500
4180554;-0.38000
4183332;-0.36500
4186110;-0.36000
4188888;-0.36500
4191665;-0.38000
4194443;-0.38500
4197221;-0.38500
4199999;-0.37000
4202777;-0.36000
4205554;-0.37500
4208332;-0.37500
4211110;-0.39000
4213888;-0.37500
4216665;-0.37000
4219443;-0.36500
4222221;-0.36500
4224999;-0.37000
4227777;-0.37000
4230554;-0.37000
4233332;-0.35500
4236110;-0.35000
4238888;-0.35500
4241665;-0.37000
4244443;-0.36500
4247221;-0.36500
4249999;-0.36500
4252777;-0.35000
4255554;-0.35000
4258332;-0.36000
4261110;-0.36500
4263888;-0.36500
4266665;-0.36500
4269443;-0.34500
4272221;-0.36000
4274999;-0.36500
4277777;-0.38000
4280554;-0.37500
4283332;-0.36500
4286110;-0.37000
4288888;-0.36000
4291665;-0.36500
4294443;-0.36500
4297221;-0.37500
4299999;-0.36000
4302777;-0.35000
4305554;-0.35500
4308332;-0.36000
4311110;-0.36500
4313888;-0.37000
4316665;-0.35500
4319443;-0.36000
4322221;-0.35500
4324999;-0.35000
4327777;-0.35500
4330554;-0.36000
4333332;-0.34500
4336110;-0.31500
4338888;-0.31500
4341665;-0.31500
4344443;-0.31000
4347221;-0.30500
4349999;-0.28500
4352777;-0.27500
4355554;-0.26000
4358332;-0.26500
4361110;-0.27500
4363888;-0.27000
4366665;-0.24500
4369443;-0.23000
4372221;-0.24000
4374999;-0.25000
4377777;-0.26000
4380554;-0.25000
4383332;-0.25000
4386110;-0.24000
4388888;-0.25000
4391665;-0.24000
4394443;-0.25500
4397221;-0.25500
4399999;-0.24500
4402777;-0.23000
4405554;-0.24000
4408332;-0.24000
4411110;-0.25000
4413888;-0.25000
4416665;-0.24500
4419443;-0.24000
4422221;-0.23500
4424999;-0.25000
4427777;-0.24500
4430554;-0.24500
4433332;-0.24000
4436110;-0.25000
4438888;-0.25500
4441665;-0.25000
4444443;-0.27500
4447221;-0.27500
4449999;-0.25500
4452777;-0.24000
4455554;-0.24500
4458332;-0.24500
4461110;-0.26500
4463888;-0.26000
4466665;-0.26000
4469443;-0.25500
4472221;-0.26000
4474999;-0.26500
4477777;-0.28000
4480554;-0.28000
4483332;-0.27500
4486110;-0.26000
4488888;-0.27000
4491665;-0.27500
4494443;-0.28000
4497221;-0.29500
4499999;-0.29000
4502777;-0.28000
4505554;-0.29500
4508332;-0.30500
4511110;-0.31000
4513888;-0.30500
4516665;-0.29000
4519443;-0.28500
4522221;-0.27500
4524999;-0.29000
4527777;-0.30000
4530554;-0.30500
4533332;-0.31500
4536110;-0.29000
4538888;-0.30000
4541665;-0.31500
4544443;-0.31000
4547221;-0.31500
4549999;-0.31000
4552777;-0.30500
4555554;-0.30500
4558332;-0.31000
4561110;-0.31000
4563888;-0.31500
4566665;-0.31000
4569443;-0.30500
4572221;-0.29000
4574999;-0.30500
4577776;-0.30500
4580554;-0.31000
4583332;-0.30000
4586110;-0.30500
4588888;-0.30000
4591665;-0.31500
4594443;-0.30500
4597221;-0.30500
4599999;-0.30000
4602776;-0.30500
4605554;-0.29500
4608332;-0.30000
4611110;-0.30000
4613888;-0.30500
4616665;-0.29500
4619443;-0.29500
4622221;-0.28500
4624999;-0.29500
4627776;-0.29500
4630554;-0.29500
4633332;-0.28000
4636110;-0.26000
4638888;-0.25000
4641665;-0.24500
4644443;-0.24500
4647221;-0.25500
4649999;-0.24000
4652776;-0.23000
4655554;-0.22000
4658332;-0.23500
4661110;-0.21000
4663888;-0.21500
4666665;-0.20000
4669443;-0.18500
4672221;-0.18000
4674999;-0.20000
4677776;-0.20000
4680554;-0.19000
4683332;-0.20000
4686110;-0.19500
4688888;-0.20000
4691665;-0.19500
4694443;-0.22000
4697221;-0.22000
4699999;-0.23000
4702776;-0.22500
4705554;-0.21500
4708332;-0.19000
4711110;-0.18500
4713888;-0.20000
4716665;-0.20500
4719443;-0.22500
4722221;-0.24500
4724999;-0.25000
4727776;-0.26500
4730554;-0.27000
4733332;-0.27000
4736110;-0.28000
4738888;-0.30000
4741665;-0.30500
4744443;-0.31000
4747221;-0.31500
4749999;-0.32000
4752776;-0.32000
4755554;-0.32000
4758332;-0.31500
4761110;-0.31500
4763888;-0.32000
4766665;-0.32000
4769443;-0.32000
4772221;-0.33000
4774999;-0.32500
4777776;-0.33000
4780554;-0.33500
4783332;-0.32500
4786110;-0.32000
4788888;-0.32500
4791665;-0.34000
4794443;-0.34500
4797221;-0.34500
4799999;-0.33500
4802776;-0.31500
4805554;-0.31500
4808332;-0.33000
4811110;-0.35000
4813888;-0.37000
4816665;-0.41000
4819443;-0.43000
4822221;-0.44500
4824999;-0.47000
4827776;-0.51500
4830554;-0.54000
4833332;-0.50500
4836110;-0.38500
4838888;-0.25500
4841665;-0.12000
4844443;0.06000
4847221;0.30500
4849999;0.59500
4852776;0.82500
4855554;0.96500
4858332;0.96000
4861110;0.75500
4863888;0.37000
4866665;-0.03500
4869443;-0.30500
4872221;-0.44000
4874999;-0.46000
4877776;-0.43000
4880554;-0.39500
4883332;-0.36000
4886110;-0.37500
4888888;-0.37500
4891665;-0.36500
4894443;-0.39500
4897221;-0.37500
4899999;-0.36000
4902776;-0.35500
4905554;-0.35500
4908332;-0.35500
4911110;-0.36500
4913888;-0.37000
4916665;-0.36500
4919443;-0.34500
4922221;-0.34000
4924999;-0.35500
4927776;-0.36000
4930554;-0.36500
4933332;-0.36000
4936110;-0.35500
4938888;-0.35000
4941665;-0.35500
4944443;-0.36000
4947221;-0.36500
4949999;-0.35500
4952776;-0.34500
4955554;-0.35500
4958332;-0.36000
4961110;-0.36000
4963887;-0.37000
4966665;-0.37000
4969443;-0.37000
4972221;-0.38000
4974999;-0.38000
4977776;-0.38000
4980554;-0.38000
4983332;-0.36500
4986110;-0.35500
4988887;-0.35500
4991665;-0.36500
4994443;-0.36500
4997221;-0.37000
4999999;-0.37500
5002776;-0.35500
5005554;-0.37000
5008332;-0.36500
5011110;-0.37500
5013887;-0.39000
5016665;-0.37500
5019443;-0.36500
5022221;-0.35500
5024999;-0.37000
5027776;-0.36500
5030554;-0.37500
5033332;-0.35500
5036110;-0.34500
5038887;-0.35500
5041665;-0.37000
5044443;-0.38000
5047221;-0.38500
5049999;-0.37000
5052776;-0.34500
5055554;-0.35000
5058332;-0.37000
5061110;-0.36500
5063887;-0.36000
5066665;-0.35500
5069443;-0.37000
5072221;-0.38000
5074999;-0.38500
5077776;-0.38500
5080554;-0.37500
5083332;-0.36000
5086110;-0.36500
5088887;-0.36500
5091665;-0.37500
5094443;-0.38000
5097221;-0.39000
5099999;-0.38500
5102776;-0.37500
5105554;-0.37500
5108332;-0.38500
5111110;-0.40000
5113887;-0.40000
5116665;-0.40500
5119443;-0.38500
5122221;-0.40000
5124999;-0.40000
5127776;-0.40500
5130554;-0.41000
5133332;-0.40500
5136110;-0.41500
5138887;-0.41500
5141665;-0.41500
5144443;-0.42000
5147221;-0.41000
5149999;-0.38000
5152776;-0.36500
5155554;-0.35000
5158332;-0.33500
5161110;-0.32500
5163887;-0.31500
5166665;-0.30000
5169443;-0.28000
5172221;-0.28500
5174999;-0.27500
5177776;-0.27500
5180554;-0.28000
5183332;-0.26000
5186110;-0.24000
5188887;-0.24500
5191665;-0.25000
5194443;-0.25500
5197221;-0.25500
5199999;-0.25000
5202776;-0.24500
5205554;-0.23500
5208332;-0.23500
5211110;-0.23000
5213887;-0.24000
5216665;-0.22500
5219443;-0.22500
5222221;-0.24000
5224999;-0.24500
5227776;-0.24000
5230554;-0.24500
5233332;-0.24500
5236110;-0.24500
5238887;-0.24000
5241665;-0.24000
5244443;-0.23000
5247221;-0.23000
5249999;-0.23500
5252776;-0.23000
5255554;-0.23000
5258332;-0.24000
5261110;-0.25000
5263887;-0.26000
5266665;-0.25500
5269443;-0.24000
5272221;-0.24500
5274999;-0.24500
5277776;-0.26500
5280554;-0.25500
5283332;-0.25500
5286110;-0.25000
5288887;-0.25500
5291665;-0.26000
5294443;-0.27000
5297221;-0.27000
5299999;-0.26500
5302776;-0.26000
5305554;-0.26000
5308332;-0.26000
5311110;-0.27500
5313887;-0.28500
5316665;-0.27500
5319443;-0.27000
5322221;-0.27500
5324999;-0.27500
5327776;-0.28500
5330554;-0.28000
5333332;-0.29000
5336110;-0.28000
5338887;-0.29000
5341665;-0.29000
5344443;-0.29000
5347221;-0.30000
5349999;-0.29000
5352776;-0.28000
5355554;-0.29000
5358332;-0.29500
5361110;-0.30000
5363887;-0.30000
5366665;-0.30000
5369443;-0.27500
5372221;-0.28500
5374998;-0.29000
5377776;-0.29500
5380554;-0.30500
5383332;-0.29000
5386110;-0.27500
5388887;-0.29000
5391665;-0.29000
5394443;-0.30000
5397221;-0.29500
5399998;-0.29000
5402776;-0.27500
5405554;-0.28500
5408332;-0.28500
5411110;-0.29500
5413887;-0.28500
5416665;-0.28500
5419443;-0.27500
5422221;-0.28000
5424998;-0.28500
5427776;-0.28500
5430554;-0.30500
5433332;-0.30000
5436110;-0.29500
5438887;-0.29000
5441665;-0.29000
5444443;-0.29500
5447221;-0.28000
5449998;-0.28000
5452776;-0.25500
5455554;-0.25500
5458332;-0.25500
5461110;-0.25500
5463887;-0.24500
5466665;-0.24000
5469443;-0.22000
5472221;-0.22500
5474998;-0.23000
5477776;-0.22000
5480554;-0.21500
5483332;-0.19000
5486110;-0.18500
5488887;-0.18000
5491665;-0.18000
5494443;-0.18500
5497221;-0.19500
5499998;-0.19500
5502776;-0.19000
5505554;-0.20000
5508332;-0.21500
5511110;-0.21500
5513887;-0.21000
5516665;-0.20000
5519443;-0.20500
5522221;-0.20500
5524998;-0.22500
5527776;-0.22000
5530554;-0.20000
5533332;-0.19000
5536110;-0.20000
5538887;-0.23500
5541665;-0.26500
5544443;-0.27500
5547221;-0.29500
5549998;-0.30500
5552776;-0.30500
5555554;-0.31000
5558332;-0.32500
5561110;-0.32500
5563887;-0.34000
5566665;-0.32000
5569443;-0.30500
5572221;-0.30500
5574998;-0.31000
5577776;-0.32000
5580554;-0.33500
5583332;-0.33000
5586110;-0.31000
5588887;-0.31000
5591665;-0.32000
5594443;-0.33500
5597221;-0.34000
5599998;-0.33500
5602776;-0.33000
5605554;-0.32500
5608332;-0.33500
5611110;-0.33500
5613887;-0.35000
5616665;-0.33000
5619443;-0.33000
5622221;-0.33500
5624998;-0.35500
5627776;-0.38500
5630554;-0.42500
5633332;-0.45000
5636110;-0.45500
5638887;-0.48000
5641665;-0.52500
5644443;-0.54000
5647221;-0.48000
5649998;-0.33000
5652776;-0.18000
5655554;-0.02000
5658332;0.18500
5661110;0.43500
5663887;0.70500
5666665;0.92500
5669443;1.03000
5672221;0.98500
5674998;0.73000
5677776;0.30000
5680554;-0.13000
5683332;-0.39500
5686110;-0.46000
5688887;-0.45000
5691665;-0.42000
5694443;-0.38000
5697221;-0.37500
5699998;-0.36500
5702776;-0.37000
5705554;-0.35500
5708332;-0.36000
5711110;-0.37000
5713887;-0.38000
5716665;-0.37000
5719443;-0.36500
5722221;-0.37000
5724998;-0.37500
5727776;-0.39000
5730554;-0.40500
5733332;-0.38500
5736110;-0.36000
5738887;-0.37500
5741665;-0.37500
5744443;-0.39500
5747221;-0.39000
5749998;-0.39000
5752776;-0.37500
5755554;-0.38000
5758332;-0.38000
5761109;-0.39500
5763887;-0.39500
5766665;-0.39000
5769443;-0.38000
5772221;-0.39000
5774998;-0.38500
5777776;-0.39000
5780554;-0.39500
5783332;-0.38500
5786109;-0.37500
5788887;-0.38000
5791665;-0.39000
5794443;-0.39000
5797221;-0.40000
5799998;-0.39000
5802776;-0.37000
5805554;-0.37500
5808332;-0.39000
5811109;-0.39500
5813887;-0.39000
5816665;-0.39000
5819443;-0.38000
5822221;-0.37000
5824998;-0.39000
5827776;-0.39500
5830554;-0.40500
5833332;-0.39500
5836109;-0.38000
5838887;-0.39000
5841665;-0.38500
5844443;-0.39000
5847221;-0.39000
5849998;-0.37000
5852776;-0.37000
5855554;-0.37500
5858332;-0.37500
5861109;-0.38000
5863887;-0.39500
5866665;-0.38000
5869443;-0.37500
5872221;-0.38000
5874998;-0.38500
5877776;-0.39000
5880554;-0.40000
5883332;-0.38000
5886109;-0.37000
5888887;-0.38000
5891665;-0.38000
5894443;-0.38500
5897221;-0.39000
5899998;-0.39500
5902776;-0.40500
5905554;-0.39500
5908332;-0.40500
5911109;-0.42000
5913887;-0.42500
5916665;-0.41500
5919443;-0.42000
5922221;-0.41500
5924998;-0.43000
5927776;-0.43500
5930554;-0.43000
5933332;-0.42500
5936109;-0.42000
5938887;-0.42500
5941665;-0.42500
5944443;-0.43500
5947221;-0.44500
5949998;-0.42000
5952776;-0.40500
5955554;-0.40000
5958332;-0.39500
5961109;-0.40500
5963887;-0.38000
5966665;-0.37000
5969443;-0.35000
5972221;-0.34500
5974998;-0.31500
5977776;-0.31000
5980554;-0.31500
5983332;-0.30000
5986109;-0.28000
5988887;-0.28000
5991665;-0.28500
5994443;-0.27500
5997221;-0.27000
5999998;-0.27000
6002776;-0.25500
6005554;-0.25500
6008332;-0.25500
6011109;-0.25000
6013887;-0.25500
6016665;-0.24500
6019443;-0.23500
6022221;-0.24500
6024998;-0.24500
6027776;-0.26000
6030554;-0.25500
6033332;-0.25500
6036109;-0.24500
6038887;-0.24500
6041665;-0.26000
6044443;-0.26000
6047221;-0.25500
6049998;-0.25000
6052776;-0.24500
6055554;-0.24000
6058332;-0.25500
6061109;-0.25000
6063887;-0.26000
6066665;-0.25000
6069443;-0.25000
6072221;-0.25000
6074998;-0.25500
6077776;-0.26000
6080554;-0.26000
6083332;-0.26500
6086109;-0.24500
6088887;-0.25000
6091665;-0.26500
6094443;-0.25500
6097221;-0.27000
6099998;-0.26000
6102776;-0.26500
6105554;-0.25000
6108332;-0.26000
6111109;-0.26500
6113887;-0.27500
6116665;-0.26500
6119443;-0.26000
6122221;-0.27000
6124998;-0.26500
6127776;-0.28000
6130554;-0.29000
6133332;-0.27000
6136109;-0.27000
6138887;-0.27500
6141665;-0.28500
6144443;-0.29500
6147221;-0.29000
6149998;-0.28500
6152776;-0.27500
6155554;-0.28500
6158332;-0.30000
6161109;-0.30000
6163887;-0.30500
6166665;-0.30000
6169443;-0.28500
6172220;-0.28500
6174998;-0.29000
6177776;-0.30500
6180554;-0.30500
6183332;-0.29500
6186109;-0.28500
6188887;-0.29000
6191665;-0.29500
6194443;-0.30000
6197220;-0.30500
6199998;-0.30000
6202776;-0.29000
6205554;-0.29500
6208332;-0.30500
6211109;-0.30000
6213887;-0.30000
6216665;-0.29500
6219443;-0.28000
6222220;-0.28500
6224998;-0.29000
6227776;-0.29500
6230554;-0.30500
6233332;-0.28500
6236109;-0.29000
6238887;-0.28500
6241665;-0.30500
6244443;-0.30000
6247220;-0.29000
6249998;-0.29500
6252776;-0.29000
6255554;-0.28000
6258332;-0.29000
6261109;-0.28500
6263887;-0.28500
6266665;-0.27000
6269443;-0.27000
6272220;-0.27000
6274998;-0.27000
6277776;-0.27500
6280554;-0.27500
6283332;-0.25000
6286109;-0.22000
6288887;-0.21500
6291665;-0.21500
6294443;-0.22000
6297220;-0.23000
6299998;-0.21000
6302776;-0.18500
6305554;-0.17500
6308332;-0.17000
6311109;-0.19000
6313887;-0.18500
6316665;-0.18500
6319443;-0.16000
6322220;-0.16500
6324998;-0.17500
6327776;-0.19500
6330554;-0.20500
6333332;-0.19500
6336109;-0.18000
6338887;-0.18000
6341665;-0.21000
6344443;-0.21000
6347220;-0.19500
6349998;-0.16500
6352776;-0.15500
6355554;-0.17000
6358332;-0.21000
6361109;-0.24500
6363887;-0.26000
6366665;-0.26000
6369443;-0.26000
6372220;-0.26500
6374998;-0.28500
6377776;-0.30000
6380554;-0.31500
6383332;-0.31500
6386109;-0.30500
6388887;-0.30000
6391665;-0.29000
6394443;-0.30000
6397220;-0.31500
6399998;-0.31000
6402776;-0.30000
6405554;-0.29500
6408332;-0.31000
6411109;-0.31500
6413887;-0.32000
6416665;-0.32000
6419443;-0.32000
6422220;-0.31000
6424998;-0.32000
6427776;-0.33500
6430554;-0.32500
6433332;-0.34000
6436109;-0.32000
6438887;-0.31500
6441665;-0.32000
6444443;-0.33500
6447220;-0.34000
6449998;-0.34500
6452776;-0.37000
6455554;-0.42000
6458332;-0.46000
6461109;-0.49000
6463887;-0.50500
6466665;-0.52000
6469443;-0.45000
6472220;-0.30000
6474998;-0.12000
6477776;0.06000
6480554;0.29000
6483332;0.57500
6486109;0.85500
6488887;1.06500
6491665;1.15000
