time_ms;ecg_value
0;-0.15000
2778;-0.16000
5556;-0.16000
8333;-0.17000
11111;-0.17500
13889;-0.18000
16667;-0.19000
19444;-0.18000
22222;-0.16500
25000;-0.16000
27778;-0.16500
30556;-0.16500
33333;-0.13500
36111;-0.13000
38889;-0.12000
41667;-0.16500
44444;-0.20500
47222;-0.22000
50000;-0.23500
52778;-0.23500
55556;-0.24500
58333;-0.25500
61111;-0.27000
63889;-0.29000
66667;-0.29500
69444;-0.30000
72222;-0.29500
75000;-0.28500
77778;-0.29500
80556;-0.30000
83333;-0.31000
86111;-0.32000
88889;-0.30500
91667;-0.31000
94444;-0.30500
97222;-0.32000
100000;-0.32000
102778;-0.34500
105556;-0.32000
108333;-0.31500
111111;-0.31000
113889;-0.32000
116667;-0.33000
119444;-0.33500
122222;-0.31500
125000;-0.30500
127778;-0.32500
130556;-0.34000
133333;-0.36000
136111;-0.40000
138889;-0.43000
141667;-0.43500
144444;-0.43000
147222;-0.45000
150000;-0.48500
152778;-0.54500
155556;-0.57000
158333;-0.56000
161111;-0.51000
163889;-0.42000
166667;-0.33500
169444;-0.20500
172222;-0.07000
175000;0.09500
177778;0.31500
180556;0.58000
183333;0.78000
186111;0.90500
188889;0.92500
191667;0.79500
194444;0.46500
197222;0.03000
200000;-0.30500
202778;-0.48000
205555;-0.50000
208333;-0.44000
211111;-0.38500
213889;-0.38000
216667;-0.37500
219444;-0.38500
222222;-0.38500
225000;-0.36500
227778;-0.36500
230555;-0.37000
233333;-0.38000
236111;-0.39000
238889;-0.37500
241667;-0.37000
244444;-0.37000
247222;-0.39500
250000;-0.40000
252778;-0.39000
255555;-0.39500
258333;-0.38500
261111;-0.38500
263889;-0.39000
266667;-0.40000
269444;-0.40500
272222;-0.39500
275000;-0.38000
277778;-0.38000
280555;-0.39000
283333;-0.40000
286111;-0.39500
288889;-0.38500
291667;-0.37500
294444;-0.38000
297222;-0.39000
300000;-0.39500
302778;-0.39500
305555;-0.38500
308333;-0.37500
311111;-0.37500
313889;-0.38500
316667;-0.39000
319444;-0.40000
322222;-0.39500
325000;-0.38500
327778;-0.37500
330555;-0.39000
333333;-0.40000
336111;-0.39000
338889;-0.39000
341667;-0.37500
344444;-0.37500
347222;-0.38000
350000;-0.38500
352778;-0.38500
355555;-0.38000
358333;-0.37500
361111;-0.37000
363889;-0.38000
366667;-0.39000
369444;-0.38500
372222;-0.37500
375000;-0.36000
377778;-0.36500
380555;-0.37500
383333;-0.37500
386111;-0.38500
388889;-0.37500
391667;-0.38500
394444;-0.38500
397222;-0.40000
400000;-0.39500
402778;-0.40000
405555;-0.40000
408333;-0.38500
411111;-0.39000
413889;-0.38500
416667;-0.40000
419444;-0.40500
422222;-0.39000
425000;-0.38500
427778;-0.39000
430555;-0.40000
433333;-0.40000
436111;-0.40000
438889;-0.39000
441667;-0.37500
444444;-0.38500
447222;-0.38000
450000;-0.38500
452778;-0.39000
455555;-0.38500
458333;-0.38000
461111;-0.37000
463889;-0.38000
466667;-0.38500
469444;-0.37000
472222;-0.36000
475000;-0.33500
477778;-0.32500
480555;-0.32500
483333;-0.32500
486111;-0.31500
488889;-0.30500
491667;-0.29500
494444;-0.28000
497222;-0.28000
500000;-0.27500
502778;-0.28500
505555;-0.25500
508333;-0.25500
511111;-0.25500
513889;-0.25500
516667;-0.26000
519444;-0.26500
522222;-0.25500
525000;-0.24000
527778;-0.25000
530555;-0.25000
533333;-0.27000
536111;-0.27500
538889;-0.26000
541667;-0.25000
544444;-0.26000
547222;-0.26500
550000;-0.27000
552778;-0.27000
555555;-0.27500
558333;-0.26500
561111;-0.26500
563889;-0.27000
566667;-0.28000
569444;-0.27500
572222;-0.28000
575000;-0.27000
577778;-0.27000
580555;-0.27500
583333;-0.28500
586111;-0.28000
588889;-0.27500
591667;-0.27000
594444;-0.28000
597222;-0.29000
600000;-0.29500
602778;-0.30000
605555;-0.29000
608333;-0.28000
611111;-0.28500
613889;-0.29500
616666;-0.30500
619444;-0.32000
622222;-0.31500
625000;-0.30000
627778;-0.30000
630555;-0.31000
633333;-0.31500
636111;-0.33000
638889;-0.31500
641666;-0.31000
644444;-0.30500
647222;-0.32500
650000;-0.31500
652778;-0.32000
655555;-0.31500
658333;-0.31000
661111;-0.31500
663889;-0.32000
666666;-0.32500
669444;-0.34000
672222;-0.32000
675000;-0.31000
677778;-0.30500
680555;-0.32500
683333;-0.34000
686111;-0.34000
688889;-0.32500
691666;-0.31000
694444;-0.32000
697222;-0.32000
700000;-0.32000
702778;-0.31500
705555;-0.32000
708333;-0.32000
711111;-0.31000
713889;-0.31000
716666;-0.32000
719444;-0.32500
722222;-0.30500
725000;-0.30500
727778;-0.29500
730555;-0.31500
733333;-0.31000
736111;-0.31500
738889;-0.31500
741666;-0.30500
744444;-0.29500
747222;-0.31000
750000;-0.33000
752778;-0.32500
755555;-0.31500
758333;-0.30500
761111;-0.30500
763889;-0.30000
766666;-0.29500
769444;-0.29000
772222;-0.26000
775000;-0.25500
777778;-0.25500
780555;-0.24500
783333;-0.25000
786111;-0.23500
788889;-0.24000
791666;-0.23000
794444;-0.21000
797222;-0.21500
800000;-0.20500
802778;-0.21500
805555;-0.19500
808333;-0.17500
811111;-0.18000
813889;-0.18500
816666;-0.19500
819444;-0.20500
822222;-0.20500
825000;-0.19500
827778;-0.19000
830555;-0.19500
833333;-0.19500
836111;-0.19500
838889;-0.18000
841666;-0.16500
844444;-0.15500
847222;-0.19000
850000;-0.23500
852778;-0.25500
855555;-0.26000
858333;-0.25500
861111;-0.27500
863889;-0.29500
866666;-0.31000
869444;-0.32500
872222;-0.33500
875000;-0.32500
877778;-0.31500
880555;-0.31500
883333;-0.32000
886111;-0.33500
888889;-0.32500
891666;-0.32000
894444;-0.31500
897222;-0.33500
900000;-0.34500
902778;-0.34000
905555;-0.33500
908333;-0.32000
911111;-0.32000
913889;-0.33000
916666;-0.33000
919444;-0.35000
922222;-0.35500
925000;-0.35500
927778;-0.33500
930555;-0.36000
933333;-0.36000
936111;-0.36000
938889;-0.36000
941666;-0.34500
944444;-0.35000
947222;-0.38000
950000;-0.42000
952778;-0.46500
955555;-0.47500
958333;-0.49000
961111;-0.54000
963889;-0.57500
966666;-0.54000
969444;-0.43000
972222;-0.29000
975000;-0.13500
977778;0.05500
980555;0.30500
983333;0.56500
986111;0.75000
988889;0.83000
991666;0.79500
994444;0.54000
997222;0.16000
1000000;-0.19500
1002777;-0.43500
1005555;-0.51000
1008333;-0.48500
1011111;-0.43500
1013889;-0.41500
1016666;-0.41000
1019444;-0.41000
1022222;-0.39500
1025000;-0.39000
1027777;-0.38500
1030555;-0.40000
1033333;-0.40000
1036111;-0.40500
1038889;-0.41000
1041666;-0.39500
1044444;-0.40500
1047222;-0.39500
1050000;-0.40500
1052777;-0.40500
1055555;-0.40000
1058333;-0.40500
1061111;-0.39500
1063889;-0.40500
1066666;-0.41000
1069444;-0.41000
1072222;-0.39500
1075000;-0.39000
1077777;-0.38500
1080555;-0.39000
1083333;-0.39000
1086111;-0.41000
1088889;-0.40000
1091666;-0.40500
1094444;-0.40000
1097222;-0.41500
1100000;-0.40500
1102777;-0.41000
1105555;-0.39500
1108333;-0.39000
1111111;-0.38500
1113889;-0.40000
1116666;-0.40500
1119444;-0.42500
1122222;-0.40000
1125000;-0.38000
1127777;-0.40000
1130555;-0.40500
1133333;-0.42000
1136111;-0.42500
1138889;-0.41000
1141666;-0.40000
1144444;-0.39500
1147222;-0.40000
1150000;-0.40500
1152777;-0.40500
1155555;-0.40000
1158333;-0.38500
1161111;-0.38500
1163889;-0.40000
1166666;-0.40000
1169444;-0.41000
1172222;-0.38000
1175000;-0.37000
1177777;-0.38000
1180555;-0.39000
1183333;-0.40000
1186111;-0.40000
1188889;-0.39500
1191666;-0.38500
1194444;-0.39000
1197222;-0.40000
1200000;-0.41500
1202777;-0.40000
1205555;-0.39000
1208333;-0.38500
1211111;-0.38500
1213889;-0.38500
1216666;-0.39500
1219444;-0.40500
1222222;-0.39500
1225000;-0.39000
1227777;-0.38000
1230555;-0.39000
1233333;-0.40000
1236111;-0.41000
1238889;-0.41000
1241666;-0.39500
1244444;-0.41000
1247222;-0.41000
1250000;-0.42500
1252777;-0.42000
1255555;-0.42000
1258333;-0.40000
1261111;-0.40500
1263889;-0.40500
1266666;-0.41500
1269444;-0.41500
1272222;-0.40500
1275000;-0.39500
1277777;-0.38500
1280555;-0.39000
1283333;-0.39500
1286111;-0.39500
1288889;-0.37000
1291666;-0.36000
1294444;-0.35000
1297222;-0.35000
1300000;-0.34500
1302777;-0.34500
1305555;-0.32500
1308333;-0.32000
1311111;-0.32000
1313889;-0.32000
1316666;-0.32000
1319444;-0.31500
1322222;-0.31000
1325000;-0.29000
1327777;-0.29000
1330555;-0.28500
1333333;-0.30000
1336111;-0.30500
1338889;-0.31500
1341666;-0.29500
1344444;-0.29000
1347222;-0.29500
1350000;-0.30500
1352777;-0.30500
1355555;-0.29500
1358333;-0.28500
1361111;-0.29500
1363889;-0.29500
1366666;-0.31000
1369444;-0.31500
1372222;-0.29500
1375000;-0.29000
1377777;-0.28500
1380555;-0.29500
1383333;-0.30000
1386111;-0.31000
1388888;-0.31000
1391666;-0.30000
1394444;-0.30500
1397222;-0.30500
1400000;-0.31000
1402777;-0.31000
1405555;-0.31500
1408333;-0.31000
1411111;-0.31000
1413888;-0.31000
1416666;-0.31500
1419444;-0.32500
1422222;-0.31500
1425000;-0.30000
1427777;-0.30500
1430555;-0.32000
1433333;-0.32500
1436111;-0.32500
1438888;-0.32000
1441666;-0.31500
1444444;-0.32500
1447222;-0.32500
1450000;-0.34500
1452777;-0.34000
1455555;-0.33000
1458333;-0.33000
1461111;-0.34000
1463888;-0.34000
1466666;-0.34500
1469444;-0.34500
1472222;-0.33500
1475000;-0.33000
1477777;-0.33500
1480555;-0.34000
1483333;-0.35000
1486111;-0.36000
1488888;-0.34000
1491666;-0.33500
1494444;-0.33500
1497222;-0.34500
1500000;-0.35000
1502777;-0.35500
1505555;-0.34500
1508333;-0.34000
1511111;-0.34000
1513888;-0.34000
1516666;-0.34000
1519444;-0.35500
1522222;-0.36000
1525000;-0.36000
1527777;-0.35000
1530555;-0.34500
1533333;-0.34500
1536111;-0.35000
1538888;-0.35000
1541666;-0.33500
1544444;-0.33000
1547222;-0.33000
1550000;-0.35000
1552777;-0.34000
1555555;-0.32500
1558333;-0.33000
1561111;-0.33500
1563888;-0.33500
1566666;-0.34500
1569444;-0.34000
1572222;-0.34000
1575000;-0.32500
1577777;-0.33000
1580555;-0.34500
1583333;-0.35000
1586111;-0.34500
1588888;-0.34000
1591666;-0.33000
1594444;-0.34000
1597222;-0.33500
1600000;-0.35000
1602777;-0.35000
1605555;-0.33500
1608333;-0.32000
1611111;-0.30500
1613888;-0.30000
1616666;-0.30500
1619444;-0.30500
1622222;-0.28500
1625000;-0.27500
1627777;-0.27000
1630555;-0.28500
1633333;-0.28500
1636111;-0.28500
1638888;-0.27500
1641666;-0.26000
1644444;-0.25500
1647222;-0.24000
1650000;-0.24000
1652777;-0.26000
1655555;-0.24500
1658333;-0.23500
1661111;-0.22500
1663888;-0.22500
1666666;-0.23000
1669444;-0.24500
1672222;-0.23500
1675000;-0.23500
1677777;-0.23000
1680555;-0.23000
1683333;-0.24000
1686111;-0.23500
1688888;-0.22000
1691666;-0.20500
1694444;-0.20000
1697222;-0.22500
1700000;-0.27500
1702777;-0.29500
1705555;-0.30500
1708333;-0.30500
1711111;-0.32000
1713888;-0.35500
1716666;-0.36500
1719444;-0.36500
1722222;-0.37000
1725000;-0.36000
1727777;-0.36000
1730555;-0.35500
1733333;-0.37000
1736111;-0.36500
1738888;-0.37500
1741666;-0.36500
1744444;-0.36500
1747222;-0.37000
1750000;-0.38500
1752777;-0.39000
1755555;-0.38500
1758333;-0.37000
1761111;-0.37500
1763888;-0.37500
1766666;-0.38500
1769444;-0.40000
1772222;-0.38500
1775000;-0.38000
1777777;-0.39500
1780555;-0.38500
1783333;-0.40000
1786111;-0.40500
1788888;-0.41000
1791666;-0.43500
1794444;-0.47500
1797222;-0.49500
1799999;-0.51500
1802777;-0.55500
1805555;-0.60500
1808333;-0.63000
1811111;-0.62000
1813888;-0.57000
1816666;-0.49000
1819444;-0.38000
1822222;-0.25500
1824999;-0.10000
1827777;0.10500
1830555;0.36000
1833333;0.60500
1836111;0.77500
1838888;0.87000
1841666;0.80000
1844444;0.55500
1847222;0.17500
1849999;-0.16500
1852777;-0.41500
1855555;-0.51000
1858333;-0.53000
1861111;-0.49500
1863888;-0.46500
1866666;-0.45500
1869444;-0.47000
1872222;-0.44000
1874999;-0.43000
1877777;-0.42500
1880555;-0.42500
1883333;-0.42500
1886111;-0.43500
1888888;-0.43500
1891666;-0.42000
1894444;-0.42500
1897222;-0.43000
1899999;-0.43000
1902777;-0.44500
1905555;-0.44000
1908333;-0.42500
1911111;-0.43500
1913888;-0.44000
1916666;-0.45000
1919444;-0.45500
1922222;-0.45000
1924999;-0.44000
1927777;-0.43500
1930555;-0.42500
1933333;-0.44000
1936111;-0.45500
1938888;-0.44000
1941666;-0.42500
1944444;-0.42000
1947222;-0.42500
1949999;-0.43000
1952777;-0.44000
1955555;-0.43000
1958333;-0.43000
1961111;-0.43500
1963888;-0.44000
1966666;-0.44000
1969444;-0.45000
1972222;-0.45000
1974999;-0.44500
1977777;-0.43000
1980555;-0.43500
1983333;-0.43500
1986111;-0.44500
1988888;-0.44000
1991666;-0.43000
1994444;-0.42500
1997222;-0.44500
1999999;-0.44000
2002777;-0.44000
2005555;-0.45000
2008333;-0.44000
2011111;-0.43000
2013888;-0.42500
2016666;-0.43500
2019444;-0.44500
2022222;-0.42500
2024999;-0.42000
2027777;-0.42500
2030555;-0.42500
2033333;-0.43500
2036111;-0.44500
2038888;-0.43000
2041666;-0.42000
2044444;-0.43000
2047222;-0.44000
2049999;-0.45000
2052777;-0.44500
2055555;-0.43500
2058333;-0.43500
2061111;-0.44000
2063888;-0.45000
2066666;-0.45500
2069444;-0.46000
2072222;-0.47500
2074999;-0.47000
2077777;-0.46500
2080555;-0.46500
2083333;-0.47000
2086111;-0.47500
2088888;-0.47500
2091666;-0.46000
2094444;-0.46500
2097222;-0.47500
2099999;-0.48000
2102777;-0.49000
2105555;-0.48000
2108333;-0.47000
2111111;-0.47000
2113888;-0.47000
2116666;-0.46000
2119444;-0.46000
2122222;-0.44000
2124999;-0.43000
2127777;-0.41500
2130555;-0.40000
2133333;-0.40000
2136111;-0.39500
2138888;-0.37000
2141666;-0.35000
2144444;-0.34000
2147222;-0.32000
2149999;-0.33000
2152777;-0.33000
2155555;-0.32500
2158333;-0.30000
2161111;-0.30000
2163888;-0.29500
2166666;-0.29500
2169444;-0.31000
2172222;-0.30000
2174999;-0.29000
2177777;-0.28500
2180555;-0.29000
2183333;-0.29500
2186110;-0.30500
2188888;-0.28500
2191666;-0.28500
2194444;-0.29000
2197222;-0.30000
2199999;-0.31500
2202777;-0.29500
2205555;-0.28500
2208333;-0.29000
2211110;-0.28500
2213888;-0.29000
2216666;-0.30000
2219444;-0.30500
2222222;-0.30000
2224999;-0.29500
2227777;-0.29500
2230555;-0.29500
2233333;-0.31000
2236110;-0.30500
2238888;-0.30000
2241666;-0.29500
2244444;-0.29500
2247222;-0.29000
2249999;-0.30000
2252777;-0.30500
2255555;-0.31000
2258333;-0.29500
2261110;-0.29500
2263888;-0.30500
2266666;-0.32000
2269444;-0.33000
2272222;-0.31500
2274999;-0.30000
2277777;-0.30500
2280555;-0.31500
2283333;-0.32000
2286110;-0.32500
2288888;-0.32000
2291666;-0.31000
2294444;-0.32000
2297222;-0.31500
2299999;-0.33500
2302777;-0.34500
2305555;-0.31500
2308333;-0.32000
2311110;-0.31000
2313888;-0.31500
2316666;-0.32000
2319444;-0.32500
2322222;-0.31500
2324999;-0.31500
2327777;-0.31000
2330555;-0.31500
2333333;-0.32000
2336110;-0.33000
2338888;-0.31500
2341666;-0.31500
2344444;-0.30000
2347222;-0.32000
2349999;-0.32500
2352777;-0.33500
2355555;-0.32500
2358333;-0.30500
2361110;-0.31000
2363888;-0.31500
2366666;-0.32500
2369444;-0.32500
2372222;-0.31000
2374999;-0.30500
2377777;-0.30500
2380555;-0.31000
2383333;-0.32000
2386110;-0.33000
2388888;-0.30500
2391666;-0.30500
2394444;-0.30500
2397222;-0.30000
2399999;-0.31000
2402777;-0.31500
2405555;-0.30000
2408333;-0.29500
2411110;-0.29500
2413888;-0.30000
2416666;-0.30500
2419444;-0.29000
2422222;-0.28000
2424999;-0.26500
2427777;-0.26500
2430555;-0.25500
2433333;-0.25500
2436110;-0.25000
2438888;-0.23500
2441666;-0.23500
2444444;-0.22000
2447222;-0.22000
2449999;-0.21000
2452777;-0.21000
2455555;-0.19000
2458333;-0.18500
2461110;-0.18500
2463888;-0.19500
2466666;-0.21500
2469444;-0.21500
2472222;-0.21000
2474999;-0.18500
2477777;-0.19500
2480555;-0.19000
2483333;-0.19000
2486110;-0.18000
2488888;-0.16500
2491666;-0.19000
2494444;-0.24000
2497222;-0.25500
2499999;-0.27000
2502777;-0.28500
2505555;-0.29500
2508333;-0.29500
2511110;-0.30000
2513888;-0.31500
2516666;-0.33500
2519444;-0.33500
2522222;-0.32000
2524999;-0.31500
2527777;-0.31500
2530555;-0.33000
2533333;-0.32500
2536110;-0.34000
2538888;-0.33500
2541666;-0.32000
2544444;-0.32500
2547222;-0.32500
2549999;-0.35000
2552777;-0.35500
2555555;-0.34000
2558333;-0.34000
2561110;-0.32500
2563888;-0.33500
2566666;-0.34500
2569444;-0.35500
2572222;-0.35500
2574999;-0.33500
2577777;-0.32500
2580555;-0.33000
2583333;-0.36000
2586110;-0.37000
2588888;-0.39000
2591666;-0.42000
2594444;-0.46000
2597221;-0.48000
2599999;-0.53000
2602777;-0.56500
2605555;-0.57000
2608333;-0.49000
2611110;-0.35500
2613888;-0.20000
2616666;-0.02500
2619444;0.21500
2622221;0.52000
2624999;0.79000
2627777;0.93000
2630555;0.92500
2633333;0.71500
2636110;0.31000
2638888;-0.11000
2641666;-0.40500
2644444;-0.49500
2647221;-0.48000
2649999;-0.43000
2652777;-0.41000
2655555;-0.38500
2658333;-0.37500
2661110;-0.37500
2663888;-0.38500
2666666;-0.38000
2669444;-0.39000
2672221;-0.38500
2674999;-0.37500
2677777;-0.38000
2680555;-0.38500
2683333;-0.40000
2686110;-0.40000
2688888;-0.39000
2691666;-0.39000
2694444;-0.39500
2697221;-0.39000
2699999;-0.40000
2702777;-0.41500
2705555;-0.39500
2708333;-0.39000
2711110;-0.38000
2713888;-0.39500
2716666;-0.39500
2719444;-0.40000
2722221;-0.39000
2724999;-0.38500
2727777;-0.38500
2730555;-0.37000
2733333;-0.39500
2736110;-0.40500
2738888;-0.38500
2741666;-0.38500
2744444;-0.37500
2747221;-0.37000
2749999;-0.38000
2752777;-0.39500
2755555;-0.38000
2758333;-0.37000
2761110;-0.37000
2763888;-0.39000
2766666;-0.39000
2769444;-0.39000
2772221;-0.38500
2774999;-0.38000
2777777;-0.38000
2780555;-0.39000
2783333;-0.39000
2786110;-0.39500
2788888;-0.38500
2791666;-0.38000
2794444;-0.37500
2797221;-0.39000
2799999;-0.39000
2802777;-0.39500
2805555;-0.39500
2808333;-0.38500
2811110;-0.37500
2813888;-0.38500
2816666;-0.39500
2819444;-0.39000
2822221;-0.38000
2824999;-0.38000
2827777;-0.38000
2830555;-0.38500
2833333;-0.39500
2836110;-0.40500
2838888;-0.40000
2841666;-0.38500
2844444;-0.38500
2847221;-0.39000
2849999;-0.39500
2852777;-0.40000
2855555;-0.40000
2858333;-0.38500
2861110;-0.39500
2863888;-0.40000
2866666;-0.40500
2869444;-0.41500
2872221;-0.40500
2874999;-0.39500
2877777;-0.40500
2880555;-0.42000
2883333;-0.40500
2886110;-0.41000
2888888;-0.41500
2891666;-0.40500
2894444;-0.39500
2897221;-0.39500
2899999;-0.40500
2902777;-0.40000
2905555;-0.37000
2908333;-0.35000
2911110;-0.34500
2913888;-0.34000
2916666;-0.32500
2919444;-0.32000
2922221;-0.31500
2924999;-0.29500
2927777;-0.29000
2930555;-0.28500
2933333;-0.29500
2936110;-0.29000
2938888;-0.27500
2941666;-0.27500
2944444;-0.27000
2947221;-0.25500
2949999;-0.26500
2952777;-0.27000
2955555;-0.25500
2958333;-0.24500
2961110;-0.25000
2963888;-0.24500
2966666;-0.25000
2969444;-0.26500
2972221;-0.25500
2974999;-0.25000
2977777;-0.26000
2980555;-0.26000
2983332;-0.26500
2986110;-0.27000
2988888;-0.26500
2991666;-0.25000
2994444;-0.26500
2997221;-0.26500
2999999;-0.26500
3002777;-0.28000
3005555;-0.27000
3008332;-0.26000
3011110;-0.26500
3013888;-0.25500
3016666;-0.27000
3019444;-0.28000
3022221;-0.27000
3024999;-0.27500
3027777;-0.27000
3030555;-0.26500
3033332;-0.28000
3036110;-0.30000
3038888;-0.29500
3041666;-0.28500
3044444;-0.28000
3047221;-0.28000
3049999;-0.29000
3052777;-0.29500
3055555;-0.29000
3058332;-0.28000
3061110;-0.29000
3063888;-0.30000
3066666;-0.30000
3069444;-0.30500
3072221;-0.29500
3074999;-0.29000
3077777;-0.28500
3080555;-0.29500
3083332;-0.30000
3086110;-0.30500
3088888;-0.30500
3091666;-0.29500
3094444;-0.29000
3097221;-0.30000
3099999;-0.31500
3102777;-0.32000
3105555;-0.32000
3108332;-0.30000
3111110;-0.30000
3113888;-0.30500
3116666;-0.31000
3119444;-0.31500
3122221;-0.31000
3124999;-0.30000
3127777;-0.30500
3130555;-0.30500
3133332;-0.31000
3136110;-0.31500
3138888;-0.31000
3141666;-0.31000
3144444;-0.30000
3147221;-0.30500
3149999;-0.30000
3152777;-0.31000
3155555;-0.30000
3158332;-0.29500
3161110;-0.29500
3163888;-0.29000
3166666;-0.31000
3169444;-0.30000
3172221;-0.27500
3174999;-0.26500
3177777;-0.25500
3180555;-0.25000
3183332;-0.25000
3186110;-0.24500
3188888;-0.23000
3191666;-0.21000
3194444;-0.20500
3197221;-0.21500
3199999;-0.21500
3202777;-0.21000
3205555;-0.19000
3208332;-0.18500
3211110;-0.17000
3213888;-0.17500
3216666;-0.17000
3219444;-0.19500
3222221;-0.19500
3224999;-0.18500
3227777;-0.18500
3230555;-0.18000
3233332;-0.18500
3236110;-0.18500
3238888;-0.17500
3241666;-0.14500
3244444;-0.15000
3247221;-0.18000
3249999;-0.22000
3252777;-0.24500
3255555;-0.24000
3258332;-0.25000
3261110;-0.27000
3263888;-0.30000
3266666;-0.31000
3269444;-0.32500
3272221;-0.31500
3274999;-0.30500
3277777;-0.29500
3280555;-0.30000
3283332;-0.31500
3286110;-0.31500
3288888;-0.31000
3291666;-0.30500
3294444;-0.30500
3297221;-0.30500
3299999;-0.32000
3302777;-0.32500
3305555;-0.32500
3308332;-0.30500
3311110;-0.32000
3313888;-0.32500
3316666;-0.34500
3319444;-0.34500
3322221;-0.34000
3324999;-0.32500
3327777;-0.32000
3330555;-0.33000
3333332;-0.32500
3336110;-0.34500
3338888;-0.34000
3341666;-0.36000
3344444;-0.39500
3347221;-0.44000
3349999;-0.48000
3352777;-0.52500
3355555;-0.55500
3358332;-0.52000
3361110;-0.41500
3363888;-0.27000
3366666;-0.12000
3369444;0.07000
3372221;0.34500
3374999;0.64000
3377777;0.85500
3380555;0.96000
3383332;0.91500
3386110;0.65000
3388888;0.22500
3391666;-0.17000
3394443;-0.42500
3397221;-0.50000
3399999;-0.46000
3402777;-0.41000
3405555;-0.37000
3408332;-0.36500
3411110;-0.36000
3413888;-0.36500
3416666;-0.38500
3419443;-0.38000
3422221;-0.37000
3424999;-0.37000
3427777;-0.36000
3430555;-0.36500
3433332;-0.38500
3436110;-0.38000
3438888;-0.37500
3441666;-0.37000
3444443;-0.37000
3447221;-0.37500
3449999;-0.38500
3452777;-0.40000
3455555;-0.38500
3458332;-0.38500
3461110;-0.37500
3463888;-0.39000
3466666;-0.38500
3469443;-0.40500
3472221;-0.38500
3474999;-0.38000
3477777;-0.37000
3480555;-0.37000
3483332;-0.37500
3486110;-0.38000
3488888;-0.37500
3491666;-0.37000
3494443;-0.36500
3497221;-0.38500
3499999;-0.38500
3502777;-0.38000
3505555;-0.37000
3508332;-0.36500
3511110;-0.36000
3513888;-0.37000
3516666;-0.37500
3519443;-0.39500
3522221;-0.38500
3524999;-0.37500
3527777;-0.37000
3530555;-0.38000
3533332;-0.38500
3536110;-0.40000
3538888;-0.38500
3541666;-0.37500
3544443;-0.37000
3547221;-0.38500
3549999;-0.39500
3552777;-0.39000
3555555;-0.38000
3558332;-0.37500
3561110;-0.37500
3563888;-0.38000
3566666;-0.38000
3569443;-0.38000
3572221;-0.37000
3574999;-0.36000
3577777;-0.35500
3580555;-0.35500
3583332;-0.36500
3586110;-0.37500
3588888;-0.37500
3591666;-0.37000
3594443;-0.35500
3597221;-0.38000
3599999;-0.37000
3602777;-0.37500
3605555;-0.37500
3608332;-0.36500
3611110;-0.37000
3613888;-0.38000
3616666;-0.38500
3619443;-0.39000
3622221;-0.38500
3624999;-0.40000
3627777;-0.38000
3630555;-0.39000
3633332;-0.39000
3636110;-0.39500
3638888;-0.38000
3641666;-0.37500
3644443;-0.37500
3647221;-0.37000
3649999;-0.36000
3652777;-0.37000
3655555;-0.36000
3658332;-0.34000
3661110;-0.32500
3663888;-0.33000
3666666;-0.32000
3669443;-0.32000
3672221;-0.30000
3674999;-0.28500
3677777;-0.27000
3680555;-0.27000
3683332;-0.26000
3686110;-0.27500
3688888;-0.26000
3691666;-0.26000
3694443;-0.23000
3697221;-0.25500
3699999;-0.25000
3702777;-0.25500
3705555;-0.25500
3708332;-0.24000
3711110;-0.23500
3713888;-0.23500
3716666;-0.25000
3719443;-0.25000
3722221;-0.24500
3724999;-0.23500
3727777;-0.23000
3730555;-0.24500
3733332;-0.24000
3736110;-0.25000
3738888;-0.25000
3741666;-0.24000
3744443;-0.23500
3747221;-0.24000
3749999;-0.26000
3752777;-0.27000
3755555;-0.26000
3758332;-0.25000
3761110;-0.24000
3763888;-0.23000
3766666;-0.25500
3769443;-0.27000
3772221;-0.26500
3774999;-0.25000
3777777;-0.24500
3780554;-0.26000
3783332;-0.26500
3786110;-0.27000
3788888;-0.26000
3791666;-0.25500
3794443;-0.26000
3797221;-0.27000
3799999;-0.27000
3802777;-0.27000
3805554;-0.27000
3808332;-0.26500
3811110;-0.26000
3813888;-0.26000
3816666;-0.27500
3819443;-0.28000
3822221;-0.26500
3824999;-0.26000
3827777;-0.26000
3830554;-0.27000
3833332;-0.27000
3836110;-0.28500
3838888;-0.29000
3841666;-0.28000
3844443;-0.27500
3847221;-0.28000
3849999;-0.28500
3852777;-0.29000
3855554;-0.28000
3858332;-0.27000
3861110;-0.27000
3863888;-0.27000
3866666;-0.28500
3869443;-0.28500
3872221;-0.28500
3874999;-0.26000
3877777;-0.26500
3880554;-0.27000
3883332;-0.28500
3886110;-0.28500
3888888;-0.28000
3891666;-0.26500
3894443;-0.26000
3897221;-0.27000
3899999;-0.27500
3902777;-0.29500
3905554;-0.29000
3908332;-0.28500
3911110;-0.29500
3913888;-0.27000
3916666;-0.29000
3919443;-0.29500
3922221;-0.28500
3924999;-0.27000
3927777;-0.27000
3930554;-0.27500
3933332;-0.27500
3936110;-0.28500
3938888;-0.27000
3941666;-0.24500
3944443;-0.24500
3947221;-0.23000
3949999;-0.23000
3952777;-0.24000
3955554;-0.22000
3958332;-0.20500
3961110;-0.20500
3963888;-0.21500
3966666;-0.21000
3969443;-0.20500
3972221;-0.18000
3974999;-0.17000
3977777;-0.15500
3980554;-0.15000
3983332;-0.16000
3986110;-0.17500
3988888;-0.16500
