time_ms;ecg_value
0;-0.16500
2778;-0.17500
5556;-0.17500
8333;-0.17000
11111;-0.18000
13889;-0.18000
16667;-0.17500
19444;-0.15500
22222;-0.15500
25000;-0.13500
27778;-0.12500
30556;-0.14500
33333;-0.18000
36111;-0.20500
38889;-0.23000
41667;-0.22500
44444;-0.23500
47222;-0.26000
50000;-0.27500
52778;-0.28500
55556;-0.28500
58333;-0.28500
61111;-0.30000
63889;-0.31000
66667;-0.31000
69444;-0.30000
72222;-0.29500
75000;-0.29000
77778;-0.31500
80556;-0.32500
83333;-0.32500
86111;-0.31500
88889;-0.31500
91667;-0.32500
94444;-0.32000
97222;-0.32500
100000;-0.33000
102778;-0.33000
105556;-0.31500
108333;-0.32000
111111;-0.32500
113889;-0.34000
116667;-0.34000
119444;-0.31500
122222;-0.31500
125000;-0.32500
127778;-0.34000
130556;-0.38000
133333;-0.42000
136111;-0.43000
138889;-0.44500
141667;-0.44500
144444;-0.49500
147222;-0.53500
150000;-0.53000
152778;-0.43500
155556;-0.27500
158333;-0.10500
161111;0.07000
163889;0.26000
166667;0.53000
169444;0.82500
172222;1.04500
175000;1.16000
177778;1.17000
180556;0.96000
183333;0.55500
186111;0.08000
188889;-0.26000
191667;-0.41500
194444;-0.43500
197222;-0.40500
200000;-0.36000
202778;-0.33000
205555;-0.33000
208333;-0.33500
211111;-0.34500
213889;-0.35500
216667;-0.35500
219444;-0.35000
222222;-0.34500
225000;-0.34500
227778;-0.35500
230555;-0.37000
233333;-0.37000
236111;-0.36500
238889;-0.35500
241667;-0.36500
244444;-0.36000
247222;-0.36500
250000;-0.37500
252778;-0.37500
255555;-0.36000
258333;-0.35500
261111;-0.37500
263889;-0.37500
266667;-0.38000
269444;-0.37000
272222;-0.36500
275000;-0.36500
277778;-0.37500
280555;-0.38500
283333;-0.37500
286111;-0.37500
288889;-0.36500
291667;-0.37000
294444;-0.38500
297222;-0.38000
300000;-0.37500
302778;-0.37000
305555;-0.37500
308333;-0.37000
311111;-0.38000
313889;-0.38500
316667;-0.38500
319444;-0.37000
322222;-0.37000
325000;-0.37000
327778;-0.37500
330555;-0.39000
333333;-0.39000
336111;-0.38500
338889;-0.37000
341667;-0.37000
344444;-0.38500
347222;-0.39000
350000;-0.39500
352778;-0.38000
355555;-0.36500
358333;-0.36000
361111;-0.37000
363889;-0.38000
366667;-0.38000
369444;-0.37500
372222;-0.37500
375000;-0.37000
377778;-0.38000
380555;-0.39000
383333;-0.38000
386111;-0.36500
388889;-0.36500
391667;-0.37000
394444;-0.38000
397222;-0.39000
400000;-0.38000
402778;-0.38000
405555;-0.38000
408333;-0.38500
411111;-0.39000
413889;-0.40000
416667;-0.39500
419444;-0.38500
422222;-0.38000
425000;-0.38000
427778;-0.39000
430555;-0.39500
433333;-0.40000
436111;-0.38500
438889;-0.38000
441667;-0.37500
444444;-0.38500
447222;-0.39500
450000;-0.38000
452778;-0.37000
455555;-0.36000
458333;-0.35500
461111;-0.36000
463889;-0.36000
466667;-0.36500
469444;-0.35000
472222;-0.34500
475000;-0.33500
477778;-0.33500
480555;-0.32500
483333;-0.32000
486111;-0.30500
488889;-0.29000
491667;-0.28000
494444;-0.27500
497222;-0.27500
500000;-0.27500
502778;-0.25500
505555;-0.24500
508333;-0.24500
511111;-0.24500
513889;-0.25500
516667;-0.24500
519444;-0.23500
522222;-0.22500
525000;-0.23000
527778;-0.24000
530555;-0.24000
533333;-0.24500
536111;-0.25000
538889;-0.22500
541667;-0.23500
544444;-0.23500
547222;-0.25500
550000;-0.25000
552778;-0.24500
555555;-0.23500
558333;-0.24000
561111;-0.24000
563889;-0.24500
566667;-0.24500
569444;-0.24000
572222;-0.24000
575000;-0.23500
577778;-0.25500
580555;-0.27000
583333;-0.26500
586111;-0.25500
588889;-0.24500
591667;-0.25500
594444;-0.26500
597222;-0.27500
600000;-0.27500
602778;-0.27500
605555;-0.27000
608333;-0.26500
611111;-0.27500
613889;-0.28000
616666;-0.29500
619444;-0.28000
622222;-0.28000
625000;-0.27500
627778;-0.28000
630555;-0.29500
633333;-0.29500
636111;-0.28500
638889;-0.27500
641666;-0.29000
644444;-0.29000
647222;-0.30000
650000;-0.30000
652778;-0.29000
655555;-0.28500
658333;-0.28500
661111;-0.29000
663889;-0.30500
666666;-0.29500
669444;-0.29000
672222;-0.28500
675000;-0.28000
677778;-0.29500
680555;-0.30500
683333;-0.30000
686111;-0.29500
688889;-0.29000
691666;-0.30000
694444;-0.30000
697222;-0.30500
700000;-0.30500
702778;-0.29000
705555;-0.29000
708333;-0.28500
711111;-0.30500
713889;-0.30000
716666;-0.30000
719444;-0.29000
722222;-0.27500
725000;-0.28500
727778;-0.28000
730555;-0.29500
733333;-0.29000
736111;-0.29000
738889;-0.27000
741666;-0.27500
744444;-0.27500
747222;-0.28500
750000;-0.27000
752778;-0.24500
755555;-0.22500
758333;-0.24000
761111;-0.22000
763889;-0.22500
766666;-0.21500
769444;-0.21000
772222;-0.19500
775000;-0.19000
777778;-0.19000
780555;-0.19500
783333;-0.19500
786111;-0.16500
788889;-0.14500
791666;-0.14500
794444;-0.15500
797222;-0.16000
800000;-0.16500
802778;-0.17000
805555;-0.16500
808333;-0.16500
811111;-0.16000
813889;-0.16000
816666;-0.16000
819444;-0.14500
822222;-0.13000
825000;-0.11500
827778;-0.11000
830555;-0.15000
833333;-0.18500
836111;-0.20500
838889;-0.20500
841666;-0.22000
844444;-0.23500
847222;-0.26500
850000;-0.27000
852778;-0.26500
855555;-0.26500
858333;-0.28000
861111;-0.28000
863889;-0.29000
866666;-0.28500
869444;-0.27000
872222;-0.27000
875000;-0.27000
877778;-0.28000
880555;-0.30500
883333;-0.29500
886111;-0.29500
888889;-0.28000
891666;-0.29000
894444;-0.29500
897222;-0.31000
900000;-0.30500
902778;-0.31500
905555;-0.29500
908333;-0.30000
911111;-0.30500
913889;-0.31500
916666;-0.31000
919444;-0.29500
922222;-0.29500
925000;-0.30500
927778;-0.30500
930555;-0.32500
933333;-0.34000
936111;-0.34500
938889;-0.36000
941666;-0.40000
944444;-0.43500
947222;-0.46500
950000;-0.48500
952778;-0.51000
955555;-0.47500
958333;-0.36500
961111;-0.23000
963889;-0.07500
966666;0.11500
969444;0.38000
972222;0.65500
975000;0.92000
977778;1.07000
980555;1.09000
983333;0.95500
986111;0.62000
988889;0.19000
991666;-0.20000
994444;-0.42500
997222;-0.46500
1000000;-0.42000
1002777;-0.35500
1005555;-0.32500
1008333;-0.33500
1011111;-0.34500
1013889;-0.36000
1016666;-0.36000
1019444;-0.35000
1022222;-0.34000
1025000;-0.34500
1027777;-0.35500
1030555;-0.37000
1033333;-0.36500
1036111;-0.34500
1038889;-0.34500
1041666;-0.36000
1044444;-0.34500
1047222;-0.36500
1050000;-0.34000
1052777;-0.34500
1055555;-0.34000
1058333;-0.34000
1061111;-0.34500
1063889;-0.35500
1066666;-0.36000
1069444;-0.34500
1072222;-0.34000
1075000;-0.34000
1077777;-0.35000
1080555;-0.36500
1083333;-0.36500
1086111;-0.35000
1088889;-0.34000
1091666;-0.34500
1094444;-0.35500
1097222;-0.35500
1100000;-0.36500
1102777;-0.35000
1105555;-0.34500
1108333;-0.34500
1111111;-0.35500
1113889;-0.36500
1116666;-0.37000
1119444;-0.37000
1122222;-0.35500
1125000;-0.35000
1127777;-0.35000
1130555;-0.36500
1133333;-0.35500
1136111;-0.34500
1138889;-0.35000
1141666;-0.34000
1144444;-0.37000
1147222;-0.36500
1150000;-0.36500
1152777;-0.35500
1155555;-0.35000
1158333;-0.35000
1161111;-0.37000
1163889;-0.37500
1166666;-0.37000
1169444;-0.35000
1172222;-0.34500
1175000;-0.34500
1177777;-0.35000
1180555;-0.36500
1183333;-0.35000
1186111;-0.36000
1188889;-0.35000
1191666;-0.35000
1194444;-0.35500
1197222;-0.36500
1200000;-0.37000
1202777;-0.36000
1205555;-0.36000
1208333;-0.36500
1211111;-0.36500
1213889;-0.36500
1216666;-0.36000
1219444;-0.35500
1222222;-0.36500
1225000;-0.35500
1227777;-0.36500
1230555;-0.37500
1233333;-0.37500
1236111;-0.37000
1238889;-0.37000
1241666;-0.37000
1244444;-0.38000
1247222;-0.37500
1250000;-0.38000
1252777;-0.35500
1255555;-0.35000
1258333;-0.34500
1261111;-0.35000
1263889;-0.35000
1266666;-0.33000
1269444;-0.31500
1272222;-0.30500
1275000;-0.29500
1277777;-0.30000
1280555;-0.30500
1283333;-0.28500
1286111;-0.27500
1288889;-0.26500
1291666;-0.23000
1294444;-0.24500
1297222;-0.25000
1300000;-0.25000
1302777;-0.25500
1305555;-0.23000
1308333;-0.23000
1311111;-0.24000
1313889;-0.24500
1316666;-0.23000
1319444;-0.21500
1322222;-0.22000
1325000;-0.21500
1327777;-0.22000
1330555;-0.24500
1333333;-0.24500
1336111;-0.22000
1338889;-0.21000
1341666;-0.21500
1344444;-0.22500
1347222;-0.22000
1350000;-0.22500
1352777;-0.21500
1355555;-0.22500
1358333;-0.21500
1361111;-0.22500
1363889;-0.24000
1366666;-0.24000
1369444;-0.23500
1372222;-0.23000
1375000;-0.22500
1377777;-0.23500
1380555;-0.25500
1383333;-0.24000
1386111;-0.24500
1388888;-0.23500
1391666;-0.24000
1394444;-0.24500
1397222;-0.26500
1400000;-0.26000
1402777;-0.25000
1405555;-0.25000
1408333;-0.24500
1411111;-0.25500
1413888;-0.27000
1416666;-0.26000
1419444;-0.25000
1422222;-0.25000
1425000;-0.25000
1427777;-0.27000
1430555;-0.27500
1433333;-0.26000
1436111;-0.26500
1438888;-0.26500
1441666;-0.27500
1444444;-0.27500
1447222;-0.28500
1450000;-0.27000
1452777;-0.26500
1455555;-0.25000
1458333;-0.27000
1461111;-0.27000
1463888;-0.28500
1466666;-0.27000
1469444;-0.26500
1472222;-0.27500
1475000;-0.28000
1477777;-0.28500
1480555;-0.29000
1483333;-0.30500
1486111;-0.30000
1488888;-0.28500
1491666;-0.28500
1494444;-0.29500
1497222;-0.30000
1500000;-0.29500
1502777;-0.29500
1505555;-0.28500
1508333;-0.28500
1511111;-0.29500
1513888;-0.31000
1516666;-0.30000
1519444;-0.27500
1522222;-0.26000
1525000;-0.25500
1527777;-0.27000
1530555;-0.28500
1533333;-0.29000
1536111;-0.28500
1538888;-0.27500
1541666;-0.27500
1544444;-0.28000
1547222;-0.28000
1550000;-0.28000
1552777;-0.27000
1555555;-0.25500
1558333;-0.25500
1561111;-0.25000
1563888;-0.25500
1566666;-0.26000
1569444;-0.25000
1572222;-0.23000
1575000;-0.21500
1577777;-0.22000
1580555;-0.22000
1583333;-0.21500
1586111;-0.19500
1588888;-0.18000
1591666;-0.17000
1594444;-0.17000
1597222;-0.16500
1600000;-0.15500
1602777;-0.14000
1605555;-0.13500
1608333;-0.13000
1611111;-0.17500
1613888;-0.18500
1616666;-0.19000
1619444;-0.18000
1622222;-0.15500
1625000;-0.15500
1627777;-0.16000
1630555;-0.17000
1633333;-0.16000
1636111;-0.14500
1638888;-0.14500
1641666;-0.18000
1644444;-0.21500
1647222;-0.22500
1650000;-0.23000
1652777;-0.24500
1655555;-0.26500
1658333;-0.28000
1661111;-0.29500
1663888;-0.31000
1666666;-0.29500
1669444;-0.29000
1672222;-0.29500
1675000;-0.30000
1677777;-0.30500
1680555;-0.31500
1683333;-0.32500
1686111;-0.32000
1688888;-0.31500
1691666;-0.31500
1694444;-0.31500
1697222;-0.31500
1700000;-0.31500
1702777;-0.31000
1705555;-0.30500
1708333;-0.31500
1711111;-0.33500
1713888;-0.34000
1716666;-0.32500
1719444;-0.32500
1722222;-0.31000
1725000;-0.31500
1727777;-0.32000
1730555;-0.33500
1733333;-0.33000
1736111;-0.33500
1738888;-0.33500
1741666;-0.35500
1744444;-0.41000
1747222;-0.44000
1750000;-0.46500
1752777;-0.48500
1755555;-0.51500
1758333;-0.50000
1761111;-0.42000
1763888;-0.27000
1766666;-0.09000
1769444;0.13500
1772222;0.40500
1775000;0.69500
1777777;0.92000
1780555;1.00500
1783333;0.94500
1786111;0.67500
1788888;0.27000
1791666;-0.13000
1794444;-0.37500
1797222;-0.47000
1799999;-0.47500
1802777;-0.41500
1805555;-0.36500
1808333;-0.36500
1811111;-0.37500
1813888;-0.38500
1816666;-0.37000
1819444;-0.36000
1822222;-0.34000
1824999;-0.36500
1827777;-0.36500
1830555;-0.37000
1833333;-0.38000
1836111;-0.36500
1838888;-0.37000
1841666;-0.36500
1844444;-0.37000
1847222;-0.37500
1849999;-0.37000
1852777;-0.36500
1855555;-0.35500
1858333;-0.36000
1861111;-0.36500
1863888;-0.38000
1866666;-0.38000
1869444;-0.37500
1872222;-0.36500
1874999;-0.36000
1877777;-0.37000
1880555;-0.39000
1883333;-0.38000
1886111;-0.37000
1888888;-0.35500
1891666;-0.37000
1894444;-0.38500
1897222;-0.39000
1899999;-0.38000
1902777;-0.37000
1905555;-0.36000
1908333;-0.35500
1911111;-0.36000
1913888;-0.38000
1916666;-0.39000
1919444;-0.38000
1922222;-0.37000
1924999;-0.36000
1927777;-0.36500
1930555;-0.38000
1933333;-0.38500
1936111;-0.38000
1938888;-0.36500
1941666;-0.36000
1944444;-0.36500
1947222;-0.38500
1949999;-0.38500
1952777;-0.37500
1955555;-0.37000
1958333;-0.36000
1961111;-0.36500
1963888;-0.37500
1966666;-0.37000
1969444;-0.37500
1972222;-0.38000
1974999;-0.37500
1977777;-0.37500
1980555;-0.39000
1983333;-0.39000
1986111;-0.38000
1988888;-0.37000
1991666;-0.37000
1994444;-0.38500
1997222;-0.39500
1999999;-0.39500
2002777;-0.39000
2005555;-0.38000
2008333;-0.38000
2011111;-0.39500
2013888;-0.42000
2016666;-0.42000
2019444;-0.43000
2022222;-0.41500
2024999;-0.43500
2027777;-0.43500
2030555;-0.43000
2033333;-0.42000
2036111;-0.41000
2038888;-0.40500
2041666;-0.40500
2044444;-0.41000
2047222;-0.42500
2049999;-0.43000
2052777;-0.42500
2055555;-0.40500
2058333;-0.41500
2061111;-0.39500
2063888;-0.39000
2066666;-0.37500
2069444;-0.37500
2072222;-0.35500
2074999;-0.33500
2077777;-0.32500
2080555;-0.33000
2083333;-0.32500
2086111;-0.31000
2088888;-0.29000
2091666;-0.28000
2094444;-0.27500
2097222;-0.27500
2099999;-0.26000
2102777;-0.25000
2105555;-0.23500
2108333;-0.24000
2111111;-0.23500
2113888;-0.25000
2116666;-0.26000
2119444;-0.23500
2122222;-0.23000
2124999;-0.23500
2127777;-0.24500
2130555;-0.25500
2133333;-0.24500
2136111;-0.23000
2138888;-0.22000
2141666;-0.23000
2144444;-0.24500
2147222;-0.25500
2149999;-0.26000
2152777;-0.24000
2155555;-0.24000
2158333;-0.25500
2161111;-0.26000
2163888;-0.26000
2166666;-0.26500
2169444;-0.26000
2172222;-0.23500
2174999;-0.25500
2177777;-0.25000
2180555;-0.26000
2183333;-0.25500
2186110;-0.25000
2188888;-0.24500
2191666;-0.25500
2194444;-0.26000
2197222;-0.27000
2199999;-0.28000
2202777;-0.27500
2205555;-0.26500
2208333;-0.25500
2211110;-0.27000
2213888;-0.28000
2216666;-0.28500
2219444;-0.27500
2222222;-0.26500
2224999;-0.27000
2227777;-0.29500
2230555;-0.29000
2233333;-0.29000
2236110;-0.28500
2238888;-0.27500
2241666;-0.28500
2244444;-0.28500
2247222;-0.28500
2249999;-0.29000
2252777;-0.29500
2255555;-0.27000
2258333;-0.29000
2261110;-0.29000
2263888;-0.30500
2266666;-0.30500
2269444;-0.29500
2272222;-0.29000
2274999;-0.29000
2277777;-0.29500
2280555;-0.30500
2283333;-0.30000
2286110;-0.29500
2288888;-0.27000
2291666;-0.27500
2294444;-0.29000
2297222;-0.29000
2299999;-0.30000
2302777;-0.29000
2305555;-0.27500
2308333;-0.27500
2311110;-0.27500
2313888;-0.31000
2316666;-0.30000
2319444;-0.28000
2322222;-0.27000
2324999;-0.27500
2327777;-0.27000
2330555;-0.28000
2333333;-0.27500
2336110;-0.26500
2338888;-0.26500
2341666;-0.28000
2344444;-0.29000
2347222;-0.29500
2349999;-0.29000
2352777;-0.28000
2355555;-0.26500
2358333;-0.25500
2361110;-0.25000
2363888;-0.24000
2366666;-0.25000
2369444;-0.24500
2372222;-0.21500
2374999;-0.22000
2377777;-0.21000
2380555;-0.20500
2383333;-0.20500
2386110;-0.19500
2388888;-0.17500
2391666;-0.17000
2394444;-0.17000
2397222;-0.17000
2399999;-0.16500
2402777;-0.16000
2405555;-0.15500
2408333;-0.18000
2411110;-0.17500
2413888;-0.18500
2416666;-0.17500
2419444;-0.16000
2422222;-0.15500
2424999;-0.16500
2427777;-0.15500
