time_ms;ecg_value
0;-0.18000
2778;-0.17500
5556;-0.15000
8333;-0.13000
11111;-0.13000
13889;-0.14000
16667;-0.18000
19444;-0.19500
22222;-0.21500
25000;-0.21500
27778;-0.22500
30556;-0.24000
33333;-0.25500
36111;-0.25000
38889;-0.24000
41667;-0.25500
44444;-0.26500
47222;-0.28000
50000;-0.28500
52778;-0.27500
55556;-0.25000
58333;-0.25500
61111;-0.27500
63889;-0.27500
66667;-0.28000
69444;-0.27500
72222;-0.26500
75000;-0.27000
77778;-0.27500
80556;-0.30000
83333;-0.29500
86111;-0.29000
88889;-0.29000
91667;-0.27500
94444;-0.28500
97222;-0.28500
100000;-0.28500
102778;-0.29000
105556;-0.27000
108333;-0.29000
111111;-0.30000
113889;-0.32000
116667;-0.37500
119444;-0.41000
122222;-0.41000
125000;-0.44000
127778;-0.47500
130556;-0.49000
133333;-0.44500
136111;-0.32000
138889;-0.16000
141667;-0.01500
144444;0.15500
147222;0.39500
150000;0.66500
152778;0.91500
155556;1.05500
158333;1.06500
161111;0.91500
163889;0.58000
166667;0.15500
169444;-0.18000
172222;-0.35500
175000;-0.42000
177778;-0.41000
180556;-0.36500
183333;-0.34000
186111;-0.32000
188889;-0.31000
191667;-0.32000
194444;-0.32500
197222;-0.32500
200000;-0.32500
202778;-0.31500
205555;-0.31000
208333;-0.31500
211111;-0.32000
213889;-0.33500
216667;-0.34000
219444;-0.32000
222222;-0.32000
225000;-0.33500
227778;-0.33000
230555;-0.35000
233333;-0.34500
236111;-0.34000
238889;-0.33500
241667;-0.34000
244444;-0.34000
247222;-0.32500
250000;-0.33500
252778;-0.32000
255555;-0.31500
258333;-0.32500
261111;-0.33000
263889;-0.33500
266667;-0.34500
269444;-0.33500
272222;-0.32500
275000;-0.34000
277778;-0.34500
280555;-0.35500
283333;-0.35000
286111;-0.33500
288889;-0.33000
291667;-0.34000
294444;-0.35000
297222;-0.35000
300000;-0.35000
302778;-0.33500
305555;-0.32000
308333;-0.32500
311111;-0.33500
313889;-0.34500
316667;-0.35500
319444;-0.34500
322222;-0.33500
325000;-0.33500
327778;-0.33500
330555;-0.35000
333333;-0.34500
336111;-0.34000
338889;-0.33500
341667;-0.33500
344444;-0.34000
347222;-0.35500
350000;-0.36000
352778;-0.35000
355555;-0.34000
358333;-0.36000
361111;-0.35500
363889;-0.35500
366667;-0.36000
369444;-0.34500
372222;-0.33500
375000;-0.33000
377778;-0.35000
380555;-0.35500
383333;-0.35000
386111;-0.32500
388889;-0.32500
391667;-0.33000
394444;-0.34000
397222;-0.34000
400000;-0.34000
402778;-0.33000
405555;-0.32500
408333;-0.33000
411111;-0.35500
413889;-0.35500
416667;-0.36500
419444;-0.35500
422222;-0.35000
425000;-0.36000
427778;-0.35500
430555;-0.36000
433333;-0.36000
436111;-0.35000
438889;-0.34000
441667;-0.33500
444444;-0.34500
447222;-0.34500
450000;-0.35000
452778;-0.35500
455555;-0.33500
458333;-0.33000
461111;-0.33500
463889;-0.34500
466667;-0.33500
469444;-0.32000
472222;-0.29500
475000;-0.29000
477778;-0.29000
480555;-0.30000
483333;-0.28500
486111;-0.27000
488889;-0.25500
491667;-0.25000
494444;-0.25000
497222;-0.25000
500000;-0.25000
502778;-0.23500
505555;-0.21500
508333;-0.23000
511111;-0.23000
513889;-0.24500
516667;-0.24000
519444;-0.23000
522222;-0.22000
525000;-0.21500
527778;-0.23000
530555;-0.23000
533333;-0.23500
536111;-0.22500
538889;-0.21500
541667;-0.23500
544444;-0.23500
547222;-0.23500
550000;-0.24000
552778;-0.24500
555555;-0.22000
558333;-0.22500
561111;-0.23500
563889;-0.24000
566667;-0.25500
569444;-0.24500
572222;-0.26500
575000;-0.27000
577778;-0.27500
580555;-0.27000
583333;-0.26500
586111;-0.25500
588889;-0.23500
591667;-0.23500
594444;-0.24500
597222;-0.25000
600000;-0.26500
602778;-0.26000
605555;-0.25000
608333;-0.26500
611111;-0.28000
613889;-0.28500
616666;-0.27500
619444;-0.26000
622222;-0.25000
625000;-0.25500
627778;-0.25500
630555;-0.28500
633333;-0.28500
636111;-0.27500
638889;-0.26000
641666;-0.24500
644444;-0.26000
647222;-0.28000
650000;-0.30000
652778;-0.29500
655555;-0.30000
658333;-0.31500
661111;-0.31500
663889;-0.31500
666666;-0.32000
669444;-0.31500
672222;-0.30500
675000;-0.31000
677778;-0.30500
680555;-0.31000
683333;-0.32000
686111;-0.29000
688889;-0.28500
691666;-0.28500
694444;-0.29500
697222;-0.31000
700000;-0.31500
702778;-0.29000
705555;-0.28000
708333;-0.29000
711111;-0.30000
713889;-0.30000
716666;-0.32000
719444;-0.31000
722222;-0.29500
725000;-0.30500
727778;-0.31500
730555;-0.32000
733333;-0.31000
736111;-0.30500
738889;-0.29000
741666;-0.29500
744444;-0.29500
747222;-0.28500
750000;-0.28500
752778;-0.25500
755555;-0.24500
758333;-0.22500
761111;-0.22000
763889;-0.23500
766666;-0.22500
769444;-0.22500
772222;-0.22000
775000;-0.21500
777778;-0.21500
780555;-0.21500
783333;-0.21000
786111;-0.20000
788889;-0.17500
791666;-0.18000
794444;-0.18500
797222;-0.20000
800000;-0.22000
802778;-0.21500
805555;-0.22000
808333;-0.20500
811111;-0.20500
813889;-0.21500
816666;-0.22000
819444;-0.23500
822222;-0.23500
825000;-0.22500
827778;-0.23000
830555;-0.22000
833333;-0.20500
836111;-0.18000
838889;-0.18500
841666;-0.20500
844444;-0.22500
847222;-0.25500
850000;-0.26500
852778;-0.27000
855555;-0.30000
858333;-0.33000
861111;-0.34000
863889;-0.35000
866666;-0.35500
869444;-0.34500
872222;-0.34000
875000;-0.33500
877778;-0.34500
880555;-0.35000
883333;-0.35500
886111;-0.34500
888889;-0.33000
891666;-0.34000
894444;-0.34000
897222;-0.34000
900000;-0.35000
902778;-0.33000
905555;-0.32500
908333;-0.34000
911111;-0.36000
913889;-0.36500
916666;-0.36500
919444;-0.37000
922222;-0.35000
925000;-0.36000
927778;-0.38000
930555;-0.40500
933333;-0.44000
936111;-0.46000
938889;-0.47500
941666;-0.52500
944444;-0.54000
947222;-0.51500
950000;-0.41000
952778;-0.25500
955555;-0.09500
958333;0.09000
961111;0.34000
963889;0.61000
966666;0.85000
969444;0.99500
972222;0.96500
975000;0.73500
977778;0.34000
980555;-0.08500
983333;-0.37500
986111;-0.48000
988889;-0.48500
991666;-0.46500
994444;-0.43000
997222;-0.41000
1000000;-0.40500
1002777;-0.40500
1005555;-0.41000
1008333;-0.40500
1011111;-0.40000
1013889;-0.40000
1016666;-0.38500
1019444;-0.38000
1022222;-0.36500
1025000;-0.39000
1027777;-0.40500
1030555;-0.41500
1033333;-0.41500
1036111;-0.40500
1038889;-0.39500
1041666;-0.40500
1044444;-0.40000
1047222;-0.40000
1050000;-0.38500
1052777;-0.38500
1055555;-0.38000
1058333;-0.37500
1061111;-0.40000
1063889;-0.39500
1066666;-0.40000
1069444;-0.39000
1072222;-0.39000
1075000;-0.40000
1077777;-0.42000
1080555;-0.42500
1083333;-0.42000
1086111;-0.41000
1088889;-0.39000
1091666;-0.39000
1094444;-0.39500
1097222;-0.39500
1100000;-0.40500
1102777;-0.40500
1105555;-0.40500
1108333;-0.40500
1111111;-0.41500
1113889;-0.43000
1116666;-0.43500
1119444;-0.42500
1122222;-0.41500
1125000;-0.41500
1127777;-0.44000
1130555;-0.44000
1133333;-0.45000
1136111;-0.43000
1138889;-0.41500
1141666;-0.41000
1144444;-0.42500
1147222;-0.43000
1150000;-0.44000
1152777;-0.43000
1155555;-0.40500
1158333;-0.40500
1161111;-0.42000
1163889;-0.43500
1166666;-0.44000
1169444;-0.45500
1172222;-0.43500
1175000;-0.42500
1177777;-0.43500
1180555;-0.42500
1183333;-0.44500
1186111;-0.45000
1188889;-0.44000
1191666;-0.42500
1194444;-0.43500
1197222;-0.43500
1200000;-0.43500
1202777;-0.44500
1205555;-0.44500
1208333;-0.48000
1211111;-0.47000
1213889;-0.49000
1216666;-0.49000
1219444;-0.49000
1222222;-0.49000
1225000;-0.48000
1227777;-0.48000
1230555;-0.47000
1233333;-0.49000
1236111;-0.48000
1238889;-0.48000
1241666;-0.48500
1244444;-0.49000
1247222;-0.49000
1250000;-0.49000
1252777;-0.46000
1255555;-0.43500
1258333;-0.42500
1261111;-0.41000
1263889;-0.41000
1266666;-0.39500
1269444;-0.37000
1272222;-0.36000
1275000;-0.35500
1277777;-0.35000
1280555;-0.36000
1283333;-0.35000
1286111;-0.32500
1288889;-0.31500
1291666;-0.31500
1294444;-0.31500
1297222;-0.32000
1300000;-0.31500
1302777;-0.30500
1305555;-0.28500
1308333;-0.28000
1311111;-0.28000
1313889;-0.28000
1316666;-0.29500
1319444;-0.28500
1322222;-0.27000
1325000;-0.27000
1327777;-0.28500
1330555;-0.29500
1333333;-0.30000
1336111;-0.29000
1338889;-0.28000
1341666;-0.28500
1344444;-0.28500
1347222;-0.29500
1350000;-0.29500
1352777;-0.27500
1355555;-0.28000
1358333;-0.28000
1361111;-0.30000
1363889;-0.30000
1366666;-0.30000
1369444;-0.29000
1372222;-0.28000
1375000;-0.28500
1377777;-0.29500
1380555;-0.30000
1383333;-0.30500
1386111;-0.29000
1388888;-0.29000
1391666;-0.28500
1394444;-0.29000
1397222;-0.30500
1400000;-0.30500
1402777;-0.29500
1405555;-0.29500
1408333;-0.29000
1411111;-0.30500
1413888;-0.30500
1416666;-0.32500
1419444;-0.30500
1422222;-0.29000
1425000;-0.30000
1427777;-0.31500
1430555;-0.31500
1433333;-0.32500
1436111;-0.31000
1438888;-0.30500
1441666;-0.30500
1444444;-0.32000
1447222;-0.31500
1450000;-0.32000
1452777;-0.31000
1455555;-0.30500
1458333;-0.29500
1461111;-0.31000
1463888;-0.32000
1466666;-0.32000
1469444;-0.30500
1472222;-0.29000
1475000;-0.29500
1477777;-0.30000
1480555;-0.31000
1483333;-0.30500
1486111;-0.30500
1488888;-0.30000
1491666;-0.29500
1494444;-0.29500
1497222;-0.30500
1500000;-0.30000
1502777;-0.29500
1505555;-0.29500
1508333;-0.28500
1511111;-0.30000
1513888;-0.31000
1516666;-0.31500
1519444;-0.29500
1522222;-0.28500
1525000;-0.28000
1527777;-0.28500
1530555;-0.27500
1533333;-0.28500
1536111;-0.26500
1538888;-0.25500
1541666;-0.23000
1544444;-0.23000
1547222;-0.22500
1550000;-0.23000
1552777;-0.21000
1555555;-0.20500
1558333;-0.20000
1561111;-0.20500
1563888;-0.21000
1566666;-0.21000
1569444;-0.20000
1572222;-0.18500
1575000;-0.17500
1577777;-0.17500
1580555;-0.17000
1583333;-0.18500
1586111;-0.17000
1588888;-0.17000
1591666;-0.17000
1594444;-0.18000
1597222;-0.20000
1600000;-0.20000
1602777;-0.17500
1605555;-0.17500
1608333;-0.18500
1611111;-0.19500
1613888;-0.20000
1616666;-0.17500
1619444;-0.16000
1622222;-0.14500
1625000;-0.19500
1627777;-0.23500
1630555;-0.25000
1633333;-0.25500
1636111;-0.26500
1638888;-0.26500
1641666;-0.28000
1644444;-0.29000
1647222;-0.31000
1650000;-0.31000
1652777;-0.29000
1655555;-0.29000
1658333;-0.28500
1661111;-0.28500
1663888;-0.30000
1666666;-0.29500
1669444;-0.30000
1672222;-0.29500
1675000;-0.29000
1677777;-0.30000
1680555;-0.31000
1683333;-0.32000
1686111;-0.32000
1688888;-0.32500
1691666;-0.32500
1694444;-0.32000
1697222;-0.32500
1700000;-0.33500
1702777;-0.32000
1705555;-0.32500
1708333;-0.31500
1711111;-0.32500
1713888;-0.34000
1716666;-0.37500
1719444;-0.41000
1722222;-0.43000
1725000;-0.44500
1727777;-0.48500
1730555;-0.50000
1733333;-0.47000
1736111;-0.33000
1738888;-0.15000
1741666;0.06000
1744444;0.30000
1747222;0.56500
1750000;0.83500
1752777;1.05000
1755555;1.13500
1758333;1.08500
1761111;0.81500
1763888;0.34500
1766666;-0.12000
1769444;-0.42000
1772222;-0.49000
1775000;-0.44000
1777777;-0.38000
1780555;-0.35500
1783333;-0.35500
1786111;-0.35500
1788888;-0.34500
1791666;-0.35000
1794444;-0.35000
1797222;-0.37000
1799999;-0.37000
1802777;-0.36000
1805555;-0.36500
1808333;-0.36500
1811111;-0.37000
1813888;-0.37500
1816666;-0.37500
1819444;-0.37000
1822222;-0.36500
1824999;-0.36000
1827777;-0.37000
1830555;-0.38000
1833333;-0.38000
1836111;-0.37000
1838888;-0.37500
1841666;-0.37000
1844444;-0.38000
1847222;-0.38000
1849999;-0.39000
1852777;-0.37500
1855555;-0.36500
1858333;-0.37000
1861111;-0.37000
1863888;-0.37500
1866666;-0.37500
1869444;-0.36500
1872222;-0.35000
1874999;-0.36000
1877777;-0.37000
1880555;-0.38000
1883333;-0.38000
1886111;-0.37500
1888888;-0.37000
1891666;-0.36500
1894444;-0.37000
1897222;-0.38000
1899999;-0.38500
1902777;-0.36500
1905555;-0.36500
1908333;-0.37000
1911111;-0.38000
1913888;-0.39000
1916666;-0.39000
1919444;-0.38000
1922222;-0.37500
1924999;-0.38000
1927777;-0.39000
1930555;-0.39500
1933333;-0.39000
1936111;-0.39000
1938888;-0.38000
1941666;-0.38000
1944444;-0.38000
1947222;-0.39000
1949999;-0.39500
1952777;-0.39500
1955555;-0.39000
1958333;-0.38000
1961111;-0.39500
1963888;-0.41000
1966666;-0.42000
1969444;-0.39500
1972222;-0.38500
1974999;-0.40000
1977777;-0.41500
1980555;-0.41500
1983333;-0.42000
1986111;-0.42500
1988888;-0.41500
1991666;-0.40500
1994444;-0.41000
1997222;-0.42000
1999999;-0.42500
2002777;-0.41000
2005555;-0.40000
2008333;-0.40500
2011111;-0.40000
2013888;-0.41000
2016666;-0.40000
2019444;-0.38500
2022222;-0.38000
2024999;-0.36500
2027777;-0.36500
2030555;-0.36000
2033333;-0.35000
2036111;-0.33500
2038888;-0.32000
2041666;-0.31500
2044444;-0.31000
2047222;-0.30000
2049999;-0.29500
2052777;-0.28000
2055555;-0.26000
2058333;-0.27000
2061111;-0.25500
2063888;-0.25500
2066666;-0.26000
2069444;-0.25500
2072222;-0.23500
2074999;-0.23000
2077777;-0.21500
2080555;-0.24000
2083333;-0.22500
2086111;-0.21500
2088888;-0.21500
2091666;-0.21000
2094444;-0.21500
2097222;-0.23500
2099999;-0.23500
2102777;-0.22500
2105555;-0.22500
2108333;-0.22500
2111111;-0.23500
2113888;-0.23500
2116666;-0.24000
2119444;-0.23000
2122222;-0.22500
2124999;-0.22000
2127777;-0.23000
2130555;-0.24000
2133333;-0.25500
2136111;-0.24500
2138888;-0.23000
2141666;-0.21500
2144444;-0.23000
2147222;-0.24000
2149999;-0.24500
2152777;-0.23500
2155555;-0.23000
2158333;-0.23500
2161111;-0.24500
2163888;-0.24000
2166666;-0.26500
2169444;-0.25500
2172222;-0.26000
2174999;-0.25500
2177777;-0.25500
2180555;-0.26500
2183333;-0.26500
2186110;-0.26000
2188888;-0.25500
2191666;-0.27000
2194444;-0.27000
2197222;-0.28500
2199999;-0.28500
2202777;-0.27500
2205555;-0.27000
2208333;-0.26500
2211110;-0.27500
2213888;-0.27500
2216666;-0.28500
2219444;-0.27500
2222222;-0.26500
2224999;-0.26500
2227777;-0.27500
2230555;-0.27500
2233333;-0.29500
2236110;-0.28500
2238888;-0.26500
2241666;-0.28000
2244444;-0.29000
2247222;-0.29500
2249999;-0.30000
2252777;-0.29000
2255555;-0.28500
2258333;-0.28500
2261110;-0.30000
2263888;-0.29000
2266666;-0.29500
2269444;-0.28000
2272222;-0.27000
2274999;-0.26000
2277777;-0.26500
2280555;-0.28000
2283333;-0.28500
2286110;-0.26500
2288888;-0.24500
2291666;-0.25500
2294444;-0.25000
2297222;-0.24500
2299999;-0.24000
2302777;-0.21000
2305555;-0.19000
2308333;-0.19000
2311110;-0.20000
2313888;-0.20000
2316666;-0.20000
2319444;-0.19000
2322222;-0.18000
2324999;-0.17500
2327777;-0.17000
2330555;-0.17000
2333333;-0.17000
2336110;-0.16500
2338888;-0.15500
2341666;-0.15000
2344444;-0.17000
2347222;-0.16500
2349999;-0.17500
2352777;-0.17000
2355555;-0.18000
2358333;-0.17500
2361110;-0.17500
2363888;-0.18000
2366666;-0.17000
2369444;-0.18000
2372222;-0.18500
2374999;-0.17000
2377777;-0.16000
2380555;-0.14500
2383333;-0.16000
2386110;-0.17500
2388888;-0.18500
2391666;-0.21500
2394444;-0.22000
2397222;-0.25000
2399999;-0.27500
2402777;-0.27500
2405555;-0.27500
2408333;-0.28000
2411110;-0.28500
2413888;-0.28500
2416666;-0.29000
2419444;-0.28000
2422222;-0.27500
2424999;-0.27500
2427777;-0.29000
2430555;-0.29000
2433333;-0.30500
2436110;-0.29500
2438888;-0.29000
2441666;-0.28500
2444444;-0.30500
2447222;-0.32000
2449999;-0.31500
2452777;-0.30500
2455555;-0.29000
2458333;-0.30000
2461110;-0.30000
2463888;-0.31500
2466666;-0.32500
2469444;-0.35500
2472222;-0.36000
2474999;-0.40500
2477777;-0.43500
2480555;-0.46500
2483333;-0.50500
2486110;-0.49000
2488888;-0.39000
2491666;-0.22500
2494444;-0.05000
2497222;0.12500
2499999;0.35500
2502777;0.64000
2505555;0.92500
2508333;1.12000
2511110;1.21000
