time_ms;ecg_value
0;-0.11500
2778;-0.14500
5556;-0.15000
8333;-0.13000
11111;-0.10500
13889;-0.10000
16667;-0.12500
19444;-0.16500
22222;-0.19500
25000;-0.21000
27778;-0.21500
30556;-0.23000
33333;-0.23000
36111;-0.25000
38889;-0.26500
41667;-0.25000
44444;-0.24500
47222;-0.24000
50000;-0.24500
52778;-0.26000
55556;-0.26500
58333;-0.26500
61111;-0.26500
63889;-0.24500
66667;-0.25500
69444;-0.25000
72222;-0.26000
75000;-0.27500
77778;-0.27000
80556;-0.26000
83333;-0.25000
86111;-0.26500
88889;-0.27000
91667;-0.27500
94444;-0.25500
97222;-0.26000
100000;-0.27000
102778;-0.28000
105556;-0.31000
108333;-0.34500
111111;-0.38000
113889;-0.40000
116667;-0.41000
119444;-0.45500
122222;-0.48500
125000;-0.43500
127778;-0.31000
130556;-0.10500
133333;0.08500
136111;0.32500
138889;0.60000
141667;0.91000
144444;1.12500
147222;1.20500
150000;1.06000
152778;0.69500
155556;0.20000
158333;-0.20000
161111;-0.37000
163889;-0.36000
166667;-0.31000
169444;-0.28500
172222;-0.28000
175000;-0.29500
177778;-0.27500
180556;-0.28000
183333;-0.28500
186111;-0.29500
188889;-0.32000
191667;-0.30000
194444;-0.29500
197222;-0.29500
200000;-0.28500
202778;-0.27500
205555;-0.30000
208333;-0.28500
211111;-0.28000
213889;-0.25500
216667;-0.27000
219444;-0.27500
222222;-0.28500
225000;-0.29500
227778;-0.28000
230555;-0.27000
233333;-0.28000
236111;-0.29500
238889;-0.30000
241667;-0.29500
244444;-0.28500
247222;-0.27500
250000;-0.28000
252778;-0.28500
255555;-0.29500
258333;-0.28000
261111;-0.27500
263889;-0.27500
266667;-0.28500
269444;-0.28500
272222;-0.29000
275000;-0.28500
277778;-0.27500
280555;-0.26000
283333;-0.27500
286111;-0.27500
288889;-0.29000
291667;-0.29500
294444;-0.28000
297222;-0.27000
300000;-0.27500
302778;-0.28500
305555;-0.29000
308333;-0.29000
311111;-0.29000
313889;-0.28000
316667;-0.28000
319444;-0.28500
322222;-0.30000
325000;-0.30000
327778;-0.29500
330555;-0.29000
333333;-0.29000
336111;-0.30000
338889;-0.30500
341667;-0.30000
344444;-0.28500
347222;-0.27000
350000;-0.28500
352778;-0.28500
355555;-0.30000
358333;-0.30000
361111;-0.28500
363889;-0.27500
366667;-0.28500
369444;-0.29500
372222;-0.30500
375000;-0.30500
377778;-0.31000
380555;-0.29500
383333;-0.30500
386111;-0.31500
388889;-0.32500
391667;-0.33000
394444;-0.31500
397222;-0.29500
400000;-0.30000
402778;-0.30500
405555;-0.31000
408333;-0.29000
411111;-0.28000
413889;-0.27500
416667;-0.28000
419444;-0.28000
422222;-0.29000
425000;-0.29500
427778;-0.27500
430555;-0.26500
433333;-0.26500
436111;-0.26000
438889;-0.25500
441667;-0.24500
444444;-0.23500
447222;-0.21500
450000;-0.22500
452778;-0.24000
455555;-0.23500
458333;-0.22000
461111;-0.19500
463889;-0.18000
466667;-0.19000
469444;-0.19000
472222;-0.19500
475000;-0.19000
477778;-0.18500
480555;-0.18000
483333;-0.18500
486111;-0.19000
488889;-0.19500
491667;-0.19000
494444;-0.19500
497222;-0.18500
500000;-0.20000
502778;-0.20000
505555;-0.20000
508333;-0.19000
511111;-0.19000
513889;-0.17500
516667;-0.17500
519444;-0.18500
522222;-0.18000
525000;-0.16500
527778;-0.14000
530555;-0.13000
533333;-0.12000
536111;-0.12000
538889;-0.13000
541667;-0.13500
544444;-0.12000
547222;-0.11000
550000;-0.12500
552778;-0.13000
555555;-0.14500
558333;-0.12500
561111;-0.09500
563889;-0.08000
566667;-0.11500
569444;-0.15000
572222;-0.16000
575000;-0.17500
577778;-0.16000
580555;-0.16500
583333;-0.18000
586111;-0.21000
588889;-0.22000
591667;-0.23000
594444;-0.22500
597222;-0.22000
600000;-0.22000
602778;-0.20500
605555;-0.22500
608333;-0.23500
611111;-0.24000
613889;-0.24500
616666;-0.26500
619444;-0.28500
622222;-0.28000
625000;-0.29000
627778;-0.29500
630555;-0.27000
633333;-0.29000
636111;-0.29500
638889;-0.30000
641666;-0.31000
644444;-0.30000
647222;-0.30500
650000;-0.31500
652778;-0.31000
655555;-0.30000
658333;-0.30500
661111;-0.30000
663889;-0.29500
666666;-0.29500
669444;-0.31000
672222;-0.30500
675000;-0.29500
677778;-0.29500
680555;-0.30000
683333;-0.33500
686111;-0.37500
688889;-0.41000
691666;-0.44000
694444;-0.47000
697222;-0.49500
700000;-0.44500
702778;-0.31500
705555;-0.15500
708333;0.03500
711111;0.25000
713889;0.51500
716666;0.78000
719444;0.97000
722222;1.04500
725000;0.96000
727778;0.70000
730555;0.30500
733333;-0.08500
736111;-0.35500
738889;-0.46000
741666;-0.49000
744444;-0.47000
747222;-0.43000
750000;-0.38000
752778;-0.34500
755555;-0.32500
758333;-0.32500
761111;-0.30500
763889;-0.30000
766666;-0.31500
769444;-0.32000
772222;-0.31500
775000;-0.33000
777778;-0.32500
780555;-0.33500
783333;-0.32500
786111;-0.33000
788889;-0.34000
791666;-0.34000
794444;-0.33000
797222;-0.31500
800000;-0.33000
802778;-0.35500
805555;-0.35500
808333;-0.36000
811111;-0.35500
813889;-0.33500
816666;-0.33500
819444;-0.33000
822222;-0.33500
825000;-0.34000
827778;-0.32500
830555;-0.32500
833333;-0.33500
836111;-0.34000
838889;-0.34500
841666;-0.33500
844444;-0.33000
847222;-0.32000
850000;-0.32500
852778;-0.34000
855555;-0.34500
858333;-0.35500
861111;-0.35500
863889;-0.33500
866666;-0.34000
869444;-0.34000
872222;-0.35000
875000;-0.35500
877778;-0.35000
880555;-0.34000
883333;-0.34000
886111;-0.34000
888889;-0.36000
891666;-0.37500
894444;-0.35000
897222;-0.34500
900000;-0.34000
902778;-0.35000
905555;-0.35500
908333;-0.36000
911111;-0.36500
913889;-0.35000
916666;-0.33500
919444;-0.33000
922222;-0.35500
925000;-0.37000
927778;-0.37500
930555;-0.36500
933333;-0.36000
936111;-0.33500
938889;-0.33500
941666;-0.36000
944444;-0.36000
947222;-0.35500
950000;-0.36500
952778;-0.38000
955555;-0.39000
958333;-0.40500
961111;-0.40000
963889;-0.39500
966666;-0.41000
969444;-0.42500
972222;-0.43500
975000;-0.44500
977778;-0.42500
980555;-0.42500
983333;-0.43500
986111;-0.42500
988889;-0.41500
991666;-0.40000
994444;-0.39500
997222;-0.38000
1000000;-0.39500
1002777;-0.38500
1005555;-0.38500
1008333;-0.36000
1011111;-0.34000
1013889;-0.32000
1016666;-0.32000
1019444;-0.32500
1022222;-0.32500
1025000;-0.32000
1027777;-0.30500
1030555;-0.29500
1033333;-0.28500
1036111;-0.28000
1038889;-0.31500
1041666;-0.32000
1044444;-0.30500
1047222;-0.30500
1050000;-0.30500
1052777;-0.30500
1055555;-0.30000
1058333;-0.29500
1061111;-0.26500
1063889;-0.25500
1066666;-0.25500
1069444;-0.26500
1072222;-0.26000
1075000;-0.26000
1077777;-0.27000
1080555;-0.26000
1083333;-0.27000
1086111;-0.27000
1088889;-0.28500
1091666;-0.28500
1094444;-0.27000
1097222;-0.27000
1100000;-0.28500
1102777;-0.30500
1105555;-0.29500
1108333;-0.30000
1111111;-0.28500
1113889;-0.28500
1116666;-0.29000
1119444;-0.30000
1122222;-0.29500
1125000;-0.29500
1127777;-0.29000
1130555;-0.28500
1133333;-0.28500
1136111;-0.29500
1138889;-0.30000
1141666;-0.30000
1144444;-0.29000
1147222;-0.27500
1150000;-0.30000
1152777;-0.29500
1155555;-0.30000
1158333;-0.30500
1161111;-0.29500
1163889;-0.30000
1166666;-0.30000
1169444;-0.31500
1172222;-0.32000
1175000;-0.32000
1177777;-0.30500
1180555;-0.30500
1183333;-0.30500
1186111;-0.32000
1188889;-0.31500
1191666;-0.31500
1194444;-0.29500
1197222;-0.29500
1200000;-0.30000
1202777;-0.33000
1205555;-0.33500
1208333;-0.32500
1211111;-0.30500
1213889;-0.28000
1216666;-0.28000
1219444;-0.29000
1222222;-0.30000
1225000;-0.30000
1227777;-0.29500
1230555;-0.29000
1233333;-0.29500
1236111;-0.32000
1238889;-0.32500
1241666;-0.33000
1244444;-0.31500
1247222;-0.30500
1250000;-0.32000
1252777;-0.31000
1255555;-0.31500
1258333;-0.31000
1261111;-0.31000
1263889;-0.29500
1266666;-0.29500
1269444;-0.30000
1272222;-0.31000
1275000;-0.31500
1277777;-0.30500
1280555;-0.30000
1283333;-0.30000
1286111;-0.30500
1288889;-0.32000
1291666;-0.32500
1294444;-0.30500
1297222;-0.30000
1300000;-0.30500
1302777;-0.31000
1305555;-0.31000
1308333;-0.31500
1311111;-0.30500
1313889;-0.31000
1316666;-0.31000
1319444;-0.32000
1322222;-0.33500
1325000;-0.34000
1327777;-0.33000
1330555;-0.31500
1333333;-0.32000
1336111;-0.32500
1338889;-0.33000
1341666;-0.31500
1344444;-0.30500
1347222;-0.30000
1350000;-0.29500
1352777;-0.31500
1355555;-0.31500
1358333;-0.32000
1361111;-0.31500
1363889;-0.30000
1366666;-0.30500
1369444;-0.31000
1372222;-0.32000
1375000;-0.32000
1377777;-0.32000
1380555;-0.30500
1383333;-0.31000
1386111;-0.32000
1388888;-0.32000
1391666;-0.33000
1394444;-0.32000
1397222;-0.31000
1400000;-0.31000
1402777;-0.31000
1405555;-0.31000
1408333;-0.31000
1411111;-0.29500
1413888;-0.29000
1416666;-0.30000
1419444;-0.29500
1422222;-0.30500
1425000;-0.30500
1427777;-0.29000
1430555;-0.29000
1433333;-0.29000
1436111;-0.28500
1438888;-0.29500
1441666;-0.29000
1444444;-0.28500
1447222;-0.28500
1450000;-0.28000
1452777;-0.30000
1455555;-0.30000
1458333;-0.30000
1461111;-0.30000
1463888;-0.28500
1466666;-0.29500
1469444;-0.30000
1472222;-0.31000
1475000;-0.31500
1477777;-0.29000
1480555;-0.29000
1483333;-0.29500
1486111;-0.27500
1488888;-0.26500
1491666;-0.25500
1494444;-0.24000
1497222;-0.21500
1500000;-0.21000
1502777;-0.23000
1505555;-0.21500
1508333;-0.21000
1511111;-0.19500
1513888;-0.17000
1516666;-0.18000
1519444;-0.18000
1522222;-0.20500
1525000;-0.19500
1527777;-0.20000
1530555;-0.19500
1533333;-0.20500
1536111;-0.20000
1538888;-0.21000
1541666;-0.22500
1544444;-0.22500
1547222;-0.23000
1550000;-0.22500
1552777;-0.20500
1555555;-0.20500
1558333;-0.20500
1561111;-0.22500
1563888;-0.24000
1566666;-0.25000
1569444;-0.29000
1572222;-0.30500
1575000;-0.31000
1577777;-0.31000
1580555;-0.30500
1583333;-0.31500
1586111;-0.32000
1588888;-0.33000
1591666;-0.33500
1594444;-0.33000
1597222;-0.32000
1600000;-0.31500
1602777;-0.35000
1605555;-0.34500
1608333;-0.34000
1611111;-0.33000
1613888;-0.33000
1616666;-0.33000
1619444;-0.32500
1622222;-0.34000
1625000;-0.34000
1627777;-0.33500
1630555;-0.32500
1633333;-0.33500
1636111;-0.33000
1638888;-0.35500
1641666;-0.36000
1644444;-0.39000
1647222;-0.41000
1650000;-0.44500
1652777;-0.48000
1655555;-0.51500
1658333;-0.53500
1661111;-0.47500
1663888;-0.33000
1666666;-0.15000
1669444;0.03000
1672222;0.25000
1675000;0.53000
1677777;0.84000
1680555;1.04000
1683333;1.15500
1686111;1.10000
1688888;0.82500
1691666;0.34000
1694444;-0.13500
1697222;-0.41000
1700000;-0.49500
1702777;-0.46000
1705555;-0.40000
1708333;-0.38000
1711111;-0.35500
1713888;-0.34500
1716666;-0.36000
1719444;-0.37000
1722222;-0.36500
1725000;-0.36500
1727777;-0.36500
1730555;-0.36000
1733333;-0.37500
1736111;-0.38500
1738888;-0.40000
1741666;-0.40000
1744444;-0.40000
1747222;-0.39000
1750000;-0.40000
1752777;-0.40000
1755555;-0.40500
1758333;-0.40500
1761111;-0.40000
1763888;-0.38500
1766666;-0.39000
1769444;-0.38500
1772222;-0.39500
1775000;-0.39500
1777777;-0.39500
1780555;-0.38000
1783333;-0.39000
1786111;-0.39500
1788888;-0.40500
1791666;-0.41000
1794444;-0.39500
1797222;-0.39000
1799999;-0.39000
1802777;-0.40000
1805555;-0.39500
1808333;-0.40000
1811111;-0.39000
1813888;-0.38500
1816666;-0.38000
1819444;-0.39500
1822222;-0.40000
1824999;-0.41000
1827777;-0.39000
1830555;-0.38500
1833333;-0.38500
1836111;-0.38000
1838888;-0.39000
1841666;-0.40500
1844444;-0.39500
1847222;-0.38500
1849999;-0.38500
1852777;-0.38500
1855555;-0.39500
1858333;-0.39000
1861111;-0.40000
1863888;-0.38000
1866666;-0.38500
1869444;-0.39500
1872222;-0.39500
1874999;-0.40500
1877777;-0.39000
1880555;-0.40500
1883333;-0.40500
1886111;-0.40000
1888888;-0.41000
1891666;-0.42000
1894444;-0.42000
1897222;-0.40500
1899999;-0.40500
1902777;-0.41500
1905555;-0.42000
1908333;-0.42500
1911111;-0.41500
1913888;-0.41500
1916666;-0.41500
1919444;-0.42500
1922222;-0.42000
1924999;-0.44500
1927777;-0.44000
1930555;-0.42500
1933333;-0.42500
1936111;-0.44000
1938888;-0.45000
1941666;-0.45000
1944444;-0.45000
1947222;-0.43500
1949999;-0.45000
1952777;-0.46000
1955555;-0.46500
1958333;-0.46000
1961111;-0.45000
1963888;-0.43500
1966666;-0.42500
1969444;-0.42500
1972222;-0.40000
1974999;-0.39500
1977777;-0.38000
1980555;-0.35000
1983333;-0.33500
1986111;-0.32500
1988888;-0.32000
1991666;-0.31000
1994444;-0.28500
1997222;-0.27000
1999999;-0.26500
2002777;-0.26500
2005555;-0.26500
2008333;-0.27000
2011111;-0.25000
2013888;-0.24500
2016666;-0.24500
2019444;-0.25500
2022222;-0.25000
2024999;-0.25500
2027777;-0.25000
2030555;-0.23000
2033333;-0.23500
2036111;-0.24000
2038888;-0.24500
2041666;-0.23500
2044444;-0.22500
2047222;-0.21500
2049999;-0.22500
2052777;-0.23500
2055555;-0.23500
2058333;-0.24500
2061111;-0.23000
2063888;-0.22500
2066666;-0.22000
2069444;-0.24000
2072222;-0.25000
2074999;-0.25500
2077777;-0.23500
2080555;-0.23000
2083333;-0.24000
2086111;-0.25000
2088888;-0.24500
2091666;-0.25500
2094444;-0.24500
2097222;-0.26000
2099999;-0.25500
2102777;-0.26000
2105555;-0.27000
2108333;-0.26500
2111111;-0.26000
2113888;-0.24000
2116666;-0.25000
2119444;-0.25500
2122222;-0.26500
2124999;-0.26000
2127777;-0.26000
2130555;-0.25000
2133333;-0.26000
2136111;-0.27000
2138888;-0.27000
2141666;-0.27000
2144444;-0.26500
2147222;-0.25500
2149999;-0.25500
2152777;-0.26000
2155555;-0.28000
2158333;-0.28500
2161111;-0.28500
2163888;-0.27500
2166666;-0.27000
2169444;-0.28000
2172222;-0.30500
2174999;-0.32000
2177777;-0.30000
2180555;-0.28000
2183333;-0.28500
2186110;-0.28000
2188888;-0.29500
2191666;-0.29500
2194444;-0.28500
2197222;-0.27500
2199999;-0.28000
2202777;-0.29000
2205555;-0.29000
2208333;-0.28500
2211110;-0.28500
2213888;-0.28000
2216666;-0.28000
2219444;-0.28000
2222222;-0.29000
2224999;-0.29500
2227777;-0.28000
2230555;-0.27500
2233333;-0.27500
2236110;-0.28500
2238888;-0.30500
2241666;-0.30500
2244444;-0.29500
2247222;-0.28500
2249999;-0.29000
2252777;-0.29500
2255555;-0.29500
2258333;-0.30000
2261110;-0.29000
2263888;-0.28500
2266666;-0.28000
2269444;-0.29500
2272222;-0.29500
2274999;-0.28500
2277777;-0.28000
2280555;-0.27000
2283333;-0.27500
2286110;-0.27000
2288888;-0.27500
2291666;-0.26000
2294444;-0.24000
2297222;-0.21500
2299999;-0.21500
2302777;-0.21000
2305555;-0.20500
2308333;-0.21000
2311110;-0.20000
2313888;-0.18000
2316666;-0.18000
2319444;-0.18000
2322222;-0.18000
2324999;-0.18500
2327777;-0.17000
2330555;-0.17000
2333333;-0.17000
2336110;-0.17500
2338888;-0.18500
2341666;-0.20500
2344444;-0.21000
2347222;-0.19500
2349999;-0.18000
2352777;-0.18500
2355555;-0.20500
2358333;-0.21000
2361110;-0.20000
2363888;-0.19000
2366666;-0.16500
2369444;-0.15500
2372222;-0.12500
2374999;-0.12000
2377777;-0.11500
2380555;-0.13500
2383333;-0.16500
2386110;-0.19000
2388888;-0.22000
2391666;-0.23500
2394444;-0.25000
2397222;-0.27000
2399999;-0.28000
2402777;-0.29000
2405555;-0.30500
2408333;-0.31000
2411110;-0.30500
2413888;-0.29500
2416666;-0.30500
2419444;-0.32000
2422222;-0.32500
2424999;-0.32500
2427777;-0.32000
2430555;-0.30500
2433333;-0.32500
2436110;-0.32000
2438888;-0.33000
2441666;-0.33500
2444444;-0.30500
2447222;-0.30500
2449999;-0.30500
2452777;-0.31500
2455555;-0.31000
2458333;-0.32500
2461110;-0.32000
2463888;-0.34000
2466666;-0.37500
2469444;-0.40500
2472222;-0.45000
2474999;-0.48000
2477777;-0.50500
2480555;-0.52500
2483333;-0.48500
2486110;-0.39000
2488888;-0.23000
2491666;-0.04500
2494444;0.16500
2497222;0.42000
2499999;0.72000
2502777;0.98000
2505555;1.14000
2508333;1.18000
2511110;1.02000
2513888;0.65000
2516666;0.13500
2519444;-0.27000
2522222;-0.45000
2524999;-0.42500
2527777;-0.36500
2530555;-0.31500
2533333;-0.31000
2536110;-0.32000
2538888;-0.34000
2541666;-0.34000
2544444;-0.34000
2547222;-0.34000
2549999;-0.34500
2552777;-0.35500
2555555;-0.37000
2558333;-0.36500
2561110;-0.36500
2563888;-0.36000
2566666;-0.35500
2569444;-0.35000
2572222;-0.35500
2574999;-0.35500
2577777;-0.35000
2580555;-0.34500
2583333;-0.34500
2586110;-0.35500
2588888;-0.35500
2591666;-0.36000
2594444;-0.36000
2597221;-0.35000
2599999;-0.36000
2602777;-0.36500
2605555;-0.37000
2608333;-0.37000
2611110;-0.35500
2613888;-0.34500
2616666;-0.35000
2619444;-0.36000
2622221;-0.37000
2624999;-0.37500
2627777;-0.37000
2630555;-0.35500
2633333;-0.35500
2636110;-0.36000
2638888;-0.36000
2641666;-0.37500
2644444;-0.37000
2647221;-0.35500
2649999;-0.35000
2652777;-0.36000
2655555;-0.36500
2658333;-0.36500
2661110;-0.37000
2663888;-0.34500
2666666;-0.35500
2669444;-0.35500
2672221;-0.37000
2674999;-0.37500
2677777;-0.36000
2680555;-0.35500
2683333;-0.35500
2686110;-0.36500
2688888;-0.37500
2691666;-0.38000
2694444;-0.36500
2697221;-0.35000
2699999;-0.35000
2702777;-0.36500
2705555;-0.37000
2708333;-0.38000
2711110;-0.37000
2713888;-0.36500
2716666;-0.35500
2719444;-0.36000
2722221;-0.36500
2724999;-0.37000
2727777;-0.36500
2730555;-0.36000
2733333;-0.36500
2736110;-0.36000
2738888;-0.37500
2741666;-0.37500
2744444;-0.37500
2747221;-0.36500
2749999;-0.36500
2752777;-0.37000
2755555;-0.38500
2758333;-0.39000
2761110;-0.38000
2763888;-0.37000
2766666;-0.38000
2769444;-0.38500
2772221;-0.39000
2774999;-0.40500
2777777;-0.38000
2780555;-0.37500
2783333;-0.37000
2786110;-0.37500
2788888;-0.37500
2791666;-0.36000
2794444;-0.34500
2797221;-0.32000
2799999;-0.31500
2802777;-0.30500
2805555;-0.30000
2808333;-0.29500
2811110;-0.27500
2813888;-0.26000
2816666;-0.25500
2819444;-0.25000
2822221;-0.26000
2824999;-0.26000
2827777;-0.24500
2830555;-0.23500
2833333;-0.23000
2836110;-0.24000
2838888;-0.25000
2841666;-0.25000
2844444;-0.23500
2847221;-0.23000
2849999;-0.23000
2852777;-0.25500
2855555;-0.26500
2858333;-0.25000
2861110;-0.24500
2863888;-0.23500
2866666;-0.24000
2869444;-0.24500
2872221;-0.26000
2874999;-0.25000
2877777;-0.24500
2880555;-0.24000
2883333;-0.24000
2886110;-0.24000
2888888;-0.24500
2891666;-0.25500
2894444;-0.24500
2897221;-0.24000
2899999;-0.25000
2902777;-0.25500
2905555;-0.26000
2908333;-0.27000
2911110;-0.25000
2913888;-0.24500
2916666;-0.26000
2919444;-0.26500
2922221;-0.26500
2924999;-0.27500
2927777;-0.27000
2930555;-0.26500
2933333;-0.27000
2936110;-0.27500
2938888;-0.29500
2941666;-0.29500
2944444;-0.28500
2947221;-0.28000
2949999;-0.26500
2952777;-0.27500
2955555;-0.29000
2958333;-0.30000
2961110;-0.28000
2963888;-0.26500
2966666;-0.27000
2969444;-0.28000
2972221;-0.29000
2974999;-0.29000
2977777;-0.28500
2980555;-0.28500
2983332;-0.26500
2986110;-0.28000
2988888;-0.28500
2991666;-0.29500
2994444;-0.29000
2997221;-0.28000
2999999;-0.28500
3002777;-0.29500
3005555;-0.30000
3008332;-0.31500
3011110;-0.31500
3013888;-0.29500
3016666;-0.28500
3019444;-0.30000
3022221;-0.30000
3024999;-0.29500
3027777;-0.28500
3030555;-0.28000
3033332;-0.27500
3036110;-0.28000
3038888;-0.28000
3041666;-0.28500
3044444;-0.28500
3047221;-0.27000
3049999;-0.28000
3052777;-0.27000
3055555;-0.29500
3058332;-0.30500
3061110;-0.28500
3063888;-0.27000
3066666;-0.28000
3069444;-0.28000
3072221;-0.28500
3074999;-0.28500
3077777;-0.28000
3080555;-0.26500
3083332;-0.28000
3086110;-0.28500
3088888;-0.28000
3091666;-0.28500
3094444;-0.26500
3097221;-0.26500
3099999;-0.26500
3102777;-0.27000
3105555;-0.27000
3108332;-0.26000
3111110;-0.23000
3113888;-0.21000
3116666;-0.20000
3119444;-0.19000
3122221;-0.20000
3124999;-0.20000
3127777;-0.19000
3130555;-0.18000
3133332;-0.18000
3136110;-0.17000
3138888;-0.16500
3141666;-0.16000
3144444;-0.15500
