time_ms;ecg_value
0;-0.14500
2778;-0.14500
5556;-0.14500
8333;-0.12000
11111;-0.13500
13889;-0.14500
16667;-0.15000
19444;-0.16000
22222;-0.15500
25000;-0.16000
27778;-0.17500
30556;-0.18000
33333;-0.18500
36111;-0.17000
38889;-0.15500
41667;-0.17500
44444;-0.18000
47222;-0.19000
50000;-0.18000
52778;-0.15500
55556;-0.13500
58333;-0.15500
61111;-0.19000
63889;-0.20500
66667;-0.23500
69444;-0.22500
72222;-0.24500
75000;-0.25000
77778;-0.26000
80556;-0.27500
83333;-0.27500
86111;-0.27500
88889;-0.26500
91667;-0.25500
94444;-0.26500
97222;-0.27500
100000;-0.29000
102778;-0.29000
105556;-0.29000
108333;-0.29000
111111;-0.28500
113889;-0.29500
116667;-0.30500
119444;-0.28500
122222;-0.27500
125000;-0.27500
127778;-0.28000
130556;-0.28500
133333;-0.30500
136111;-0.29000
138889;-0.30000
141667;-0.28000
144444;-0.29000
147222;-0.30000
150000;-0.31500
152778;-0.32000
155556;-0.33500
158333;-0.36000
161111;-0.38500
163889;-0.38500
166667;-0.40500
169444;-0.45500
172222;-0.48500
175000;-0.48500
177778;-0.42500
180556;-0.33000
183333;-0.22000
186111;-0.07000
188889;0.12000
191667;0.37500
194444;0.62000
197222;0.78000
200000;0.84000
202778;0.76500
205555;0.52000
208333;0.17000
211111;-0.16500
213889;-0.36500
216667;-0.43500
219444;-0.42500
222222;-0.37000
225000;-0.33000
227778;-0.32500
230555;-0.33500
233333;-0.34500
236111;-0.33000
238889;-0.32500
241667;-0.31500
244444;-0.31000
247222;-0.32000
250000;-0.33500
252778;-0.34000
255555;-0.32500
258333;-0.34500
261111;-0.33500
263889;-0.33000
266667;-0.33500
269444;-0.33000
272222;-0.32500
275000;-0.33000
277778;-0.33000
280555;-0.34500
283333;-0.35500
286111;-0.33500
288889;-0.32500
291667;-0.30500
294444;-0.32000
297222;-0.32000
300000;-0.33000
302778;-0.34000
305555;-0.33500
308333;-0.34000
311111;-0.34500
313889;-0.35500
316667;-0.35500
319444;-0.34000
322222;-0.33000
325000;-0.33000
327778;-0.33000
330555;-0.34000
333333;-0.35000
336111;-0.32500
338889;-0.32500
341667;-0.33000
344444;-0.33000
347222;-0.33500
350000;-0.33500
352778;-0.34000
355555;-0.33000
358333;-0.34000
361111;-0.35000
363889;-0.35500
366667;-0.35000
369444;-0.34500
372222;-0.33000
375000;-0.32000
377778;-0.33500
380555;-0.33000
383333;-0.34500
386111;-0.33000
388889;-0.33500
391667;-0.33500
394444;-0.34500
397222;-0.34500
400000;-0.35500
402778;-0.34000
405555;-0.34000
408333;-0.33500
411111;-0.33000
413889;-0.35000
416667;-0.35000
419444;-0.34500
422222;-0.33500
425000;-0.33500
427778;-0.33500
430555;-0.35000
433333;-0.35500
436111;-0.35500
438889;-0.34500
441667;-0.34500
444444;-0.33500
447222;-0.35000
450000;-0.36000
452778;-0.36000
455555;-0.36000
458333;-0.36500
461111;-0.36000
463889;-0.37000
466667;-0.38500
469444;-0.37000
472222;-0.36000
475000;-0.35500
477778;-0.36000
480555;-0.37500
483333;-0.37500
486111;-0.36500
488889;-0.36500
491667;-0.36000
494444;-0.36000
497222;-0.36500
500000;-0.37000
502778;-0.35500
505555;-0.33000
508333;-0.32500
511111;-0.32500
513889;-0.33500
516667;-0.34000
519444;-0.31500
522222;-0.30000
525000;-0.30000
527778;-0.29000
530555;-0.29500
533333;-0.29000
536111;-0.28500
538889;-0.27500
541667;-0.25500
544444;-0.25000
547222;-0.25000
550000;-0.26500
552778;-0.25500
555555;-0.24500
558333;-0.23000
561111;-0.24500
563889;-0.24500
566667;-0.25500
569444;-0.25500
572222;-0.24000
575000;-0.25000
577778;-0.25500
580555;-0.24500
583333;-0.25500
586111;-0.25000
588889;-0.25000
591667;-0.26500
594444;-0.26000
597222;-0.26000
600000;-0.26500
602778;-0.27000
605555;-0.26500
608333;-0.26000
611111;-0.27500
613889;-0.28000
616666;-0.29000
619444;-0.27500
622222;-0.27000
625000;-0.26000
627778;-0.28000
630555;-0.28000
633333;-0.28500
636111;-0.27500
638889;-0.27500
641666;-0.26500
644444;-0.27000
647222;-0.28500
650000;-0.29000
652778;-0.28000
655555;-0.27500
658333;-0.28500
661111;-0.28000
663889;-0.30000
666666;-0.30000
669444;-0.30500
672222;-0.29500
675000;-0.30000
677778;-0.31000
680555;-0.31000
683333;-0.30500
686111;-0.29500
688889;-0.28500
691666;-0.28500
694444;-0.29000
697222;-0.29500
700000;-0.31000
702778;-0.29000
705555;-0.29500
708333;-0.30000
711111;-0.30500
713889;-0.31000
716666;-0.32500
719444;-0.31000
722222;-0.30000
725000;-0.29000
727778;-0.31000
730555;-0.32500
733333;-0.33000
736111;-0.31500
738889;-0.30000
741666;-0.30500
744444;-0.31000
747222;-0.32000
750000;-0.33000
752778;-0.32500
755555;-0.31500
758333;-0.31000
761111;-0.30500
763889;-0.30500
766666;-0.31000
769444;-0.30000
772222;-0.30500
775000;-0.29000
777778;-0.30000
780555;-0.30000
783333;-0.30500
786111;-0.30500
788889;-0.29000
791666;-0.28000
794444;-0.29500
797222;-0.30500
800000;-0.31500
802778;-0.30500
805555;-0.29500
808333;-0.29000
811111;-0.28000
813889;-0.27000
816666;-0.27500
819444;-0.27500
822222;-0.27000
825000;-0.25000
827778;-0.25000
830555;-0.25500
833333;-0.22500
836111;-0.22000
838889;-0.20500
841666;-0.20000
844444;-0.20500
847222;-0.21500
850000;-0.23000
852778;-0.22000
855555;-0.22500
858333;-0.22500
861111;-0.22500
863889;-0.23000
866666;-0.23500
869444;-0.24000
872222;-0.23500
875000;-0.22000
877778;-0.21000
880555;-0.20500
883333;-0.24500
886111;-0.28500
888889;-0.28500
891666;-0.30000
894444;-0.31000
897222;-0.33000
900000;-0.33000
902778;-0.32500
905555;-0.31500
908333;-0.32000
911111;-0.31500
913889;-0.32500
916666;-0.34000
919444;-0.34500
922222;-0.34000
925000;-0.34000
927778;-0.35000
930555;-0.34500
933333;-0.35500
936111;-0.33000
938889;-0.33500
941666;-0.33000
944444;-0.32000
947222;-0.34500
950000;-0.35500
952778;-0.34000
955555;-0.33000
958333;-0.32500
961111;-0.33000
963889;-0.35000
966666;-0.36500
969444;-0.36000
972222;-0.38000
975000;-0.42500
977778;-0.44500
980555;-0.47500
983333;-0.51000
986111;-0.53500
988889;-0.50500
991666;-0.41500
994444;-0.30000
997222;-0.16000
1000000;-0.01500
1002777;0.23500
1005555;0.49000
1008333;0.72000
1011111;0.87500
1013889;0.94000
1016666;0.90500
1019444;0.75500
1022222;0.49000
1025000;0.16500
1027777;-0.11000
1030555;-0.27000
1033333;-0.39000
1036111;-0.45000
1038889;-0.47500
1041666;-0.45500
1044444;-0.42500
1047222;-0.39000
1050000;-0.39000
1052777;-0.38500
1055555;-0.39000
1058333;-0.38000
1061111;-0.38000
1063889;-0.38000
1066666;-0.39500
1069444;-0.38500
1072222;-0.38500
1075000;-0.38500
1077777;-0.37500
1080555;-0.39500
1083333;-0.41000
1086111;-0.41000
1088889;-0.40000
1091666;-0.39500
1094444;-0.39000
1097222;-0.40500
1100000;-0.39500
1102777;-0.38500
1105555;-0.37500
1108333;-0.39000
1111111;-0.39000
1113889;-0.40500
1116666;-0.41000
1119444;-0.41000
1122222;-0.39000
1125000;-0.39000
1127777;-0.39500
1130555;-0.40500
1133333;-0.41500
1136111;-0.40000
1138889;-0.41000
1141666;-0.40500
1144444;-0.41000
1147222;-0.41500
1150000;-0.41000
1152777;-0.40000
1155555;-0.40000
1158333;-0.39500
1161111;-0.39000
1163889;-0.40500
1166666;-0.41000
1169444;-0.39000
1172222;-0.39000
1175000;-0.38500
1177777;-0.38500
1180555;-0.41000
1183333;-0.40500
1186111;-0.39500
1188889;-0.39000
1191666;-0.37500
1194444;-0.39000
1197222;-0.39500
1200000;-0.41000
1202777;-0.40000
1205555;-0.39000
1208333;-0.39000
1211111;-0.38500
1213889;-0.40500
1216666;-0.41500
1219444;-0.41500
1222222;-0.40000
1225000;-0.39500
1227777;-0.40500
1230555;-0.41500
1233333;-0.42000
1236111;-0.42000
1238889;-0.41000
1241666;-0.41500
1244444;-0.42500
1247222;-0.42000
1250000;-0.43500
1252777;-0.43000
1255555;-0.43000
1258333;-0.42000
1261111;-0.43000
1263889;-0.45000
1266666;-0.45500
1269444;-0.45000
1272222;-0.43500
1275000;-0.44500
1277777;-0.45000
1280555;-0.45500
1283333;-0.47000
1286111;-0.46000
1288889;-0.45500
1291666;-0.45000
1294444;-0.45500
1297222;-0.47000
1300000;-0.47500
1302777;-0.46000
1305555;-0.45000
1308333;-0.44500
1311111;-0.44000
1313889;-0.43500
1316666;-0.44000
1319444;-0.41000
1322222;-0.39500
1325000;-0.37000
1327777;-0.36500
1330555;-0.36000
1333333;-0.36500
1336111;-0.34000
1338889;-0.32500
1341666;-0.31500
1344444;-0.32000
1347222;-0.33000
1350000;-0.33000
1352777;-0.32000
1355555;-0.31000
1358333;-0.30000
1361111;-0.30000
1363889;-0.32000
1366666;-0.32000
1369444;-0.31500
1372222;-0.30500
1375000;-0.30500
1377777;-0.29500
1380555;-0.32000
1383333;-0.33000
1386111;-0.30500
1388888;-0.31000
1391666;-0.30000
1394444;-0.30000
1397222;-0.32000
1400000;-0.32500
1402777;-0.31000
1405555;-0.30500
1408333;-0.31500
1411111;-0.30500
1413888;-0.31500
1416666;-0.31500
1419444;-0.31000
1422222;-0.29500
1425000;-0.29000
1427777;-0.30500
1430555;-0.31000
1433333;-0.32000
1436111;-0.31500
1438888;-0.30000
1441666;-0.31500
1444444;-0.31500
1447222;-0.31500
1450000;-0.33000
1452777;-0.31500
1455555;-0.32000
1458333;-0.31500
1461111;-0.32500
1463888;-0.33500
1466666;-0.34000
1469444;-0.33500
1472222;-0.33500
1475000;-0.33000
1477777;-0.32500
1480555;-0.34500
1483333;-0.35000
1486111;-0.34500
1488888;-0.33500
1491666;-0.33000
1494444;-0.33000
1497222;-0.34500
1500000;-0.34500
1502777;-0.34500
1505555;-0.32000
1508333;-0.33000
1511111;-0.33500
1513888;-0.34000
1516666;-0.35500
1519444;-0.33500
1522222;-0.33000
1525000;-0.33000
1527777;-0.33500
1530555;-0.35500
1533333;-0.36000
1536111;-0.35500
1538888;-0.35000
1541666;-0.34000
1544444;-0.34500
1547222;-0.34500
1550000;-0.34500
1552777;-0.34500
1555555;-0.33000
1558333;-0.33000
1561111;-0.33500
1563888;-0.34500
1566666;-0.35000
1569444;-0.35000
1572222;-0.34000
1575000;-0.33000
1577777;-0.34500
1580555;-0.34500
1583333;-0.35500
1586111;-0.35000
1588888;-0.34000
1591666;-0.33000
1594444;-0.34000
1597222;-0.34000
1600000;-0.34000
1602777;-0.33000
1605555;-0.33500
1608333;-0.33000
1611111;-0.33500
1613888;-0.34500
1616666;-0.34500
1619444;-0.34000
1622222;-0.33000
1625000;-0.31500
1627777;-0.29500
1630555;-0.30000
1633333;-0.29500
1636111;-0.28500
1638888;-0.27500
1641666;-0.26500
1644444;-0.26500
1647222;-0.26500
1650000;-0.25500
1652777;-0.25000
1655555;-0.24000
1658333;-0.22500
1661111;-0.21500
1663888;-0.24000
1666666;-0.24500
1669444;-0.24000
1672222;-0.24500
1675000;-0.23500
1677777;-0.24500
1680555;-0.25000
1683333;-0.27500
1686111;-0.27500
1688888;-0.26500
1691666;-0.25000
1694444;-0.22500
1697222;-0.22000
1700000;-0.23000
1702777;-0.26500
1705555;-0.27000
1708333;-0.28000
1711111;-0.28500
1713888;-0.30500
1716666;-0.32000
1719444;-0.34000
1722222;-0.33000
1725000;-0.33500
1727777;-0.33500
1730555;-0.35500
1733333;-0.37000
1736111;-0.36000
1738888;-0.34500
1741666;-0.35000
1744444;-0.35500
1747222;-0.36500
1750000;-0.37500
1752777;-0.38000
1755555;-0.37000
1758333;-0.36500
1761111;-0.36500
1763888;-0.38000
1766666;-0.38500
1769444;-0.38000
1772222;-0.37500
1775000;-0.35500
1777777;-0.37000
1780555;-0.39000
1783333;-0.40500
1786111;-0.41000
1788888;-0.43500
1791666;-0.46500
1794444;-0.49000
1797222;-0.52000
1799999;-0.55500
1802777;-0.57000
1805555;-0.52500
1808333;-0.40500
1811111;-0.25000
1813888;-0.09000
1816666;0.12000
1819444;0.41000
1822222;0.69000
1824999;0.88500
1827777;0.96000
1830555;0.85000
1833333;0.52000
1836111;0.05000
1838888;-0.32000
1841666;-0.50000
1844444;-0.50500
1847222;-0.44500
1849999;-0.41500
1852777;-0.39500
1855555;-0.39000
1858333;-0.39500
1861111;-0.39000
1863888;-0.39500
1866666;-0.40500
1869444;-0.39500
1872222;-0.40500
1874999;-0.39000
1877777;-0.39500
1880555;-0.39500
1883333;-0.41000
1886111;-0.40500
1888888;-0.40000
1891666;-0.40000
1894444;-0.41500
1897222;-0.40500
1899999;-0.42000
1902777;-0.41500
1905555;-0.40500
1908333;-0.40500
1911111;-0.42000
1913888;-0.42000
1916666;-0.43500
1919444;-0.42000
1922222;-0.41000
1924999;-0.41000
1927777;-0.40500
1930555;-0.42500
1933333;-0.43000
1936111;-0.42000
1938888;-0.41500
1941666;-0.41000
1944444;-0.41000
1947222;-0.42500
1949999;-0.42000
1952777;-0.40000
1955555;-0.39500
1958333;-0.40000
1961111;-0.40000
1963888;-0.39500
1966666;-0.41500
1969444;-0.40500
1972222;-0.39000
1974999;-0.40000
1977777;-0.40000
1980555;-0.41500
1983333;-0.42500
1986111;-0.42500
1988888;-0.41500
1991666;-0.41500
1994444;-0.41000
1997222;-0.42500
1999999;-0.42500
2002777;-0.42000
2005555;-0.41500
2008333;-0.40000
2011111;-0.40000
2013888;-0.41000
2016666;-0.42500
2019444;-0.41000
2022222;-0.40500
2024999;-0.39500
2027777;-0.40000
2030555;-0.40000
2033333;-0.40500
2036111;-0.38500
2038888;-0.40000
2041666;-0.39000
2044444;-0.39000
2047222;-0.40000
2049999;-0.41500
2052777;-0.40500
2055555;-0.40500
2058333;-0.41000
2061111;-0.41500
2063888;-0.42000
2066666;-0.42000
2069444;-0.42500
2072222;-0.41500
2074999;-0.41500
2077777;-0.41000
2080555;-0.43500
2083333;-0.43000
2086111;-0.43500
2088888;-0.42000
2091666;-0.42000
2094444;-0.42000
2097222;-0.42000
2099999;-0.42500
2102777;-0.42500
2105555;-0.41500
2108333;-0.39500
2111111;-0.39500
2113888;-0.39000
2116666;-0.37500
2119444;-0.36000
2122222;-0.34000
2124999;-0.33500
2127777;-0.33000
2130555;-0.33500
2133333;-0.33500
2136111;-0.32500
2138888;-0.32000
2141666;-0.30500
2144444;-0.30500
2147222;-0.31500
2149999;-0.31000
2152777;-0.30500
2155555;-0.30000
2158333;-0.30000
2161111;-0.30000
2163888;-0.31000
2166666;-0.31000
2169444;-0.31000
2172222;-0.31500
2174999;-0.30000
2177777;-0.30500
2180555;-0.31500
2183333;-0.32000
2186110;-0.32500
2188888;-0.31000
2191666;-0.30500
2194444;-0.30500
2197222;-0.32000
2199999;-0.32500
2202777;-0.30500
2205555;-0.31000
2208333;-0.29500
2211110;-0.31000
2213888;-0.32500
2216666;-0.33000
2219444;-0.32000
2222222;-0.32000
2224999;-0.32000
2227777;-0.32500
2230555;-0.35000
2233333;-0.35000
2236110;-0.34000
2238888;-0.33500
2241666;-0.33000
2244444;-0.33500
2247222;-0.34000
2249999;-0.36000
2252777;-0.35000
2255555;-0.35000
2258333;-0.35500
2261110;-0.36000
2263888;-0.35500
2266666;-0.36500
2269444;-0.35500
2272222;-0.35000
2274999;-0.34000
2277777;-0.35500
2280555;-0.35000
2283333;-0.36500
2286110;-0.36500
2288888;-0.35000
2291666;-0.35500
2294444;-0.35000
2297222;-0.37000
2299999;-0.38000
2302777;-0.37000
2305555;-0.36000
2308333;-0.36500
2311110;-0.36000
2313888;-0.36500
2316666;-0.38000
2319444;-0.37000
2322222;-0.36500
2324999;-0.35000
2327777;-0.35000
2330555;-0.35000
2333333;-0.37000
2336110;-0.36500
2338888;-0.34500
2341666;-0.34500
2344444;-0.34000
2347222;-0.35500
2349999;-0.36500
2352777;-0.36000
2355555;-0.35500
2358333;-0.35500
2361110;-0.35500
2363888;-0.37500
2366666;-0.38500
2369444;-0.35500
2372222;-0.36000
2374999;-0.35500
2377777;-0.36000
2380555;-0.36000
2383333;-0.37000
2386110;-0.36000
2388888;-0.34500
2391666;-0.35500
2394444;-0.34500
2397222;-0.34500
2399999;-0.34500
2402777;-0.34000
2405555;-0.31000
2408333;-0.30500
2411110;-0.30500
2413888;-0.31000
2416666;-0.30500
2419444;-0.29000
2422222;-0.28500
2424999;-0.27500
2427777;-0.28000
2430555;-0.28000
2433333;-0.27500
2436110;-0.26500
2438888;-0.25500
2441666;-0.24500
2444444;-0.26000
2447222;-0.26500
2449999;-0.27500
2452777;-0.28000
2455555;-0.26500
2458333;-0.27000
2461110;-0.27500
2463888;-0.28000
2466666;-0.27500
2469444;-0.28000
2472222;-0.27500
2474999;-0.26500
2477777;-0.25500
2480555;-0.24000
2483333;-0.26000
2486110;-0.28000
2488888;-0.31000
2491666;-0.31000
2494444;-0.34500
2497222;-0.36000
2499999;-0.38000
2502777;-0.38500
2505555;-0.38000
2508333;-0.37000
2511110;-0.37500
2513888;-0.38500
2516666;-0.39000
2519444;-0.39500
2522222;-0.38500
2524999;-0.38500
2527777;-0.38500
2530555;-0.39500
2533333;-0.40500
2536110;-0.40000
2538888;-0.37500
2541666;-0.37500
2544444;-0.39000
2547222;-0.39500
2549999;-0.41500
2552777;-0.40500
2555555;-0.40000
2558333;-0.39000
2561110;-0.40500
2563888;-0.42500
2566666;-0.46000
2569444;-0.47500
2572222;-0.50500
2574999;-0.51000
2577777;-0.52500
2580555;-0.54000
2583333;-0.60000
2586110;-0.64500
2588888;-0.63000
2591666;-0.57500
2594444;-0.49500
2597221;-0.38500
2599999;-0.27000
2602777;-0.11500
2605555;0.09000
2608333;0.37000
2611110;0.63500
2613888;0.81000
2616666;0.86000
2619444;0.77000
2622221;0.47500
2624999;0.06500
2627777;-0.30500
2630555;-0.50000
2633333;-0.52000
2636110;-0.47500
2638888;-0.41000
2641666;-0.39000
2644444;-0.39000
2647221;-0.40000
2649999;-0.41000
2652777;-0.40500
2655555;-0.38500
2658333;-0.39000
2661110;-0.39500
2663888;-0.40500
2666666;-0.41000
2669444;-0.40500
2672221;-0.40000
2674999;-0.39000
2677777;-0.39500
2680555;-0.41000
2683333;-0.41500
2686110;-0.41000
2688888;-0.39500
2691666;-0.40500
2694444;-0.41000
2697221;-0.40500
2699999;-0.40500
2702777;-0.41000
2705555;-0.39000
2708333;-0.38500
2711110;-0.39000
2713888;-0.39500
2716666;-0.40000
2719444;-0.40000
2722221;-0.40000
2724999;-0.39500
2727777;-0.39500
2730555;-0.40500
2733333;-0.40500
2736110;-0.40000
2738888;-0.39500
2741666;-0.38500
2744444;-0.37500
2747221;-0.38500
2749999;-0.39500
2752777;-0.39000
2755555;-0.38500
2758333;-0.37500
2761110;-0.38500
2763888;-0.39500
2766666;-0.39500
2769444;-0.38500
2772221;-0.37500
2774999;-0.37500
2777777;-0.38500
2780555;-0.39500
2783333;-0.39000
2786110;-0.39000
2788888;-0.36500
2791666;-0.37500
2794444;-0.38500
2797221;-0.39500
2799999;-0.38000
2802777;-0.38500
2805555;-0.37500
2808333;-0.38000
2811110;-0.39000
2813888;-0.38000
2816666;-0.37500
2819444;-0.37500
2822221;-0.37500
2824999;-0.37500
2827777;-0.38000
2830555;-0.39000
2833333;-0.39000
2836110;-0.36500
2838888;-0.37000
2841666;-0.37500
2844444;-0.38500
2847221;-0.39000
2849999;-0.39000
2852777;-0.37500
2855555;-0.36500
2858333;-0.38500
2861110;-0.38000
2863888;-0.39000
2866666;-0.37500
2869444;-0.37500
2872221;-0.36500
2874999;-0.37000
2877777;-0.38500
2880555;-0.39500
2883333;-0.38500
2886110;-0.38500
2888888;-0.37000
2891666;-0.36500
2894444;-0.37000
2897221;-0.37500
2899999;-0.35000
2902777;-0.33500
2905555;-0.32000
2908333;-0.31500
2911110;-0.32000
2913888;-0.32500
2916666;-0.31500
2919444;-0.29500
2922221;-0.28500
2924999;-0.30000
2927777;-0.29500
2930555;-0.28500
2933333;-0.28500
2936110;-0.28000
2938888;-0.27000
2941666;-0.28000
2944444;-0.29000
2947221;-0.29500
2949999;-0.29500
2952777;-0.29000
2955555;-0.28000
2958333;-0.29000
2961110;-0.29500
2963888;-0.31000
2966666;-0.29500
2969444;-0.28500
2972221;-0.28000
2974999;-0.27500
2977777;-0.29500
2980555;-0.30500
2983332;-0.30000
2986110;-0.29500
2988888;-0.29500
2991666;-0.28500
2994444;-0.30000
2997221;-0.30500
2999999;-0.30000
3002777;-0.29500
3005555;-0.30000
3008332;-0.30500
3011110;-0.31500
3013888;-0.31000
3016666;-0.31500
3019444;-0.29500
3022221;-0.30000
3024999;-0.31000
3027777;-0.33000
3030555;-0.34000
3033332;-0.33000
3036110;-0.32000
3038888;-0.32000
3041666;-0.31500
3044444;-0.32500
3047221;-0.33500
3049999;-0.33000
3052777;-0.31500
3055555;-0.32000
3058332;-0.32000
3061110;-0.33000
3063888;-0.34500
3066666;-0.34000
3069444;-0.33500
3072221;-0.33000
3074999;-0.33500
3077777;-0.34500
3080555;-0.35000
3083332;-0.34500
3086110;-0.34000
3088888;-0.33500
3091666;-0.33500
3094444;-0.33000
3097221;-0.33500
3099999;-0.34000
3102777;-0.33500
3105555;-0.32000
3108332;-0.34000
3111110;-0.34000
3113888;-0.35000
3116666;-0.36500
3119444;-0.36000
3122221;-0.34500
3124999;-0.34500
3127777;-0.35000
3130555;-0.35000
3133332;-0.35000
3136110;-0.34000
3138888;-0.34000
3141666;-0.34500
3144444;-0.34500
3147221;-0.38000
3149999;-0.36000
3152777;-0.36000
3155555;-0.34500
3158332;-0.34500
3161110;-0.35000
3163888;-0.35500
3166666;-0.34500
3169444;-0.33000
3172221;-0.33000
3174999;-0.33500
3177777;-0.33500
3180555;-0.34000
3183332;-0.33000
3186110;-0.32000
3188888;-0.29000
3191666;-0.29000
3194444;-0.30000
3197221;-0.30500
3199999;-0.28500
3202777;-0.28000
3205555;-0.27500
3208332;-0.28000
3211110;-0.27500
3213888;-0.27000
3216666;-0.26500
3219444;-0.25000
3222221;-0.23000
3224999;-0.24500
3227777;-0.24000
3230555;-0.25500
3233332;-0.25500
3236110;-0.24500
3238888;-0.23500
3241666;-0.25500
3244444;-0.26500
3247221;-0.26000
3249999;-0.25500
3252777;-0.27000
3255555;-0.26500
3258332;-0.28000
3261110;-0.25500
3263888;-0.25000
3266666;-0.24500
3269444;-0.26500
3272221;-0.28000
3274999;-0.30000
3277777;-0.31500
3280555;-0.32500
3283332;-0.33500
3286110;-0.34500
3288888;-0.33000
3291666;-0.33500
3294444;-0.34500
3297221;-0.36000
3299999;-0.35000
3302777;-0.34000
3305555;-0.33500
3308332;-0.34500
3311110;-0.36000
3313888;-0.36500
3316666;-0.37500
3319444;-0.37000
3322221;-0.36500
3324999;-0.36500
3327777;-0.38000
3330555;-0.37500
3333332;-0.37500
3336110;-0.36500
3338888;-0.37000
3341666;-0.36000
3344444;-0.37000
3347221;-0.38000
3349999;-0.36500
3352777;-0.36000
3355555;-0.35000
3358332;-0.35500
3361110;-0.37000
3363888;-0.38500
3366666;-0.39500
3369444;-0.43000
3372221;-0.44500
3374999;-0.48500
3377777;-0.51500
3380555;-0.56500
3383332;-0.55500
3386110;-0.47500
3388888;-0.35500
3391666;-0.22000
3394443;-0.05500
3397221;0.18500
3399999;0.47500
3402777;0.70500
3405555;0.82000
3408332;0.78000
3411110;0.53500
3413888;0.14500
3416666;-0.20000
3419443;-0.42000
3422221;-0.50000
3424999;-0.48000
3427777;-0.45000
3430555;-0.41000
3433332;-0.40000
3436110;-0.39000
3438888;-0.39000
3441666;-0.40000
3444443;-0.40500
3447221;-0.42500
3449999;-0.42500
3452777;-0.40500
3455555;-0.39500
3458332;-0.40500
3461110;-0.40500
3463888;-0.41500
3466666;-0.40500
3469443;-0.38500
3472221;-0.39000
3474999;-0.39500
3477777;-0.39500
3480555;-0.39500
3483332;-0.39500
3486110;-0.38500
3488888;-0.39000
3491666;-0.39000
3494443;-0.40000
3497221;-0.42500
3499999;-0.41000
3502777;-0.40000
3505555;-0.39500
3508332;-0.40000
3511110;-0.40500
3513888;-0.42500
3516666;-0.41500
3519443;-0.40500
3522221;-0.40500
3524999;-0.40500
3527777;-0.41000
3530555;-0.41500
3533332;-0.40500
3536110;-0.42000
3538888;-0.40500
3541666;-0.41000
3544443;-0.41000
3547221;-0.42000
3549999;-0.41500
3552777;-0.40500
3555555;-0.39500
3558332;-0.39500
3561110;-0.39500
3563888;-0.40000
3566666;-0.39500
3569443;-0.39500
3572221;-0.40500
3574999;-0.40500
3577777;-0.42000
3580555;-0.43500
3583332;-0.41500
3586110;-0.40500
3588888;-0.39500
3591666;-0.39000
3594443;-0.41500
3597221;-0.40500
3599999;-0.40500
3602777;-0.40000
3605555;-0.39500
3608332;-0.39500
3611110;-0.40500
3613888;-0.42000
3616666;-0.41500
3619443;-0.40000
3622221;-0.39500
3624999;-0.40000
3627777;-0.40500
3630555;-0.42500
3633332;-0.42500
3636110;-0.42500
3638888;-0.42000
3641666;-0.42500
3644443;-0.45000
3647221;-0.44500
3649999;-0.45000
3652777;-0.43500
3655555;-0.44500
3658332;-0.47000
3661110;-0.45500
3663888;-0.46000
3666666;-0.44000
3669443;-0.43500
3672221;-0.42500
3674999;-0.43000
3677777;-0.44500
3680555;-0.45000
3683332;-0.44500
3686110;-0.43000
3688888;-0.42000
3691666;-0.41000
3694443;-0.42500
3697221;-0.42000
3699999;-0.40500
3702777;-0.38000
3705555;-0.37000
3708332;-0.36500
3711110;-0.36500
3713888;-0.36500
3716666;-0.34500
3719443;-0.33000
3722221;-0.31500
3724999;-0.30500
3727777;-0.30500
3730555;-0.32000
3733332;-0.31000
3736110;-0.31000
3738888;-0.30500
3741666;-0.31000
3744443;-0.31500
3747221;-0.32000
3749999;-0.31500
3752777;-0.30500
3755555;-0.30500
3758332;-0.29500
3761110;-0.31000
3763888;-0.32000
3766666;-0.31000
3769443;-0.31500
3772221;-0.29500
3774999;-0.30000
3777777;-0.30500
3780554;-0.30000
3783332;-0.28500
3786110;-0.28000
3788888;-0.29000
3791666;-0.29500
3794443;-0.30500
3797221;-0.32500
3799999;-0.30500
3802777;-0.30000
3805554;-0.30000
3808332;-0.31500
3811110;-0.32500
3813888;-0.33500
3816666;-0.32500
3819443;-0.31500
3822221;-0.32000
3824999;-0.33500
3827777;-0.33000
3830554;-0.34000
3833332;-0.32500
3836110;-0.32500
3838888;-0.32000
3841666;-0.31500
3844443;-0.33500
3847221;-0.33500
3849999;-0.34500
3852777;-0.33500
3855554;-0.32500
3858332;-0.33000
3861110;-0.31500
3863888;-0.33500
3866666;-0.33000
3869443;-0.33000
3872221;-0.33000
3874999;-0.33000
3877777;-0.33500
3880554;-0.34000
3883332;-0.33000
3886110;-0.32000
3888888;-0.31500
3891666;-0.32500
3894443;-0.33500
3897221;-0.35500
3899999;-0.34500
3902777;-0.34000
3905554;-0.33500
3908332;-0.32000
3911110;-0.32500
3913888;-0.35000
3916666;-0.33000
3919443;-0.31500
3922221;-0.31500
3924999;-0.33000
3927777;-0.33000
3930554;-0.33500
3933332;-0.33500
3936110;-0.33000
3938888;-0.33000
3941666;-0.33000
3944443;-0.34000
3947221;-0.34000
3949999;-0.34000
3952777;-0.32500
3955554;-0.32500
3958332;-0.32500
3961110;-0.34500
3963888;-0.35000
3966666;-0.34000
3969443;-0.33000
3972221;-0.32000
3974999;-0.31000
3977777;-0.30500
3980554;-0.30500
3983332;-0.27500
3986110;-0.27000
3988888;-0.25500
3991666;-0.26000
3994443;-0.26500
3997221;-0.26000
3999999;-0.25000
4002777;-0.23500
4005554;-0.23500
4008332;-0.22000
4011110;-0.23500
4013888;-0.23500
4016666;-0.22000
4019443;-0.23000
4022221;-0.22500
4024999;-0.23500
4027777;-0.24500
4030554;-0.25500
4033332;-0.24000
4036110;-0.23000
4038888;-0.23000
4041666;-0.25000
4044443;-0.25500
4047221;-0.25000
4049999;-0.23000
4052777;-0.20500
4055554;-0.19500
4058332;-0.21000
4061110;-0.23000
4063888;-0.27000
4066666;-0.27000
4069443;-0.28500
4072221;-0.28500
4074999;-0.31000
4077777;-0.33000
4080554;-0.34000
4083332;-0.34000
4086110;-0.34500
4088888;-0.35000
4091666;-0.35000
4094443;-0.34000
4097221;-0.35500
4099999;-0.34500
4102777;-0.34000
4105554;-0.34000
4108332;-0.34500
4111110;-0.35500
4113888;-0.37000
4116666;-0.35500
4119443;-0.37000
4122221;-0.34500
4124999;-0.34000
4127777;-0.36000
4130554;-0.38000
4133332;-0.36000
4136110;-0.34500
4138888;-0.35000
4141666;-0.35000
4144443;-0.35500
4147221;-0.38000
4149999;-0.39000
4152777;-0.39500
4155554;-0.42500
4158332;-0.45500
4161110;-0.47500
4163888;-0.51000
4166666;-0.54500
4169443;-0.54000
4172221;-0.49500
4174999;-0.40500
4177777;-0.29500
4180554;-0.16000
4183332;0.04000
4186110;0.31500
4188888;0.59500
4191665;0.80000
4194443;0.88500
4197221;0.79500
4199999;0.52000
4202777;0.13000
4205554;-0.21500
4208332;-0.42500
4211110;-0.50000
4213888;-0.49000
4216665;-0.45000
4219443;-0.40000
4222221;-0.39000
4224999;-0.39500
4227777;-0.39500
4230554;-0.40000
4233332;-0.39000
4236110;-0.38000
4238888;-0.38500
4241665;-0.38500
4244443;-0.40000
4247221;-0.41000
4249999;-0.41000
4252777;-0.39000
4255554;-0.39000
4258332;-0.40500
4261110;-0.40500
4263888;-0.41500
4266665;-0.41000
4269443;-0.39500
4272221;-0.39500
4274999;-0.40000
4277777;-0.41500
4280554;-0.41500
4283332;-0.41500
4286110;-0.40000
4288888;-0.39000
4291665;-0.39000
4294443;-0.41000
4297221;-0.41500
4299999;-0.40500
4302777;-0.39500
4305554;-0.39500
4308332;-0.39500
4311110;-0.40500
4313888;-0.41000
4316665;-0.41000
4319443;-0.40000
4322221;-0.39000
4324999;-0.39500
4327777;-0.41000
4330554;-0.42500
4333332;-0.41500
4336110;-0.40500
4338888;-0.41000
4341665;-0.40500
4344443;-0.41500
4347221;-0.42500
4349999;-0.42500
4352777;-0.41000
4355554;-0.39500
4358332;-0.39000
4361110;-0.40000
4363888;-0.41000
4366665;-0.41000
4369443;-0.40000
4372221;-0.39000
4374999;-0.41000
4377777;-0.42000
4380554;-0.42000
4383332;-0.41500
4386110;-0.41500
4388888;-0.40500
4391665;-0.42000
4394443;-0.41500
4397221;-0.42500
4399999;-0.41000
4402777;-0.40000
4405554;-0.40500
4408332;-0.40000
4411110;-0.40000
4413888;-0.41000
4416665;-0.40000
4419443;-0.39500
4422221;-0.39500
4424999;-0.40500
4427777;-0.41000
4430554;-0.42500
4433332;-0.42500
4436110;-0.41000
4438888;-0.41000
4441665;-0.42000
4444443;-0.43000
4447221;-0.44500
4449999;-0.44000
4452777;-0.43500
4455554;-0.43000
4458332;-0.43000
4461110;-0.45000
4463888;-0.44500
4466665;-0.44500
4469443;-0.43500
4472221;-0.43500
4474999;-0.44500
4477777;-0.44000
4480554;-0.45000
4483332;-0.43000
4486110;-0.43000
4488888;-0.41500
4491665;-0.40000
4494443;-0.40000
4497221;-0.38500
4499999;-0.36500
4502777;-0.33500
4505554;-0.33000
4508332;-0.32500
4511110;-0.33000
4513888;-0.33000
4516665;-0.31000
4519443;-0.29500
4522221;-0.28500
4524999;-0.29000
4527777;-0.29000
4530554;-0.31000
4533332;-0.29500
4536110;-0.28500
4538888;-0.28000
4541665;-0.30000
4544443;-0.29000
4547221;-0.29500
4549999;-0.29000
4552777;-0.28000
4555554;-0.27500
4558332;-0.27500
4561110;-0.29000
4563888;-0.29000
4566665;-0.28500
4569443;-0.27000
4572221;-0.27000
4574999;-0.27000
4577776;-0.27500
4580554;-0.29000
4583332;-0.28500
4586110;-0.27500
4588888;-0.27500
4591665;-0.29000
4594443;-0.29500
4597221;-0.30500
4599999;-0.29500
4602776;-0.29500
4605554;-0.28500
4608332;-0.29000
4611110;-0.30000
4613888;-0.30500
4616665;-0.31000
4619443;-0.29500
4622221;-0.30000
4624999;-0.30500
4627776;-0.31000
4630554;-0.32500
4633332;-0.32500
4636110;-0.31500
4638888;-0.31000
4641665;-0.31500
4644443;-0.31500
4647221;-0.32500
4649999;-0.32000
4652776;-0.31000
4655554;-0.32000
4658332;-0.31500
4661110;-0.33000
4663888;-0.33000
4666665;-0.32000
4669443;-0.31000
4672221;-0.31000
4674999;-0.31000
4677776;-0.33000
4680554;-0.33500
4683332;-0.33000
4686110;-0.32000
4688888;-0.32500
4691665;-0.32500
4694443;-0.33000
4697221;-0.33500
4699999;-0.33000
4702776;-0.32500
4705554;-0.32500
4708332;-0.32000
4711110;-0.32500
4713888;-0.33000
4716665;-0.32500
4719443;-0.31500
4722221;-0.30500
4724999;-0.32500
4727776;-0.31500
4730554;-0.33500
4733332;-0.33000
4736110;-0.31000
4738888;-0.32000
4741665;-0.33000
4744443;-0.33000
4747221;-0.33500
4749999;-0.33000
4752776;-0.33000
4755554;-0.32000
4758332;-0.32000
4761110;-0.33000
4763888;-0.33000
4766665;-0.32500
4769443;-0.31500
4772221;-0.31500
4774999;-0.31500
4777776;-0.33000
4780554;-0.33000
4783332;-0.32000
4786110;-0.31500
4788888;-0.30500
4791665;-0.30500
4794443;-0.29500
4797221;-0.31500
4799999;-0.30000
4802776;-0.27500
4805554;-0.25500
4808332;-0.25500
4811110;-0.26000
4813888;-0.26500
4816665;-0.25500
4819443;-0.23500
4822221;-0.23000
4824999;-0.22500
4827776;-0.22000
4830554;-0.22000
4833332;-0.21500
4836110;-0.20000
4838888;-0.20500
4841665;-0.20500
4844443;-0.22500
4847221;-0.23500
4849999;-0.24000
4852776;-0.23000
4855554;-0.21500
4858332;-0.24000
4861110;-0.24000
4863888;-0.25000
4866665;-0.23500
4869443;-0.21000
4872221;-0.20000
4874999;-0.22000
4877776;-0.25500
4880554;-0.27500
4883332;-0.28500
4886110;-0.30000
4888888;-0.30500
4891665;-0.32000
4894443;-0.33000
4897221;-0.32500
4899999;-0.32000
4902776;-0.33000
4905554;-0.33000
4908332;-0.33500
4911110;-0.34000
4913888;-0.34500
4916665;-0.34000
4919443;-0.33500
4922221;-0.32000
4924999;-0.32500
4927776;-0.33500
4930554;-0.34500
4933332;-0.34500
4936110;-0.34500
4938888;-0.33500
4941665;-0.34000
4944443;-0.34500
4947221;-0.35500
4949999;-0.34000
4952776;-0.34000
4955554;-0.34000
4958332;-0.34000
4961110;-0.34500
4963887;-0.35500
4966665;-0.36500
4969443;-0.37000
4972221;-0.40500
4974999;-0.44500
4977776;-0.48000
4980554;-0.49500
4983332;-0.52000
4986110;-0.53500
4988887;-0.50500
4991665;-0.41500
4994443;-0.28000
4997221;-0.13500
4999999;0.06500
5002776;0.30000
5005554;0.58000
5008332;0.81000
5011110;0.94500
