time_ms;ecg_value
0;-0.16000
2778;-0.15000
5556;-0.13000
8333;-0.10000
11111;-0.11000
13889;-0.14000
16667;-0.16000
19444;-0.17000
22222;-0.17500
25000;-0.17500
27778;-0.20000
30556;-0.21500
33333;-0.22500
36111;-0.22500
38889;-0.21500
41667;-0.22000
44444;-0.23000
47222;-0.25000
50000;-0.25000
52778;-0.25000
55556;-0.25000
58333;-0.24500
61111;-0.25500
63889;-0.25500
66667;-0.25500
69444;-0.25000
72222;-0.24500
75000;-0.25500
77778;-0.26500
80556;-0.27500
83333;-0.26000
86111;-0.26000
88889;-0.25500
91667;-0.25000
94444;-0.27000
97222;-0.27500
100000;-0.26500
102778;-0.26500
105556;-0.26000
108333;-0.27000
111111;-0.29000
113889;-0.30000
116667;-0.31000
119444;-0.34500
122222;-0.36500
125000;-0.39000
127778;-0.43000
130556;-0.47500
133333;-0.49500
136111;-0.45000
138889;-0.35000
141667;-0.22500
144444;-0.09500
147222;0.06000
150000;0.29000
152778;0.55500
155556;0.78000
158333;0.91500
161111;0.92500
163889;0.81000
166667;0.52500
169444;0.19000
172222;-0.13500
175000;-0.32500
177778;-0.41000
180556;-0.39000
183333;-0.33500
186111;-0.30000
188889;-0.29500
191667;-0.29500
194444;-0.30000
197222;-0.30500
200000;-0.30000
202778;-0.29000
205555;-0.29500
208333;-0.29500
211111;-0.29500
213889;-0.31000
216667;-0.30000
219444;-0.28500
222222;-0.28500
225000;-0.30000
227778;-0.30000
230555;-0.30500
233333;-0.30000
236111;-0.29500
238889;-0.29000
241667;-0.28500
244444;-0.29500
247222;-0.29500
250000;-0.30000
252778;-0.29500
255555;-0.29000
258333;-0.30500
261111;-0.31000
263889;-0.32000
266667;-0.31500
269444;-0.29000
272222;-0.29500
275000;-0.30000
277778;-0.30000
280555;-0.31000
283333;-0.30000
286111;-0.29000
288889;-0.28000
291667;-0.29000
294444;-0.30000
297222;-0.31000
300000;-0.30000
302778;-0.29000
305555;-0.29000
308333;-0.28000
311111;-0.29000
313889;-0.32000
316667;-0.30500
319444;-0.30000
322222;-0.29500
325000;-0.30500
327778;-0.31000
330555;-0.31000
333333;-0.30500
336111;-0.31000
338889;-0.29000
341667;-0.29500
344444;-0.29000
347222;-0.30000
350000;-0.29500
352778;-0.29000
355555;-0.28500
358333;-0.29500
361111;-0.30000
363889;-0.30000
366667;-0.29000
369444;-0.28500
372222;-0.28000
375000;-0.28500
377778;-0.29500
380555;-0.29500
383333;-0.29500
386111;-0.28500
388889;-0.28000
391667;-0.28500
394444;-0.28500
397222;-0.30000
400000;-0.28000
402778;-0.29500
405555;-0.28500
408333;-0.29000
411111;-0.29000
413889;-0.30500
416667;-0.30500
419444;-0.29500
422222;-0.29500
425000;-0.30000
427778;-0.30000
430555;-0.31000
433333;-0.30500
436111;-0.29000
438889;-0.29500
441667;-0.30000
444444;-0.30000
447222;-0.31000
450000;-0.32000
452778;-0.30000
455555;-0.31000
458333;-0.29500
461111;-0.30500
463889;-0.30000
466667;-0.29500
469444;-0.27000
472222;-0.26000
475000;-0.26000
477778;-0.25500
480555;-0.26500
483333;-0.25000
486111;-0.23000
488889;-0.22500
491667;-0.22000
494444;-0.23500
497222;-0.24500
500000;-0.23500
502778;-0.22000
505555;-0.21500
508333;-0.21000
511111;-0.21000
513889;-0.23000
516667;-0.21500
519444;-0.21000
522222;-0.22500
525000;-0.22500
527778;-0.24000
530555;-0.24500
533333;-0.22500
536111;-0.23000
538889;-0.21500
541667;-0.22500
544444;-0.22000
547222;-0.23500
550000;-0.23000
552778;-0.24000
555555;-0.22500
558333;-0.22500
561111;-0.23500
563889;-0.24500
566667;-0.23500
569444;-0.23000
572222;-0.23500
575000;-0.23500
577778;-0.25000
580555;-0.27000
583333;-0.25000
586111;-0.24000
588889;-0.24500
591667;-0.25000
594444;-0.25500
597222;-0.26500
600000;-0.25500
602778;-0.25500
605555;-0.25500
608333;-0.24500
611111;-0.25000
613889;-0.27000
616666;-0.26500
619444;-0.27500
622222;-0.25500
625000;-0.26500
627778;-0.26500
630555;-0.28000
633333;-0.28500
636111;-0.28000
638889;-0.27500
641666;-0.28000
644444;-0.28500
647222;-0.28500
650000;-0.27000
652778;-0.27000
655555;-0.26500
658333;-0.27000
661111;-0.27500
663889;-0.28500
666666;-0.28500
669444;-0.28500
672222;-0.29000
675000;-0.29000
677778;-0.29000
680555;-0.30500
683333;-0.29500
686111;-0.28500
688889;-0.27500
691666;-0.27500
694444;-0.28000
697222;-0.29000
700000;-0.29500
702778;-0.28500
705555;-0.27000
708333;-0.28000
711111;-0.29500
713889;-0.29000
716666;-0.29500
719444;-0.29000
722222;-0.28500
725000;-0.28500
727778;-0.28000
730555;-0.30000
733333;-0.28500
736111;-0.27500
738889;-0.27000
741666;-0.27500
744444;-0.28500
747222;-0.28000
750000;-0.28500
752778;-0.27000
755555;-0.26000
758333;-0.26500
761111;-0.27500
763889;-0.27500
766666;-0.25500
769444;-0.23000
772222;-0.22500
775000;-0.22000
777778;-0.22500
780555;-0.23500
783333;-0.22000
786111;-0.21000
788889;-0.19500
791666;-0.19000
794444;-0.19000
797222;-0.20500
800000;-0.19500
802778;-0.18000
805555;-0.18500
808333;-0.18500
811111;-0.20000
813889;-0.21000
816666;-0.20000
819444;-0.18500
822222;-0.20000
825000;-0.21000
827778;-0.21000
830555;-0.20500
833333;-0.19000
836111;-0.18500
838889;-0.21500
841666;-0.24500
844444;-0.26500
847222;-0.28500
850000;-0.30500
852778;-0.29500
855555;-0.29000
858333;-0.29000
861111;-0.30000
863889;-0.31000
866666;-0.30000
869444;-0.30000
872222;-0.29500
875000;-0.30000
877778;-0.31000
880555;-0.32000
883333;-0.31000
886111;-0.30000
888889;-0.30500
891666;-0.29500
894444;-0.32000
897222;-0.33000
900000;-0.34500
902778;-0.34500
905555;-0.31500
908333;-0.32500
911111;-0.34000
913889;-0.33500
916666;-0.33500
919444;-0.33500
922222;-0.32000
925000;-0.32000
927778;-0.34000
930555;-0.39500
933333;-0.42500
936111;-0.43500
938889;-0.46000
941666;-0.51500
944444;-0.54500
947222;-0.52500
950000;-0.40500
952778;-0.27000
955555;-0.12500
958333;0.07000
961111;0.33000
963889;0.57500
966666;0.76500
969444;0.85000
972222;0.76000
975000;0.46000
977778;0.08500
980555;-0.22000
983333;-0.39000
986111;-0.46500
988889;-0.44500
991666;-0.40500
994444;-0.40000
997222;-0.39500
1000000;-0.40000
1002777;-0.38000
1005555;-0.37000
1008333;-0.37500
1011111;-0.38000
1013889;-0.37500
1016666;-0.36000
1019444;-0.36000
1022222;-0.34500
1025000;-0.37000
1027777;-0.37000
1030555;-0.36500
1033333;-0.36500
1036111;-0.35500
1038889;-0.34500
1041666;-0.35500
1044444;-0.35000
1047222;-0.37000
1050000;-0.36500
1052777;-0.36000
1055555;-0.36500
1058333;-0.37000
1061111;-0.38500
1063889;-0.38500
1066666;-0.38500
1069444;-0.38000
1072222;-0.37500
1075000;-0.36500
1077777;-0.37500
1080555;-0.38000
1083333;-0.37500
1086111;-0.38000
1088889;-0.38500
1091666;-0.38000
1094444;-0.37500
1097222;-0.37500
1100000;-0.36000
1102777;-0.35500
1105555;-0.35500
1108333;-0.37000
1111111;-0.38500
1113889;-0.38500
1116666;-0.38500
1119444;-0.37000
1122222;-0.35500
1125000;-0.36000
1127777;-0.36000
1130555;-0.37500
1133333;-0.36500
1136111;-0.36000
1138889;-0.35500
1141666;-0.35500
1144444;-0.36000
1147222;-0.37000
1150000;-0.36500
1152777;-0.37000
1155555;-0.36000
1158333;-0.36500
1161111;-0.37500
1163889;-0.36500
1166666;-0.37500
1169444;-0.37000
1172222;-0.37000
1175000;-0.37500
1177777;-0.38500
1180555;-0.39000
1183333;-0.38000
1186111;-0.37000
1188889;-0.37000
1191666;-0.38500
1194444;-0.39500
1197222;-0.40000
1200000;-0.39500
1202777;-0.40000
1205555;-0.38500
1208333;-0.39000
1211111;-0.40500
1213889;-0.42000
1216666;-0.42500
1219444;-0.43000
1222222;-0.42000
1225000;-0.42500
1227777;-0.43000
1230555;-0.44500
1233333;-0.42500
1236111;-0.40000
1238889;-0.40500
1241666;-0.40500
1244444;-0.42000
1247222;-0.43500
1250000;-0.41500
1252777;-0.38500
1255555;-0.38000
1258333;-0.37500
1261111;-0.37000
1263889;-0.36000
1266666;-0.33500
1269444;-0.32000
1272222;-0.31000
1275000;-0.30500
1277777;-0.31000
1280555;-0.31500
1283333;-0.30500
1286111;-0.29500
1288889;-0.29500
1291666;-0.29000
1294444;-0.29000
1297222;-0.29500
1300000;-0.29000
1302777;-0.28500
1305555;-0.28000
1308333;-0.28500
1311111;-0.31000
1313889;-0.30500
1316666;-0.29500
1319444;-0.29500
1322222;-0.29500
1325000;-0.29000
1327777;-0.28000
1330555;-0.29500
1333333;-0.28000
1336111;-0.28000
1338889;-0.27000
1341666;-0.29000
1344444;-0.30500
1347222;-0.28500
1350000;-0.28500
1352777;-0.28000
1355555;-0.29000
1358333;-0.28500
1361111;-0.30000
1363889;-0.29500
1366666;-0.29500
1369444;-0.29500
1372222;-0.29500
1375000;-0.30000
1377777;-0.32000
1380555;-0.31500
1383333;-0.31000
1386111;-0.30000
1388888;-0.28500
1391666;-0.29000
1394444;-0.31500
1397222;-0.32000
1400000;-0.30500
1402777;-0.29500
1405555;-0.29000
1408333;-0.30500
1411111;-0.32500
1413888;-0.33000
1416666;-0.32500
1419444;-0.30500
1422222;-0.31000
1425000;-0.31000
1427777;-0.32000
1430555;-0.32500
1433333;-0.33500
1436111;-0.32000
1438888;-0.31500
1441666;-0.31000
1444444;-0.32500
1447222;-0.33000
1450000;-0.32500
1452777;-0.32000
1455555;-0.31500
1458333;-0.31500
1461111;-0.32000
1463888;-0.33000
1466666;-0.32500
1469444;-0.31500
1472222;-0.31500
1475000;-0.31000
1477777;-0.33000
1480555;-0.32500
1483333;-0.32000
1486111;-0.31500
1488888;-0.31500
1491666;-0.32500
1494444;-0.32000
1497222;-0.32500
1500000;-0.32500
1502777;-0.30000
1505555;-0.30500
1508333;-0.31500
1511111;-0.32500
1513888;-0.32000
1516666;-0.31000
1519444;-0.30500
1522222;-0.29500
1525000;-0.30000
1527777;-0.31500
1530555;-0.31500
1533333;-0.31500
1536111;-0.30500
1538888;-0.30500
1541666;-0.30000
1544444;-0.30000
1547222;-0.30500
1550000;-0.27500
1552777;-0.26000
1555555;-0.25000
1558333;-0.25000
1561111;-0.26000
1563888;-0.27000
1566666;-0.25500
1569444;-0.23000
1572222;-0.22000
1575000;-0.21000
1577777;-0.22500
1580555;-0.24000
1583333;-0.22500
1586111;-0.21500
1588888;-0.21500
1591666;-0.23000
1594444;-0.24000
1597222;-0.23000
1600000;-0.23500
1602777;-0.22500
1605555;-0.22500
1608333;-0.23500
1611111;-0.26000
1613888;-0.26000
1616666;-0.24500
1619444;-0.22000
1622222;-0.22000
1625000;-0.24000
1627777;-0.28000
1630555;-0.29500
1633333;-0.30500
1636111;-0.31000
1638888;-0.32000
1641666;-0.32000
1644444;-0.34500
1647222;-0.34500
1650000;-0.34000
1652777;-0.32000
1655555;-0.32500
1658333;-0.33000
1661111;-0.33000
1663888;-0.34000
1666666;-0.34500
1669444;-0.34000
1672222;-0.33500
1675000;-0.34500
1677777;-0.34000
1680555;-0.35000
1683333;-0.34500
1686111;-0.33500
1688888;-0.33000
1691666;-0.34500
1694444;-0.34500
1697222;-0.35500
1700000;-0.35500
1702777;-0.34500
1705555;-0.34500
1708333;-0.35000
1711111;-0.37500
1713888;-0.41000
1716666;-0.45000
1719444;-0.47000
1722222;-0.48000
1725000;-0.52000
1727777;-0.55500
1730555;-0.53000
1733333;-0.41000
1736111;-0.26500
1738888;-0.09000
1741666;0.12000
1744444;0.37000
1747222;0.62500
1750000;0.83000
1752777;0.91000
1755555;0.81000
1758333;0.50500
1761111;0.07000
1763888;-0.28000
1766666;-0.45000
1769444;-0.47000
1772222;-0.43500
1775000;-0.39000
1777777;-0.37500
1780555;-0.38000
1783333;-0.37500
1786111;-0.37500
1788888;-0.37000
1791666;-0.36500
1794444;-0.37500
1797222;-0.38500
1799999;-0.39000
1802777;-0.37500
1805555;-0.37500
1808333;-0.37000
1811111;-0.38500
1813888;-0.39000
1816666;-0.37500
1819444;-0.38000
1822222;-0.36500
1824999;-0.37500
1827777;-0.38500
1830555;-0.39500
1833333;-0.38500
1836111;-0.36500
1838888;-0.35000
1841666;-0.36500
1844444;-0.35500
1847222;-0.37000
1849999;-0.36500
1852777;-0.36000
1855555;-0.36000
1858333;-0.36000
1861111;-0.37000
1863888;-0.38000
1866666;-0.37500
1869444;-0.37500
1872222;-0.37500
1874999;-0.36000
1877777;-0.37500
1880555;-0.38500
1883333;-0.37500
1886111;-0.36500
1888888;-0.37000
1891666;-0.36000
1894444;-0.37000
1897222;-0.37500
1899999;-0.38000
1902777;-0.38000
1905555;-0.37000
1908333;-0.37000
1911111;-0.37000
1913888;-0.38000
1916666;-0.38000
1919444;-0.37500
1922222;-0.37000
1924999;-0.37000
1927777;-0.37500
1930555;-0.38500
1933333;-0.37500
1936111;-0.37000
1938888;-0.36000
1941666;-0.36500
1944444;-0.37000
1947222;-0.39000
1949999;-0.38000
1952777;-0.37000
1955555;-0.37000
1958333;-0.38500
1961111;-0.38500
1963888;-0.40500
1966666;-0.39000
1969444;-0.38500
1972222;-0.38500
1974999;-0.38500
1977777;-0.40000
1980555;-0.41000
1983333;-0.41000
1986111;-0.40000
1988888;-0.41000
1991666;-0.40000
1994444;-0.41500
1997222;-0.42000
1999999;-0.41500
2002777;-0.40500
2005555;-0.40000
2008333;-0.40500
2011111;-0.41000
2013888;-0.42500
2016666;-0.40500
2019444;-0.40000
2022222;-0.38500
2024999;-0.38000
2027777;-0.38500
2030555;-0.37000
2033333;-0.35000
2036111;-0.33500
2038888;-0.32000
2041666;-0.31500
2044444;-0.31000
2047222;-0.32500
2049999;-0.30500
2052777;-0.28500
2055555;-0.29000
2058333;-0.27000
2061111;-0.27000
2063888;-0.28000
2066666;-0.26500
2069444;-0.25500
2072222;-0.24500
2074999;-0.25500
2077777;-0.26500
2080555;-0.27000
2083333;-0.26500
2086111;-0.25000
2088888;-0.25000
2091666;-0.25000
2094444;-0.26000
2097222;-0.27000
2099999;-0.26500
2102777;-0.26000
2105555;-0.26000
2108333;-0.27000
2111111;-0.28000
2113888;-0.28000
2116666;-0.27500
2119444;-0.26500
2122222;-0.26000
2124999;-0.26500
2127777;-0.27500
2130555;-0.27000
2133333;-0.26500
2136111;-0.26000
2138888;-0.26500
2141666;-0.26000
2144444;-0.27500
2147222;-0.28000
2149999;-0.27500
2152777;-0.26000
2155555;-0.26500
2158333;-0.27000
2161111;-0.28000
2163888;-0.29000
2166666;-0.28500
2169444;-0.28000
2172222;-0.27500
2174999;-0.28000
2177777;-0.28500
2180555;-0.30500
2183333;-0.30000
2186110;-0.29500
2188888;-0.28000
2191666;-0.29000
2194444;-0.30000
2197222;-0.30500
2199999;-0.29500
2202777;-0.29000
2205555;-0.29500
2208333;-0.29500
2211110;-0.29000
2213888;-0.31500
2216666;-0.30000
2219444;-0.29000
2222222;-0.29000
2224999;-0.29500
2227777;-0.30000
2230555;-0.31000
2233333;-0.30000
2236110;-0.29500
2238888;-0.29500
2241666;-0.29000
2244444;-0.30000
2247222;-0.29500
2249999;-0.28500
2252777;-0.29500
2255555;-0.28500
2258333;-0.28500
2261110;-0.30000
2263888;-0.30000
2266666;-0.29500
2269444;-0.28500
2272222;-0.28500
2274999;-0.28500
2277777;-0.28500
2280555;-0.30000
2283333;-0.29000
2286110;-0.28500
2288888;-0.27500
2291666;-0.29500
2294444;-0.29000
2297222;-0.30500
2299999;-0.29000
2302777;-0.28500
2305555;-0.29000
2308333;-0.28000
2311110;-0.30500
2313888;-0.31000
2316666;-0.27500
2319444;-0.25000
2322222;-0.23500
2324999;-0.22500
2327777;-0.22500
2330555;-0.23500
2333333;-0.22500
2336110;-0.21500
2338888;-0.19500
2341666;-0.19500
2344444;-0.20500
2347222;-0.19500
2349999;-0.19000
2352777;-0.18500
2355555;-0.19000
2358333;-0.18500
2361110;-0.21000
2363888;-0.22000
2366666;-0.21000
2369444;-0.21500
2372222;-0.21000
2374999;-0.21500
2377777;-0.22000
2380555;-0.23000
2383333;-0.21000
2386110;-0.18000
2388888;-0.15500
2391666;-0.14500
2394444;-0.17000
2397222;-0.20000
2399999;-0.23000
2402777;-0.23000
2405555;-0.24500
2408333;-0.23500
2411110;-0.26000
2413888;-0.27500
2416666;-0.28000
2419444;-0.28000
2422222;-0.27000
2424999;-0.28500
2427777;-0.29000
2430555;-0.31500
2433333;-0.30500
2436110;-0.30500
2438888;-0.31000
2441666;-0.30000
2444444;-0.31000
2447222;-0.32000
2449999;-0.31500
2452777;-0.32500
2455555;-0.31000
2458333;-0.32000
2461110;-0.33000
2463888;-0.34000
2466666;-0.32500
2469444;-0.32500
2472222;-0.32000
2474999;-0.32500
2477777;-0.33000
2480555;-0.34000
2483333;-0.34000
2486110;-0.37000
2488888;-0.41000
2491666;-0.43500
2494444;-0.46500
2497222;-0.49000
2499999;-0.53000
2502777;-0.50000
2505555;-0.42000
2508333;-0.26500
2511110;-0.10500
2513888;0.10500
2516666;0.37500
2519444;0.68000
2522222;0.90000
2524999;0.99000
2527777;0.90000
2530555;0.57000
2533333;0.11000
2536110;-0.26000
2538888;-0.43500
2541666;-0.44000
2544444;-0.39000
2547222;-0.35000
2549999;-0.34000
2552777;-0.35000
2555555;-0.34000
2558333;-0.34500
2561110;-0.34000
2563888;-0.35500
2566666;-0.36000
2569444;-0.35000
2572222;-0.35000
2574999;-0.34500
2577777;-0.36500
2580555;-0.37000
2583333;-0.36500
2586110;-0.37000
2588888;-0.36000
2591666;-0.36500
2594444;-0.36500
2597221;-0.37500
2599999;-0.36500
2602777;-0.34000
2605555;-0.35500
2608333;-0.35500
2611110;-0.36000
2613888;-0.37500
2616666;-0.36000
2619444;-0.35500
2622221;-0.34000
2624999;-0.35000
2627777;-0.36000
2630555;-0.36500
2633333;-0.36500
2636110;-0.35500
2638888;-0.34000
2641666;-0.34500
2644444;-0.35000
2647221;-0.36500
2649999;-0.36000
2652777;-0.34500
2655555;-0.34500
2658333;-0.34500
2661110;-0.35000
2663888;-0.36500
2666666;-0.35000
2669444;-0.35500
2672221;-0.34000
2674999;-0.35500
2677777;-0.35500
2680555;-0.36500
2683333;-0.36000
2686110;-0.35500
2688888;-0.34500
2691666;-0.35500
2694444;-0.36500
2697221;-0.37000
2699999;-0.37000
2702777;-0.37000
2705555;-0.34500
2708333;-0.34500
2711110;-0.37000
2713888;-0.37000
2716666;-0.36000
2719444;-0.34000
2722221;-0.33500
2724999;-0.34500
2727777;-0.34000
2730555;-0.35500
2733333;-0.34500
2736110;-0.35500
2738888;-0.35000
2741666;-0.35500
2744444;-0.36000
2747221;-0.36500
2749999;-0.35500
2752777;-0.35000
2755555;-0.34000
2758333;-0.34000
2761110;-0.35000
2763888;-0.36000
2766666;-0.35000
2769444;-0.35000
2772221;-0.35500
2774999;-0.36500
2777777;-0.36000
2780555;-0.37000
2783333;-0.36500
2786110;-0.35500
2788888;-0.35500
2791666;-0.33500
2794444;-0.35000
2797221;-0.35000
2799999;-0.34000
2802777;-0.33500
2805555;-0.31500
2808333;-0.31000
2811110;-0.31000
2813888;-0.30000
2816666;-0.29000
2819444;-0.28000
2822221;-0.26500
2824999;-0.26500
2827777;-0.26500
2830555;-0.27000
2833333;-0.25500
2836110;-0.25000
2838888;-0.24500
2841666;-0.25000
2844444;-0.25000
2847221;-0.25500
2849999;-0.25000
2852777;-0.25000
2855555;-0.24000
2858333;-0.25000
2861110;-0.26000
2863888;-0.25500
2866666;-0.26500
2869444;-0.25000
2872221;-0.23000
2874999;-0.23500
2877777;-0.24500
2880555;-0.26000
2883333;-0.26500
2886110;-0.25000
2888888;-0.24500
2891666;-0.25000
2894444;-0.26000
2897221;-0.26500
2899999;-0.26500
2902777;-0.27000
2905555;-0.26000
2908333;-0.27000
2911110;-0.27500
2913888;-0.29000
2916666;-0.27500
2919444;-0.26500
2922221;-0.26000
2924999;-0.25500
2927777;-0.27000
2930555;-0.28500
2933333;-0.29000
2936110;-0.27000
2938888;-0.27000
2941666;-0.28000
2944444;-0.27500
2947221;-0.29000
2949999;-0.29000
2952777;-0.28000
2955555;-0.28000
2958333;-0.28000
2961110;-0.28500
2963888;-0.31000
2966666;-0.30000
2969444;-0.29500
2972221;-0.28000
2974999;-0.28500
2977777;-0.30500
2980555;-0.31500
2983332;-0.30500
2986110;-0.30500
2988888;-0.29500
2991666;-0.28500
2994444;-0.30500
2997221;-0.32000
2999999;-0.32000
3002777;-0.30000
3005555;-0.30000
3008332;-0.30000
3011110;-0.30500
3013888;-0.31500
3016666;-0.31000
3019444;-0.29500
3022221;-0.27500
3024999;-0.29000
3027777;-0.29500
3030555;-0.31000
3033332;-0.30000
3036110;-0.29500
3038888;-0.29000
3041666;-0.29000
3044444;-0.29500
3047221;-0.31000
3049999;-0.28500
3052777;-0.29000
3055555;-0.29000
3058332;-0.28500
3061110;-0.29500
3063888;-0.30500
3066666;-0.31000
3069444;-0.30000
3072221;-0.28000
3074999;-0.28500
3077777;-0.29500
3080555;-0.30000
3083332;-0.29000
3086110;-0.30000
3088888;-0.27500
3091666;-0.27000
3094444;-0.26500
3097221;-0.26000
3099999;-0.26000
3102777;-0.23500
3105555;-0.20500
3108332;-0.20500
3111110;-0.21500
3113888;-0.23500
3116666;-0.21500
3119444;-0.19500
3122221;-0.18500
3124999;-0.17500
3127777;-0.18000
3130555;-0.18000
3133332;-0.19000
3136110;-0.17500
3138888;-0.17500
3141666;-0.19000
3144444;-0.19500
3147221;-0.21000
3149999;-0.19500
3152777;-0.19000
3155555;-0.19000
3158332;-0.19500
3161110;-0.21000
3163888;-0.21500
3166666;-0.19500
3169444;-0.17000
3172221;-0.17500
3174999;-0.20500
3177777;-0.23000
3180555;-0.24500
3183332;-0.24500
3186110;-0.24500
3188888;-0.26000
3191666;-0.26500
3194444;-0.28500
3197221;-0.29500
3199999;-0.29500
3202777;-0.29500
3205555;-0.30500
3208332;-0.30500
3211110;-0.31500
3213888;-0.31500
3216666;-0.32000
3219444;-0.31500
3222221;-0.30500
3224999;-0.30500
3227777;-0.31500
3230555;-0.32000
3233332;-0.31500
3236110;-0.31500
3238888;-0.29500
3241666;-0.31500
3244444;-0.31000
3247221;-0.32500
3249999;-0.32500
3252777;-0.31500
3255555;-0.30500
3258332;-0.30500
3261110;-0.31500
3263888;-0.33000
3266666;-0.33000
3269444;-0.34000
3272221;-0.36500
3274999;-0.42500
3277777;-0.45000
3280555;-0.47000
3283332;-0.51000
3286110;-0.53500
3288888;-0.49000
3291666;-0.40000
3294444;-0.27000
3297221;-0.11500
3299999;0.09500
3302777;0.37000
3305555;0.64500
3308332;0.83000
3311110;0.87500
3313888;0.76000
3316666;0.46500
3319444;0.07500
3322221;-0.25000
3324999;-0.41500
3327777;-0.44000
3330555;-0.41000
3333332;-0.36500
3336110;-0.34000
3338888;-0.34000
3341666;-0.35000
3344444;-0.34500
3347221;-0.36500
3349999;-0.35500
3352777;-0.36000
3355555;-0.34000
3358332;-0.33000
3361110;-0.34500
3363888;-0.36000
3366666;-0.36000
3369444;-0.34500
3372221;-0.34500
3374999;-0.36000
3377777;-0.35500
3380555;-0.37000
3383332;-0.35500
3386110;-0.35000
3388888;-0.33500
3391666;-0.33500
3394443;-0.34500
3397221;-0.35500
3399999;-0.34000
3402777;-0.34000
3405555;-0.32500
3408332;-0.33500
3411110;-0.35500
3413888;-0.36000
3416666;-0.36000
3419443;-0.34500
3422221;-0.34500
3424999;-0.33500
3427777;-0.34500
3430555;-0.36000
3433332;-0.34500
3436110;-0.33500
3438888;-0.33500
3441666;-0.33000
3444443;-0.35000
3447221;-0.36500
3449999;-0.35000
3452777;-0.34500
3455555;-0.32500
3458332;-0.33500
3461110;-0.34500
3463888;-0.36500
3466666;-0.35500
3469443;-0.35500
3472221;-0.35000
3474999;-0.34500
3477777;-0.34500
3480555;-0.34500
3483332;-0.33500
3486110;-0.33000
3488888;-0.32000
3491666;-0.33000
3494443;-0.32500
3497221;-0.34000
3499999;-0.33000
3502777;-0.33000
3505555;-0.32000
3508332;-0.32500
3511110;-0.34500
3513888;-0.34500
3516666;-0.34500
3519443;-0.34500
3522221;-0.32500
3524999;-0.34000
3527777;-0.33500
3530555;-0.34500
3533332;-0.33500
3536110;-0.33500
3538888;-0.34000
3541666;-0.32500
3544443;-0.34000
3547221;-0.35000
3549999;-0.35500
3552777;-0.34500
3555555;-0.33500
3558332;-0.33500
3561110;-0.34500
3563888;-0.35500
3566666;-0.35500
3569443;-0.35000
3572221;-0.33500
3574999;-0.34500
3577777;-0.35000
3580555;-0.37000
3583332;-0.36000
3586110;-0.35000
3588888;-0.33500
3591666;-0.33000
3594443;-0.34000
3597221;-0.34500
3599999;-0.33000
3602777;-0.32000
3605555;-0.31000
3608332;-0.30000
3611110;-0.30500
3613888;-0.29500
3616666;-0.28500
3619443;-0.27500
3622221;-0.27500
3624999;-0.26000
3627777;-0.26500
3630555;-0.28000
3633332;-0.27000
3636110;-0.26000
3638888;-0.25000
3641666;-0.25500
3644443;-0.25500
3647221;-0.26000
3649999;-0.26000
3652777;-0.25000
3655555;-0.24000
3658332;-0.25500
3661110;-0.25500
3663888;-0.27000
3666666;-0.26000
3669443;-0.25500
3672221;-0.25500
3674999;-0.24500
3677777;-0.25000
3680555;-0.26500
3683332;-0.26500
3686110;-0.24500
3688888;-0.25500
3691666;-0.25500
3694443;-0.25500
3697221;-0.26500
3699999;-0.26500
3702777;-0.26000
3705555;-0.26000
3708332;-0.25500
3711110;-0.27000
3713888;-0.28000
3716666;-0.28500
3719443;-0.27000
3722221;-0.25500
3724999;-0.26000
3727777;-0.27500
3730555;-0.29500
3733332;-0.29500
3736110;-0.28000
3738888;-0.28500
3741666;-0.27000
3744443;-0.29000
3747221;-0.29000
3749999;-0.28500
3752777;-0.29000
3755555;-0.28500
3758332;-0.29000
3761110;-0.30500
3763888;-0.31000
3766666;-0.29000
3769443;-0.29000
3772221;-0.29500
3774999;-0.30000
3777777;-0.31500
3780554;-0.32000
3783332;-0.31500
3786110;-0.30500
3788888;-0.29500
3791666;-0.29000
3794443;-0.30000
3797221;-0.30500
3799999;-0.31000
3802777;-0.29000
3805554;-0.29000
3808332;-0.29500
3811110;-0.31000
3813888;-0.32000
3816666;-0.32000
3819443;-0.31500
3822221;-0.31000
3824999;-0.29500
3827777;-0.29500
3830554;-0.31000
3833332;-0.31000
3836110;-0.30000
3838888;-0.29500
3841666;-0.28500
3844443;-0.29000
3847221;-0.31000
3849999;-0.30500
3852777;-0.30000
3855554;-0.28000
3858332;-0.30000
3861110;-0.31000
3863888;-0.32000
3866666;-0.31500
3869443;-0.30500
3872221;-0.30000
3874999;-0.31000
3877777;-0.30000
3880554;-0.30500
3883332;-0.29000
3886110;-0.28500
3888888;-0.26000
3891666;-0.25500
3894443;-0.25000
3897221;-0.25500
3899999;-0.24500
3902777;-0.24000
3905554;-0.23000
3908332;-0.22000
3911110;-0.22500
3913888;-0.22000
3916666;-0.21000
3919443;-0.20000
3922221;-0.19000
3924999;-0.19500
3927777;-0.20500
3930554;-0.23000
3933332;-0.21000
3936110;-0.20000
3938888;-0.20500
3941666;-0.21500
3944443;-0.21500
3947221;-0.22500
3949999;-0.22500
3952777;-0.22500
3955554;-0.21000
3958332;-0.21000
3961110;-0.20000
3963888;-0.20000
3966666;-0.22000
3969443;-0.22000
3972221;-0.23000
3974999;-0.24000
3977777;-0.25500
3980554;-0.27000
3983332;-0.28000
3986110;-0.28000
3988888;-0.28500
3991666;-0.30000
3994443;-0.31000
3997221;-0.32000
3999999;-0.31000
4002777;-0.31500
4005554;-0.32000
4008332;-0.31000
4011110;-0.32000
4013888;-0.33000
4016666;-0.33000
4019443;-0.32500
4022221;-0.31500
4024999;-0.32000
4027777;-0.32000
4030554;-0.33500
4033332;-0.34500
4036110;-0.33500
4038888;-0.32000
4041666;-0.33500
4044443;-0.33500
4047221;-0.35000
4049999;-0.34000
4052777;-0.33000
4055554;-0.32500
4058332;-0.34000
4061110;-0.33000
4063888;-0.35500
4066666;-0.34500
4069443;-0.34500
4072221;-0.36500
4074999;-0.39000
4077777;-0.42500
4080554;-0.44500
4083332;-0.48500
4086110;-0.53000
4088888;-0.54500
4091666;-0.51000
4094443;-0.43000
4097221;-0.31000
4099999;-0.18000
4102777;-0.01500
4105554;0.21000
4108332;0.46000
4111110;0.68500
4113888;0.82500
4116666;0.88500
4119443;0.78500
4122221;0.51500
4124999;0.17000
4127777;-0.15500
4130554;-0.35000
4133332;-0.43500
4136110;-0.45500
4138888;-0.42500
4141666;-0.39000
4144443;-0.38000
4147221;-0.36500
4149999;-0.37000
4152777;-0.37000
4155554;-0.35000
4158332;-0.35500
4161110;-0.37000
4163888;-0.37500
4166666;-0.38500
4169443;-0.36500
4172221;-0.36500
4174999;-0.36500
4177777;-0.37500
4180554;-0.36500
4183332;-0.37000
4186110;-0.36000
4188888;-0.36000
4191665;-0.37000
4194443;-0.37500
4197221;-0.38000
4199999;-0.36500
4202777;-0.37000
4205554;-0.34500
4208332;-0.35000
4211110;-0.35500
4213888;-0.37000
4216665;-0.37000
4219443;-0.36500
4222221;-0.36000
4224999;-0.36000
4227777;-0.35500
4230554;-0.36000
4233332;-0.36500
4236110;-0.35500
4238888;-0.36500
4241665;-0.37000
4244443;-0.37500
4247221;-0.37000
4249999;-0.37000
4252777;-0.35500
4255554;-0.34500
4258332;-0.36000
4261110;-0.36500
4263888;-0.37500
4266665;-0.37000
4269443;-0.37000
4272221;-0.37000
4274999;-0.37500
4277777;-0.37500
4280554;-0.38000
4283332;-0.37500
4286110;-0.37000
4288888;-0.36000
4291665;-0.36500
4294443;-0.37500
4297221;-0.38000
4299999;-0.36500
4302777;-0.35500
4305554;-0.35500
4308332;-0.36000
4311110;-0.36500
4313888;-0.37500
4316665;-0.36500
4319443;-0.36500
4322221;-0.35000
4324999;-0.34500
4327777;-0.35000
4330554;-0.37000
4333332;-0.37000
4336110;-0.36000
4338888;-0.34500
4341665;-0.34000
4344443;-0.35000
4347221;-0.37000
4349999;-0.36000
4352777;-0.35500
4355554;-0.35500
4358332;-0.36000
4361110;-0.37000
4363888;-0.39000
4366665;-0.38500
4369443;-0.38000
4372221;-0.37500
4374999;-0.38500
4377777;-0.41000
4380554;-0.41500
4383332;-0.40500
4386110;-0.40000
4388888;-0.40000
4391665;-0.39500
4394443;-0.40000
4397221;-0.42000
4399999;-0.42000
4402777;-0.41500
4405554;-0.42000
4408332;-0.42000
4411110;-0.43000
4413888;-0.43500
4416665;-0.41500
4419443;-0.40500
4422221;-0.39000
4424999;-0.37500
4427777;-0.38500
4430554;-0.37500
4433332;-0.36500
4436110;-0.34500
4438888;-0.33500
4441665;-0.32500
4444443;-0.32500
4447221;-0.32000
4449999;-0.30500
4452777;-0.29000
4455554;-0.28000
4458332;-0.28500
4461110;-0.28500
4463888;-0.28000
4466665;-0.28500
4469443;-0.27000
4472221;-0.26000
4474999;-0.26500
4477777;-0.27000
4480554;-0.28000
4483332;-0.28000
4486110;-0.26500
4488888;-0.26500
4491665;-0.26500
4494443;-0.25500
4497221;-0.27500
4499999;-0.27000
4502777;-0.26500
4505554;-0.25500
4508332;-0.26500
4511110;-0.27000
4513888;-0.28000
4516665;-0.28500
4519443;-0.27000
4522221;-0.26000
4524999;-0.26500
4527777;-0.27500
4530554;-0.28500
4533332;-0.27500
4536110;-0.27000
4538888;-0.27000
4541665;-0.26500
4544443;-0.27500
4547221;-0.29500
4549999;-0.29000
4552777;-0.28000
4555554;-0.27000
4558332;-0.27500
4561110;-0.28000
4563888;-0.30000
4566665;-0.29000
4569443;-0.28000
4572221;-0.28500
4574999;-0.28500
4577776;-0.28500
4580554;-0.29500
4583332;-0.30000
4586110;-0.29500
4588888;-0.29000
4591665;-0.29000
4594443;-0.30000
4597221;-0.30500
4599999;-0.30500
4602776;-0.29500
4605554;-0.30500
4608332;-0.29500
4611110;-0.30500
4613888;-0.31000
4616665;-0.32000
4619443;-0.30000
4622221;-0.29500
4624999;-0.30000
4627776;-0.30500
4630554;-0.31000
4633332;-0.31000
4636110;-0.30000
4638888;-0.30000
4641665;-0.29500
4644443;-0.30000
4647221;-0.31000
4649999;-0.30500
4652776;-0.30000
4655554;-0.30000
4658332;-0.29500
4661110;-0.30500
4663888;-0.31500
4666665;-0.31000
4669443;-0.30500
4672221;-0.30000
4674999;-0.28500
4677776;-0.29500
4680554;-0.31500
4683332;-0.30000
4686110;-0.30500
4688888;-0.29500
4691665;-0.29500
4694443;-0.30500
4697221;-0.31000
4699999;-0.30000
4702776;-0.29500
4705554;-0.28000
4708332;-0.29000
4711110;-0.29000
4713888;-0.30500
4716665;-0.29500
4719443;-0.30000
4722221;-0.28500
4724999;-0.27500
4727776;-0.27500
4730554;-0.27000
4733332;-0.26500
4736110;-0.23500
4738888;-0.22500
4741665;-0.23000
4744443;-0.23500
4747221;-0.24500
4749999;-0.24000
4752776;-0.23000
4755554;-0.20500
4758332;-0.21500
4761110;-0.20000
4763888;-0.20000
4766665;-0.18500
4769443;-0.19000
4772221;-0.18500
4774999;-0.19500
4777776;-0.20000
4780554;-0.21500
4783332;-0.22000
4786110;-0.21500
4788888;-0.19500
4791665;-0.19500
4794443;-0.21500
4797221;-0.22000
4799999;-0.22500
4802776;-0.19500
4805554;-0.17000
4808332;-0.17500
4811110;-0.20000
4813888;-0.23500
4816665;-0.25000
4819443;-0.25000
4822221;-0.26000
4824999;-0.27000
4827776;-0.29500
4830554;-0.30500
4833332;-0.30000
4836110;-0.29000
4838888;-0.28500
4841665;-0.29000
4844443;-0.31000
4847221;-0.33000
4849999;-0.32000
4852776;-0.32000
4855554;-0.31500
4858332;-0.31000
4861110;-0.33000
4863888;-0.32500
4866665;-0.31500
4869443;-0.32000
4872221;-0.30500
4874999;-0.31500
4877776;-0.32500
4880554;-0.34500
4883332;-0.33500
4886110;-0.33000
4888888;-0.31000
4891665;-0.32000
4894443;-0.33500
4897221;-0.33500
4899999;-0.34000
4902776;-0.33000
4905554;-0.32000
4908332;-0.32000
4911110;-0.33500
4913888;-0.37000
4916665;-0.40500
4919443;-0.44000
4922221;-0.43500
4924999;-0.47000
4927776;-0.52000
4930554;-0.54500
4933332;-0.50000
4936110;-0.38500
4938888;-0.23500
4941665;-0.09000
4944443;0.08500
4947221;0.31500
4949999;0.58500
4952776;0.79000
4955554;0.90500
4958332;0.92500
4961110;0.77000
4963887;0.44000
4966665;0.04500
4969443;-0.26500
4972221;-0.41000
4974999;-0.47000
4977776;-0.44500
4980554;-0.41500
4983332;-0.37500
4986110;-0.35500
4988887;-0.35500
4991665;-0.35500
4994443;-0.36000
4997221;-0.36500
4999999;-0.36500
5002776;-0.36000
5005554;-0.35000
5008332;-0.34500
5011110;-0.36000
5013887;-0.38000
5016665;-0.38000
5019443;-0.37500
5022221;-0.36000
5024999;-0.37000
5027776;-0.37000
5030554;-0.38500
5033332;-0.37000
5036110;-0.36500
5038887;-0.37000
5041665;-0.35500
5044443;-0.37000
5047221;-0.38000
5049999;-0.37000
5052776;-0.36000
5055554;-0.35000
5058332;-0.35000
5061110;-0.36500
5063887;-0.37000
5066665;-0.37000
5069443;-0.35500
5072221;-0.36000
5074999;-0.35500
5077776;-0.37000
5080554;-0.37500
5083332;-0.36500
5086110;-0.36000
5088887;-0.36000
5091665;-0.35000
5094443;-0.36500
5097221;-0.37500
5099999;-0.36500
5102776;-0.35500
5105554;-0.36000
5108332;-0.35500
5111110;-0.36500
5113887;-0.37000
5116665;-0.36500
5119443;-0.35500
5122221;-0.34500
5124999;-0.34000
5127776;-0.35500
5130554;-0.36000
5133332;-0.37500
5136110;-0.36500
5138887;-0.34500
5141665;-0.36000
5144443;-0.36500
5147221;-0.36500
5149999;-0.36500
5152776;-0.36000
5155554;-0.35500
5158332;-0.35500
5161110;-0.34500
5163887;-0.36500
5166665;-0.35000
5169443;-0.35500
5172221;-0.34500
5174999;-0.34000
5177776;-0.35000
5180554;-0.36000
5183332;-0.36000
5186110;-0.35000
5188887;-0.34500
5191665;-0.35000
5194443;-0.35500
5197221;-0.36500
5199999;-0.37000
5202776;-0.36500
5205554;-0.36000
5208332;-0.36000
5211110;-0.38000
5213887;-0.39000
5216665;-0.40500
5219443;-0.38500
5222221;-0.37500
5224999;-0.37500
5227776;-0.38500
5230554;-0.39000
5233332;-0.39000
5236110;-0.38500
5238887;-0.37000
5241665;-0.38000
5244443;-0.38500
5247221;-0.38500
5249999;-0.38000
5252776;-0.37000
5255554;-0.36500
5258332;-0.36500
5261110;-0.36500
5263887;-0.35000
5266665;-0.34500
5269443;-0.33000
5272221;-0.31000
5274999;-0.30000
5277776;-0.30000
5280554;-0.30500
5283332;-0.29000
5286110;-0.27500
5288887;-0.26000
5291665;-0.25500
5294443;-0.26000
5297221;-0.28000
5299999;-0.26000
5302776;-0.24500
5305554;-0.23500
5308332;-0.23000
5311110;-0.23500
5313887;-0.24500
5316665;-0.24000
5319443;-0.22500
5322221;-0.23000
5324999;-0.22500
5327776;-0.23000
5330554;-0.24000
5333332;-0.24000
5336110;-0.23000
5338887;-0.22500
5341665;-0.23000
5344443;-0.24000
5347221;-0.24500
5349999;-0.23500
5352776;-0.23000
5355554;-0.22500
5358332;-0.23000
5361110;-0.23500
5363887;-0.25500
5366665;-0.26000
5369443;-0.24500
5372221;-0.24000
5374998;-0.23500
5377776;-0.24000
5380554;-0.25000
5383332;-0.24000
5386110;-0.23500
5388887;-0.23000
5391665;-0.23500
5394443;-0.25500
5397221;-0.26000
5399998;-0.26000
5402776;-0.25000
5405554;-0.24000
5408332;-0.24500
5411110;-0.25000
5413887;-0.26500
5416665;-0.26500
5419443;-0.25000
5422221;-0.24000
5424998;-0.26000
5427776;-0.26500
5430554;-0.28000
5433332;-0.27000
5436110;-0.27000
5438887;-0.25500
5441665;-0.26500
5444443;-0.26500
5447221;-0.29000
5449998;-0.28000
5452776;-0.27000
5455554;-0.26500
5458332;-0.26500
5461110;-0.27000
5463887;-0.27500
5466665;-0.27000
5469443;-0.26500
5472221;-0.27500
5474998;-0.28000
5477776;-0.28500
5480554;-0.28500
5483332;-0.29500
5486110;-0.28000
5488887;-0.27500
5491665;-0.26000
5494443;-0.27500
5497221;-0.29000
5499998;-0.29000
5502776;-0.28000
5505554;-0.27000
5508332;-0.26500
5511110;-0.27500
5513887;-0.29000
5516665;-0.28500
5519443;-0.27500
5522221;-0.27000
5524998;-0.28000
5527776;-0.27500
5530554;-0.27500
5533332;-0.27500
5536110;-0.27000
5538887;-0.25500
5541665;-0.25500
5544443;-0.25500
5547221;-0.27500
5549998;-0.28500
5552776;-0.26500
5555554;-0.25000
5558332;-0.26000
5561110;-0.26000
5563887;-0.26500
5566665;-0.23500
5569443;-0.22000
5572221;-0.20000
5574998;-0.20500
5577776;-0.20000
5580554;-0.21500
5583332;-0.20000
5586110;-0.20000
5588887;-0.18500
5591665;-0.17000
5594443;-0.16500
5597221;-0.15500
5599998;-0.16500
5602776;-0.15500
5605554;-0.15000
5608332;-0.16000
5611110;-0.16000
5613887;-0.17500
5616665;-0.18000
5619443;-0.18000
5622221;-0.17500
5624998;-0.17500
5627776;-0.18000
5630554;-0.19500
5633332;-0.19000
5636110;-0.19000
5638887;-0.18000
