time_ms;ecg_value
0;1.01000
2778;1.03000
5556;0.88000
8333;0.58000
11111;0.21000
13889;-0.12500
16667;-0.37000
19444;-0.47500
22222;-0.53500
25000;-0.51500
27778;-0.47000
30556;-0.43000
33333;-0.39500
36111;-0.39000
38889;-0.40000
41667;-0.39000
44444;-0.38000
47222;-0.37000
50000;-0.38000
52778;-0.39000
55556;-0.39500
58333;-0.38500
61111;-0.37500
63889;-0.35500
66667;-0.37500
69444;-0.38500
72222;-0.40000
75000;-0.39500
77778;-0.37500
80556;-0.39000
83333;-0.39000
86111;-0.41000
88889;-0.41500
91667;-0.39500
94444;-0.38500
97222;-0.39000
100000;-0.40500
102778;-0.40000
105556;-0.40000
108333;-0.38500
111111;-0.38000
113889;-0.38000
116667;-0.39000
119444;-0.40000
122222;-0.40500
125000;-0.40000
127778;-0.38000
130556;-0.38500
133333;-0.38000
136111;-0.39000
138889;-0.40500
141667;-0.39000
144444;-0.37500
147222;-0.38500
150000;-0.40000
152778;-0.40000
155556;-0.41000
158333;-0.40500
161111;-0.39500
163889;-0.38500
166667;-0.39500
169444;-0.39000
172222;-0.40000
175000;-0.38500
177778;-0.38500
180556;-0.38000
183333;-0.39000
186111;-0.40000
188889;-0.40000
191667;-0.39000
194444;-0.39000
197222;-0.38000
200000;-0.38500
202778;-0.39000
205555;-0.39500
208333;-0.38500
211111;-0.38000
213889;-0.37500
216667;-0.38000
219444;-0.39500
222222;-0.41000
225000;-0.40000
227778;-0.40000
230555;-0.39000
233333;-0.43000
236111;-0.43000
238889;-0.44000
241667;-0.42000
244444;-0.41500
247222;-0.40500
250000;-0.41500
252778;-0.42500
255555;-0.43000
258333;-0.42000
261111;-0.41000
263889;-0.41000
266667;-0.41000
269444;-0.42500
272222;-0.44000
275000;-0.43000
277778;-0.40500
280555;-0.41500
283333;-0.41000
286111;-0.42500
288889;-0.41500
291667;-0.40500
294444;-0.38500
297222;-0.38500
300000;-0.36500
302778;-0.36500
305555;-0.34000
308333;-0.33500
311111;-0.31000
313889;-0.30000
316667;-0.29500
319444;-0.29500
322222;-0.30000
325000;-0.29000
327778;-0.27500
330555;-0.27500
333333;-0.26500
336111;-0.26500
338889;-0.26500
341667;-0.26500
344444;-0.25500
347222;-0.25000
350000;-0.26000
352778;-0.27500
355555;-0.28000
358333;-0.25500
361111;-0.25000
363889;-0.24500
366667;-0.26000
369444;-0.26500
372222;-0.27000
375000;-0.26500
377778;-0.25000
380555;-0.25500
383333;-0.24500
386111;-0.26000
388889;-0.25000
391667;-0.24500
394444;-0.21000
397222;-0.20000
400000;-0.18500
402778;-0.18500
405555;-0.18000
408333;-0.18000
411111;-0.17000
413889;-0.16000
416667;-0.16500
419444;-0.17000
422222;-0.18500
425000;-0.17500
427778;-0.15500
430555;-0.13500
433333;-0.14500
436111;-0.16000
438889;-0.18500
441667;-0.19000
444444;-0.18500
447222;-0.21000
450000;-0.22500
452778;-0.24000
455555;-0.26000
458333;-0.25500
461111;-0.26500
463889;-0.26500
466667;-0.28000
469444;-0.28500
472222;-0.30500
475000;-0.30500
477778;-0.30500
480555;-0.31500
483333;-0.32000
486111;-0.34000
488889;-0.34500
491667;-0.34000
494444;-0.33000
497222;-0.33500
500000;-0.35000
502778;-0.36000
505555;-0.36000
508333;-0.33500
511111;-0.34500
513889;-0.35500
516667;-0.35000
519444;-0.36500
522222;-0.36500
525000;-0.34500
527778;-0.34000
530555;-0.34000
533333;-0.35000
536111;-0.36000
538889;-0.34500
541667;-0.33000
544444;-0.33000
547222;-0.32000
550000;-0.32000
552778;-0.34500
555555;-0.36500
558333;-0.38500
561111;-0.42000
563889;-0.46000
566667;-0.49500
569444;-0.54500
572222;-0.57500
575000;-0.56000
577778;-0.46500
580555;-0.29500
583333;-0.09000
586111;0.11500
588889;0.37000
591667;0.67000
594444;0.95000
597222;1.11000
600000;1.13500
602778;0.96000
605555;0.54000
608333;0.04500
611111;-0.31000
613889;-0.42000
616666;-0.39000
619444;-0.34500
622222;-0.34500
625000;-0.33500
627778;-0.34000
630555;-0.34000
633333;-0.34000
636111;-0.35500
638889;-0.37000
641666;-0.36000
644444;-0.35500
647222;-0.35000
650000;-0.36000
652778;-0.36500
655555;-0.38000
658333;-0.37000
661111;-0.36500
663889;-0.37000
666666;-0.37500
669444;-0.38000
672222;-0.40000
675000;-0.39000
677778;-0.37500
680555;-0.37500
683333;-0.38000
686111;-0.39000
688889;-0.39000
691666;-0.38000
694444;-0.37500
697222;-0.37000
700000;-0.37000
702778;-0.38500
705555;-0.39000
708333;-0.38000
711111;-0.36500
713889;-0.36500
716666;-0.37500
719444;-0.37500
722222;-0.37500
725000;-0.37000
727778;-0.36500
730555;-0.36500
733333;-0.38000
736111;-0.39000
738889;-0.41000
741666;-0.41000
744444;-0.38500
747222;-0.38500
750000;-0.39000
752778;-0.40000
755555;-0.40000
758333;-0.40500
761111;-0.39500
763889;-0.38500
766666;-0.39500
769444;-0.39000
772222;-0.39500
775000;-0.40000
777778;-0.38500
780555;-0.38000
783333;-0.38500
786111;-0.38500
788889;-0.39500
791666;-0.39000
794444;-0.38000
797222;-0.39000
800000;-0.39500
802778;-0.39500
805555;-0.40000
808333;-0.39500
811111;-0.38500
813889;-0.38500
816666;-0.40000
819444;-0.40000
822222;-0.41500
825000;-0.41000
827778;-0.40500
830555;-0.41000
833333;-0.41000
836111;-0.41500
838889;-0.42500
841666;-0.42000
844444;-0.40500
847222;-0.41000
850000;-0.40500
852778;-0.42000
855555;-0.43500
858333;-0.41500
861111;-0.41000
863889;-0.39500
866666;-0.41500
869444;-0.41500
872222;-0.41000
875000;-0.39500
877778;-0.37500
880555;-0.37000
883333;-0.36000
886111;-0.35500
888889;-0.35500
891666;-0.34500
894444;-0.33000
897222;-0.32000
900000;-0.30500
902778;-0.31000
905555;-0.30500
908333;-0.29500
911111;-0.29000
913889;-0.27500
916666;-0.28500
919444;-0.29500
922222;-0.28500
925000;-0.28500
927778;-0.28000
930555;-0.27500
933333;-0.29000
936111;-0.29000
938889;-0.29000
941666;-0.28000
944444;-0.28500
947222;-0.28500
950000;-0.29000
952778;-0.30000
955555;-0.30000
958333;-0.30000
961111;-0.29000
963889;-0.29000
966666;-0.31000
969444;-0.32000
972222;-0.32500
975000;-0.30500
977778;-0.29500
980555;-0.29500
983333;-0.30000
986111;-0.31500
988889;-0.32500
991666;-0.31500
994444;-0.30500
997222;-0.30500
1000000;-0.30500
1002777;-0.32000
1005555;-0.32500
1008333;-0.32000
1011111;-0.31500
1013889;-0.31500
1016666;-0.33000
1019444;-0.34000
1022222;-0.35000
1025000;-0.34000
1027777;-0.32500
1030555;-0.32500
1033333;-0.34000
1036111;-0.34000
1038889;-0.35000
1041666;-0.34000
1044444;-0.34000
1047222;-0.32500
1050000;-0.32500
1052777;-0.33500
1055555;-0.35000
1058333;-0.33500
1061111;-0.32500
1063889;-0.31500
1066666;-0.33500
1069444;-0.33500
1072222;-0.34500
1075000;-0.34000
1077777;-0.33500
1080555;-0.32500
1083333;-0.34000
1086111;-0.34500
1088889;-0.34000
1091666;-0.34000
1094444;-0.34000
1097222;-0.32500
1100000;-0.32500
1102777;-0.33000
1105555;-0.33000
1108333;-0.33000
1111111;-0.32000
1113889;-0.32000
1116666;-0.32000
1119444;-0.33000
1122222;-0.33000
1125000;-0.32000
1127777;-0.31500
1130555;-0.31000
1133333;-0.31000
1136111;-0.30500
1138889;-0.33000
1141666;-0.31500
1144444;-0.31000
1147222;-0.30000
1150000;-0.31000
1152777;-0.32000
1155555;-0.33000
1158333;-0.32500
1161111;-0.31000
1163889;-0.31000
1166666;-0.31000
1169444;-0.31500
1172222;-0.32000
1175000;-0.32000
1177777;-0.31500
1180555;-0.30000
1183333;-0.30000
1186111;-0.31000
1188889;-0.31500
1191666;-0.30500
1194444;-0.30000
1197222;-0.30500
1200000;-0.31000
1202777;-0.31000
1205555;-0.31500
1208333;-0.31000
1211111;-0.30500
1213889;-0.31000
1216666;-0.31000
1219444;-0.32500
1222222;-0.32000
1225000;-0.32500
1227777;-0.31000
1230555;-0.30000
1233333;-0.31000
1236111;-0.31500
1238889;-0.31500
1241666;-0.31500
1244444;-0.31500
1247222;-0.30500
1250000;-0.30000
1252777;-0.31000
1255555;-0.30000
1258333;-0.30000
1261111;-0.29500
1263889;-0.29500
1266666;-0.30000
1269444;-0.31500
1272222;-0.31500
1275000;-0.31500
1277777;-0.30500
1280555;-0.30000
1283333;-0.31000
1286111;-0.31500
1288889;-0.32500
1291666;-0.31000
1294444;-0.32000
1297222;-0.30500
1300000;-0.30500
1302777;-0.31000
1305555;-0.31500
1308333;-0.30000
1311111;-0.29500
1313889;-0.29000
1316666;-0.30500
1319444;-0.31500
1322222;-0.32000
1325000;-0.31000
1327777;-0.30000
1330555;-0.30000
1333333;-0.30500
1336111;-0.30500
1338889;-0.31000
1341666;-0.29000
1344444;-0.27500
1347222;-0.26000
1350000;-0.25500
1352777;-0.27000
1355555;-0.26500
1358333;-0.26500
1361111;-0.26500
1363889;-0.25000
1366666;-0.24000
1369444;-0.24000
1372222;-0.23000
1375000;-0.22000
1377777;-0.21500
1380555;-0.20500
1383333;-0.20500
1386111;-0.21500
1388888;-0.21500
1391666;-0.21500
1394444;-0.21500
1397222;-0.22000
1400000;-0.22500
1402777;-0.24000
1405555;-0.23500
1408333;-0.22000
1411111;-0.20500
1413888;-0.21000
1416666;-0.22000
1419444;-0.24000
1422222;-0.24500
1425000;-0.23500
1427777;-0.23000
1430555;-0.20500
1433333;-0.20500
1436111;-0.22000
1438888;-0.26000
1441666;-0.27500
1444444;-0.28500
1447222;-0.29000
1450000;-0.30000
1452777;-0.31500
1455555;-0.33000
1458333;-0.33500
1461111;-0.33000
1463888;-0.32500
1466666;-0.32000
1469444;-0.33000
1472222;-0.33500
1475000;-0.33500
1477777;-0.32500
1480555;-0.33500
1483333;-0.33000
1486111;-0.34500
1488888;-0.35000
1491666;-0.33500
1494444;-0.34000
1497222;-0.33500
1500000;-0.34500
1502777;-0.35000
1505555;-0.36000
1508333;-0.36000
1511111;-0.35500
1513888;-0.36000
1516666;-0.37500
1519444;-0.40000
1522222;-0.44500
1525000;-0.46500
1527777;-0.47500
1530555;-0.49500
1533333;-0.52500
1536111;-0.49500
1538888;-0.40500
1541666;-0.23500
1544444;-0.07000
1547222;0.14000
1550000;0.39000
1552777;0.65500
1555555;0.87500
1558333;1.00000
1561111;0.99500
1563888;0.77000
1566666;0.34000
1569444;-0.10000
1572222;-0.39500
1575000;-0.47000
1577777;-0.43500
1580555;-0.38000
1583333;-0.35500
1586111;-0.36000
1588888;-0.38000
1591666;-0.38500
1594444;-0.37000
1597222;-0.36500
1600000;-0.36500
1602777;-0.37000
1605555;-0.38000
1608333;-0.37000
1611111;-0.37000
1613888;-0.38000
1616666;-0.39000
1619444;-0.39500
1622222;-0.41500
1625000;-0.40000
1627777;-0.40500
1630555;-0.40500
1633333;-0.42500
1636111;-0.42500
1638888;-0.42500
1641666;-0.42000
1644444;-0.41000
1647222;-0.40500
1650000;-0.40500
1652777;-0.41000
1655555;-0.40000
1658333;-0.39500
1661111;-0.38500
1663888;-0.38500
1666666;-0.40000
1669444;-0.41000
1672222;-0.42500
1675000;-0.41500
1677777;-0.40000
1680555;-0.39500
1683333;-0.40500
1686111;-0.40500
1688888;-0.41000
1691666;-0.40500
1694444;-0.38000
1697222;-0.38500
1700000;-0.40500
1702777;-0.40000
1705555;-0.41500
1708333;-0.40000
1711111;-0.40000
1713888;-0.39500
1716666;-0.40000
1719444;-0.41000
1722222;-0.41000
1725000;-0.41000
1727777;-0.40000
1730555;-0.39500
1733333;-0.41500
1736111;-0.39500
1738888;-0.41500
1741666;-0.40500
1744444;-0.39000
1747222;-0.39500
1750000;-0.39000
1752777;-0.39000
1755555;-0.39000
1758333;-0.39500
1761111;-0.39000
1763888;-0.38500
1766666;-0.38000
1769444;-0.39000
1772222;-0.40500
1775000;-0.38500
1777777;-0.38500
1780555;-0.38500
1783333;-0.39500
1786111;-0.41500
1788888;-0.41000
1791666;-0.41000
1794444;-0.40000
1797222;-0.39500
1799999;-0.40000
1802777;-0.41500
1805555;-0.43000
1808333;-0.41500
1811111;-0.42000
1813888;-0.41500
1816666;-0.41000
1819444;-0.42000
1822222;-0.41500
1824999;-0.39500
1827777;-0.39000
1830555;-0.39000
1833333;-0.40000
1836111;-0.40000
1838888;-0.40000
1841666;-0.39000
1844444;-0.38500
1847222;-0.36500
1849999;-0.36000
1852777;-0.36500
1855555;-0.36500
1858333;-0.33500
1861111;-0.32500
1863888;-0.31500
1866666;-0.31500
1869444;-0.31500
1872222;-0.31500
1874999;-0.31500
1877777;-0.30000
1880555;-0.30500
1883333;-0.31500
1886111;-0.31000
1888888;-0.30500
1891666;-0.29000
1894444;-0.27500
1897222;-0.26000
1899999;-0.27500
1902777;-0.26500
1905555;-0.27500
1908333;-0.26000
1911111;-0.26000
1913888;-0.25000
1916666;-0.25500
1919444;-0.26500
1922222;-0.28000
1924999;-0.27500
1927777;-0.26500
1930555;-0.26000
1933333;-0.26500
1936111;-0.28500
1938888;-0.29500
1941666;-0.27000
1944444;-0.26000
1947222;-0.26000
1949999;-0.26000
1952777;-0.27000
1955555;-0.29000
1958333;-0.29000
1961111;-0.27500
1963888;-0.27000
1966666;-0.27500
1969444;-0.29000
1972222;-0.30000
1974999;-0.29500
1977777;-0.29000
1980555;-0.28000
1983333;-0.28000
1986111;-0.28500
1988888;-0.30000
1991666;-0.29500
1994444;-0.30000
1997222;-0.29000
1999999;-0.29500
2002777;-0.30000
2005555;-0.30000
2008333;-0.30500
2011111;-0.30500
2013888;-0.31000
2016666;-0.32500
2019444;-0.33500
2022222;-0.34000
2024999;-0.33000
2027777;-0.31500
2030555;-0.32000
2033333;-0.32000
2036111;-0.33000
2038888;-0.34500
2041666;-0.33000
2044444;-0.33500
2047222;-0.34000
2049999;-0.33500
2052777;-0.34000
2055555;-0.34000
2058333;-0.33000
2061111;-0.33000
2063888;-0.32000
2066666;-0.33000
2069444;-0.34500
2072222;-0.35000
2074999;-0.35000
2077777;-0.33500
2080555;-0.33000
2083333;-0.33500
2086111;-0.35000
2088888;-0.35500
2091666;-0.34500
2094444;-0.34500
2097222;-0.35000
2099999;-0.36500
2102777;-0.36000
2105555;-0.35500
2108333;-0.35500
2111111;-0.34000
2113888;-0.34000
2116666;-0.34500
2119444;-0.35500
2122222;-0.35500
2124999;-0.35000
2127777;-0.35000
2130555;-0.34500
2133333;-0.34000
2136111;-0.34000
2138888;-0.34000
2141666;-0.32000
2144444;-0.31500
2147222;-0.32500
2149999;-0.32500
2152777;-0.33500
2155555;-0.32500
2158333;-0.29500
2161111;-0.29000
2163888;-0.28500
2166666;-0.27500
2169444;-0.28000
2172222;-0.28500
2174999;-0.29000
2177777;-0.28500
2180555;-0.26500
2183333;-0.25500
2186110;-0.26500
2188888;-0.26500
2191666;-0.24000
2194444;-0.23500
2197222;-0.24000
2199999;-0.25500
2202777;-0.27000
2205555;-0.25500
2208333;-0.24500
2211110;-0.24000
2213888;-0.24000
2216666;-0.26000
2219444;-0.26000
2222222;-0.25500
2224999;-0.25500
2227777;-0.25500
2230555;-0.26000
2233333;-0.26500
2236110;-0.25500
2238888;-0.26500
2241666;-0.25500
2244444;-0.25000
2247222;-0.27500
2249999;-0.29500
2252777;-0.32000
2255555;-0.34000
2258333;-0.34500
2261110;-0.35500
2263888;-0.36000
2266666;-0.37500
2269444;-0.38000
2272222;-0.38500
2274999;-0.38500
2277777;-0.37000
2280555;-0.36500
2283333;-0.37000
2286110;-0.38500
2288888;-0.37500
2291666;-0.36500
2294444;-0.35500
2297222;-0.36000
2299999;-0.37000
2302777;-0.38500
2305555;-0.39000
2308333;-0.37500
2311110;-0.37000
2313888;-0.36500
2316666;-0.36000
2319444;-0.37000
2322222;-0.39000
2324999;-0.39000
2327777;-0.38000
2330555;-0.37500
2333333;-0.39500
2336110;-0.40000
2338888;-0.42500
2341666;-0.44000
2344444;-0.48000
2347222;-0.49000
2349999;-0.50500
2352777;-0.51500
2355555;-0.56000
2358333;-0.58500
2361110;-0.57000
2363888;-0.51500
2366666;-0.40000
2369444;-0.28000
2372222;-0.10000
2374999;0.13000
2377777;0.39500
2380555;0.65000
2383333;0.83000
2386110;0.88500
2388888;0.79000
2391666;0.54500
2394444;0.18000
2397222;-0.16500
2399999;-0.39000
2402777;-0.49500
2405555;-0.52500
2408333;-0.50000
2411110;-0.44500
2413888;-0.42000
2416666;-0.42000
2419444;-0.43000
2422222;-0.43000
2424999;-0.43000
2427777;-0.42000
2430555;-0.42500
2433333;-0.43500
2436110;-0.43000
2438888;-0.44000
2441666;-0.42000
2444444;-0.41000
2447222;-0.41500
2449999;-0.42500
2452777;-0.43000
2455555;-0.42000
2458333;-0.42000
2461110;-0.40500
2463888;-0.41000
2466666;-0.42000
2469444;-0.42000
2472222;-0.42000
2474999;-0.41500
2477777;-0.40500
2480555;-0.41000
2483333;-0.41000
2486110;-0.42500
2488888;-0.43000
2491666;-0.43500
2494444;-0.42500
2497222;-0.42500
2499999;-0.41500
2502777;-0.43500
2505555;-0.44500
2508333;-0.43000
2511110;-0.42500
2513888;-0.42500
2516666;-0.42000
2519444;-0.44000
2522222;-0.44500
2524999;-0.44000
2527777;-0.42500
2530555;-0.42000
2533333;-0.42500
2536110;-0.43000
2538888;-0.43000
2541666;-0.42500
2544444;-0.42500
2547222;-0.41500
2549999;-0.43500
2552777;-0.43000
2555555;-0.43000
2558333;-0.43500
2561110;-0.42000
2563888;-0.42500
2566666;-0.42000
2569444;-0.44000
2572222;-0.44500
2574999;-0.43500
2577777;-0.43000
2580555;-0.43500
2583333;-0.43000
2586110;-0.44000
2588888;-0.44000
2591666;-0.43000
2594444;-0.42000
2597221;-0.41000
2599999;-0.42500
2602777;-0.43500
2605555;-0.43500
2608333;-0.42500
2611110;-0.41500
2613888;-0.42500
2616666;-0.42500
2619444;-0.43500
2622221;-0.44500
2624999;-0.43000
2627777;-0.43000
2630555;-0.44000
2633333;-0.45000
2636110;-0.46500
2638888;-0.47000
2641666;-0.47500
2644444;-0.46000
2647221;-0.47000
2649999;-0.46500
2652777;-0.46500
2655555;-0.48000
2658333;-0.47500
2661110;-0.46000
2663888;-0.48000
2666666;-0.49000
2669444;-0.49000
2672221;-0.48500
2674999;-0.48000
2677777;-0.46500
2680555;-0.45500
2683333;-0.46000
2686110;-0.46000
2688888;-0.45500
2691666;-0.44500
2694444;-0.42500
2697221;-0.42000
2699999;-0.40000
2702777;-0.40000
2705555;-0.38500
2708333;-0.37000
2711110;-0.36500
2713888;-0.35500
2716666;-0.33000
2719444;-0.33000
2722221;-0.34500
2724999;-0.34000
2727777;-0.32500
2730555;-0.32000
2733333;-0.31500
2736110;-0.32500
2738888;-0.32000
2741666;-0.31000
2744444;-0.30500
2747221;-0.30500
2749999;-0.32000
2752777;-0.33000
2755555;-0.34500
2758333;-0.33000
2761110;-0.32000
2763888;-0.31500
2766666;-0.31500
2769444;-0.32000
2772221;-0.32500
2774999;-0.32000
2777777;-0.31000
2780555;-0.30500
2783333;-0.31000
2786110;-0.30500
2788888;-0.33000
2791666;-0.32500
2794444;-0.31000
2797221;-0.31500
2799999;-0.32000
2802777;-0.33000
2805555;-0.34000
2808333;-0.33000
2811110;-0.32000
2813888;-0.32000
2816666;-0.32000
2819444;-0.34000
2822221;-0.34000
2824999;-0.33000
2827777;-0.33500
2830555;-0.33000
2833333;-0.34500
2836110;-0.34500
2838888;-0.36000
2841666;-0.36000
2844444;-0.34500
2847221;-0.34500
2849999;-0.35000
2852777;-0.36500
2855555;-0.37000
2858333;-0.36000
2861110;-0.35000
2863888;-0.36000
2866666;-0.35000
2869444;-0.35000
2872221;-0.36000
2874999;-0.35500
2877777;-0.35500
2880555;-0.34500
2883333;-0.35500
2886110;-0.36500
2888888;-0.38500
2891666;-0.37000
2894444;-0.36500
2897221;-0.34500
2899999;-0.34500
2902777;-0.35000
2905555;-0.37000
2908333;-0.37000
2911110;-0.34500
2913888;-0.35500
2916666;-0.37500
2919444;-0.36500
2922221;-0.38000
2924999;-0.37500
2927777;-0.36500
2930555;-0.35500
2933333;-0.36000
2936110;-0.37500
2938888;-0.37000
2941666;-0.36500
2944444;-0.36000
2947221;-0.36000
2949999;-0.36500
2952777;-0.36500
2955555;-0.36500
2958333;-0.35500
2961110;-0.33500
2963888;-0.34500
2966666;-0.34500
2969444;-0.35500
2972221;-0.36500
2974999;-0.36000
2977777;-0.36000
2980555;-0.35500
2983332;-0.35500
2986110;-0.35500
2988888;-0.36500
2991666;-0.36500
2994444;-0.34500
2997221;-0.34500
2999999;-0.34500
3002777;-0.34500
3005555;-0.35500
3008332;-0.35000
3011110;-0.33500
3013888;-0.32500
3016666;-0.32000
3019444;-0.33000
3022221;-0.33000
3024999;-0.31000
3027777;-0.29500
3030555;-0.28500
3033332;-0.29000
3036110;-0.29500
3038888;-0.28500
3041666;-0.28000
3044444;-0.26000
3047221;-0.25000
3049999;-0.25000
3052777;-0.26000
3055555;-0.26500
3058332;-0.27000
3061110;-0.27000
3063888;-0.27000
3066666;-0.27000
3069444;-0.27500
3072221;-0.28500
3074999;-0.29000
3077777;-0.29000
3080555;-0.29500
3083332;-0.29000
3086110;-0.26000
3088888;-0.27000
3091666;-0.27500
3094444;-0.30000
3097221;-0.31500
3099999;-0.33500
3102777;-0.35500
3105555;-0.38500
3108332;-0.38500
3111110;-0.39000
3113888;-0.38000
3116666;-0.38000
3119444;-0.39000
3122221;-0.40500
3124999;-0.38500
3127777;-0.37500
3130555;-0.37500
3133332;-0.37500
3136110;-0.38500
3138888;-0.38500
3141666;-0.39500
3144444;-0.38500
3147221;-0.38000
3149999;-0.38500
3152777;-0.39500
3155555;-0.40500
3158332;-0.39500
3161110;-0.39000
3163888;-0.38000
3166666;-0.39000
3169444;-0.39500
3172221;-0.40500
3174999;-0.40500
3177777;-0.41000
3180555;-0.41000
3183332;-0.45000
3186110;-0.49000
3188888;-0.51500
3191666;-0.51000
3194444;-0.50000
3197221;-0.53500
3199999;-0.58000
3202777;-0.62000
3205555;-0.63000
3208332;-0.60500
3211110;-0.53500
3213888;-0.43000
3216666;-0.31000
3219444;-0.18000
3222221;-0.02500
3224999;0.19000
3227777;0.46000
3230555;0.70500
3233332;0.88500
3236110;0.94500
3238888;0.84000
3241666;0.55500
3244444;0.15500
3247221;-0.21500
3249999;-0.44000
3252777;-0.52000
3255555;-0.52500
3258332;-0.48000
3261110;-0.44000
3263888;-0.43000
3266666;-0.43000
3269444;-0.44000
3272221;-0.42500
3274999;-0.43000
3277777;-0.42500
3280555;-0.40500
3283332;-0.41000
3286110;-0.42000
3288888;-0.43500
3291666;-0.43000
3294444;-0.41500
3297221;-0.42500
3299999;-0.42000
3302777;-0.42000
3305555;-0.42500
3308332;-0.43000
3311110;-0.42500
3313888;-0.41000
3316666;-0.43000
3319444;-0.43000
3322221;-0.43500
3324999;-0.44000
3327777;-0.42500
3330555;-0.41000
3333332;-0.43000
3336110;-0.43500
3338888;-0.43500
3341666;-0.44000
3344444;-0.42000
3347221;-0.42000
3349999;-0.43000
3352777;-0.43500
3355555;-0.44500
3358332;-0.43500
3361110;-0.42500
3363888;-0.42000
3366666;-0.42500
3369444;-0.43000
3372221;-0.43000
3374999;-0.42500
3377777;-0.41000
3380555;-0.41500
3383332;-0.41500
3386110;-0.43000
3388888;-0.43000
3391666;-0.42000
3394443;-0.41500
3397221;-0.42000
3399999;-0.41500
3402777;-0.42000
3405555;-0.43000
3408332;-0.42500
3411110;-0.41500
3413888;-0.41500
3416666;-0.41000
3419443;-0.43000
3422221;-0.43500
3424999;-0.41500
3427777;-0.42500
3430555;-0.42500
3433332;-0.43000
3436110;-0.43500
3438888;-0.43000
3441666;-0.42500
3444443;-0.43000
3447221;-0.42500
3449999;-0.43000
3452777;-0.43500
3455555;-0.44000
3458332;-0.44000
3461110;-0.43000
3463888;-0.42500
3466666;-0.43500
3469443;-0.44500
3472221;-0.45500
3474999;-0.45500
3477777;-0.45500
3480555;-0.45000
3483332;-0.45000
3486110;-0.47500
3488888;-0.48500
3491666;-0.48000
3494443;-0.48000
3497221;-0.47500
3499999;-0.48500
3502777;-0.49000
3505555;-0.49000
3508332;-0.49000
3511110;-0.47000
3513888;-0.46000
3516666;-0.45000
3519443;-0.45500
3522221;-0.46000
3524999;-0.44500
3527777;-0.41500
3530555;-0.41000
3533332;-0.40500
3536110;-0.38500
3538888;-0.39000
3541666;-0.36500
3544443;-0.34000
3547221;-0.33500
3549999;-0.32500
3552777;-0.32000
3555555;-0.33000
3558332;-0.31500
3561110;-0.30500
3563888;-0.31500
3566666;-0.31500
3569443;-0.32000
3572221;-0.31000
3574999;-0.30000
3577777;-0.30000
3580555;-0.28500
3583332;-0.29000
3586110;-0.28500
3588888;-0.29500
3591666;-0.30000
3594443;-0.27500
3597221;-0.27500
3599999;-0.28500
3602777;-0.28500
3605555;-0.29000
3608332;-0.28000
3611110;-0.28500
3613888;-0.27500
3616666;-0.28500
3619443;-0.28000
3622221;-0.29000
3624999;-0.28500
3627777;-0.27500
3630555;-0.26500
3633332;-0.27500
3636110;-0.28500
3638888;-0.29500
3641666;-0.29000
3644443;-0.28500
3647221;-0.29000
3649999;-0.31000
3652777;-0.30500
3655555;-0.31000
3658332;-0.30500
3661110;-0.29500
3663888;-0.29500
3666666;-0.29500
3669443;-0.31000
3672221;-0.31000
3674999;-0.31000
3677777;-0.29500
3680555;-0.28500
3683332;-0.29500
3686110;-0.31000
3688888;-0.32500
3691666;-0.32000
3694443;-0.31000
3697221;-0.29500
3699999;-0.30500
3702777;-0.32000
3705555;-0.32000
3708332;-0.32000
3711110;-0.32500
3713888;-0.30500
3716666;-0.32000
3719443;-0.31500
3722221;-0.33000
3724999;-0.33000
3727777;-0.31500
3730555;-0.32000
3733332;-0.32000
3736110;-0.32000
3738888;-0.33500
3741666;-0.33000
3744443;-0.32500
3747221;-0.31000
3749999;-0.31500
3752777;-0.31500
3755555;-0.32000
3758332;-0.31000
3761110;-0.32000
3763888;-0.30500
3766666;-0.31000
3769443;-0.32000
3772221;-0.32000
3774999;-0.31500
3777777;-0.30500
3780554;-0.29500
3783332;-0.31500
3786110;-0.32000
3788888;-0.33500
3791666;-0.33000
3794443;-0.31500
3797221;-0.31000
3799999;-0.32500
3802777;-0.32500
3805554;-0.32500
3808332;-0.31000
3811110;-0.30500
3813888;-0.30000
3816666;-0.30500
3819443;-0.30500
3822221;-0.31000
3824999;-0.30000
3827777;-0.30000
3830554;-0.30000
3833332;-0.28500
3836110;-0.27500
3838888;-0.28500
3841666;-0.27000
3844443;-0.23500
3847221;-0.23000
3849999;-0.23500
3852777;-0.24500
3855554;-0.23500
3858332;-0.23000
3861110;-0.22000
3863888;-0.21500
3866666;-0.21500
3869443;-0.22000
3872221;-0.22000
3874999;-0.20000
3877777;-0.20000
3880554;-0.19500
3883332;-0.19000
3886110;-0.21500
3888888;-0.23500
3891666;-0.23000
3894443;-0.22500
3897221;-0.21500
3899999;-0.21500
3902777;-0.22500
3905554;-0.23500
3908332;-0.24500
3911110;-0.24000
3913888;-0.20500
3916666;-0.20000
3919443;-0.18000
3922221;-0.19000
3924999;-0.21000
3927777;-0.23500
3930554;-0.24500
3933332;-0.26500
3936110;-0.29500
3938888;-0.31000
3941666;-0.31500
3944443;-0.31500
3947221;-0.32000
3949999;-0.32000
3952777;-0.33500
3955554;-0.34500
3958332;-0.33000
3961110;-0.33500
3963888;-0.31500
3966666;-0.32500
3969443;-0.33500
3972221;-0.34500
3974999;-0.33000
3977777;-0.33000
3980554;-0.34000
3983332;-0.32500
3986110;-0.32500
3988888;-0.33500
3991666;-0.34500
3994443;-0.32500
3997221;-0.33000
3999999;-0.33000
4002777;-0.34000
4005554;-0.34000
4008332;-0.34500
4011110;-0.36000
4013888;-0.40000
4016666;-0.42000
4019443;-0.46000
4022221;-0.45500
4024999;-0.45500
4027777;-0.47000
4030554;-0.51500
4033332;-0.53000
4036110;-0.49500
4038888;-0.35500
4041666;-0.17500
4044443;0.01000
4047221;0.23000
4049999;0.51500
4052777;0.80000
4055554;1.01000
4058332;1.10500
4061110;1.08500
4063888;0.82000
4066666;0.38500
4069443;-0.09000
4072221;-0.37500
4074999;-0.45000
4077777;-0.41000
4080554;-0.35500
4083332;-0.34500
4086110;-0.35000
4088888;-0.36500
4091666;-0.37500
4094443;-0.36500
4097221;-0.35500
4099999;-0.36500
4102777;-0.38000
4105554;-0.38000
4108332;-0.38000
4111110;-0.36000
4113888;-0.35500
4116666;-0.36000
4119443;-0.37500
4122221;-0.37500
4124999;-0.37500
4127777;-0.37000
4130554;-0.36500
4133332;-0.36500
4136110;-0.37500
4138888;-0.38500
4141666;-0.37500
4144443;-0.37000
4147221;-0.36000
4149999;-0.36000
4152777;-0.37000
4155554;-0.37000
4158332;-0.37000
4161110;-0.36000
4163888;-0.35000
4166666;-0.36500
4169443;-0.37500
4172221;-0.37500
4174999;-0.36000
4177777;-0.35500
4180554;-0.35000
4183332;-0.35500
4186110;-0.35500
4188888;-0.37500
4191665;-0.37000
4194443;-0.36000
4197221;-0.36500
4199999;-0.36500
4202777;-0.37000
4205554;-0.38500
4208332;-0.37500
4211110;-0.36000
4213888;-0.36000
4216665;-0.36500
4219443;-0.37000
4222221;-0.37500
4224999;-0.38500
4227777;-0.37500
4230554;-0.36000
4233332;-0.36000
4236110;-0.36500
4238888;-0.37500
4241665;-0.38000
4244443;-0.37000
4247221;-0.36000
4249999;-0.37500
4252777;-0.37500
4255554;-0.39000
4258332;-0.38000
4261110;-0.37500
4263888;-0.38000
4266665;-0.37000
4269443;-0.39000
4272221;-0.38500
4274999;-0.39000
4277777;-0.37500
4280554;-0.38000
4283332;-0.38000
4286110;-0.38500
4288888;-0.39000
4291665;-0.38500
4294443;-0.38000
4297221;-0.38500
4299999;-0.37000
4302777;-0.39000
4305554;-0.39500
4308332;-0.38500
4311110;-0.39000
4313888;-0.37500
4316665;-0.38000
4319443;-0.37000
4322221;-0.38500
4324999;-0.37500
4327777;-0.36000
4330554;-0.34500
4333332;-0.34000
4336110;-0.34500
4338888;-0.34500
4341665;-0.33000
4344443;-0.31500
4347221;-0.30000
4349999;-0.28500
4352777;-0.30000
4355554;-0.29000
4358332;-0.29000
4361110;-0.26500
4363888;-0.27500
4366665;-0.26500
4369443;-0.27000
4372221;-0.27000
4374999;-0.26000
4377777;-0.25000
4380554;-0.24000
4383332;-0.24500
4386110;-0.25000
4388888;-0.25500
4391665;-0.24000
4394443;-0.23500
4397221;-0.22500
4399999;-0.24000
4402777;-0.25000
4405554;-0.25500
4408332;-0.25500
4411110;-0.25000
4413888;-0.24000
4416665;-0.23500
4419443;-0.25500
4422221;-0.27000
4424999;-0.25500
4427777;-0.24000
4430554;-0.23000
4433332;-0.24500
4436110;-0.25500
4438888;-0.26500
4441665;-0.26500
4444443;-0.25000
4447221;-0.25000
4449999;-0.25500
4452777;-0.27000
4455554;-0.27000
4458332;-0.28500
4461110;-0.27000
4463888;-0.25000
4466665;-0.27500
4469443;-0.27500
4472221;-0.27000
4474999;-0.26500
4477777;-0.26500
4480554;-0.27000
4483332;-0.27500
4486110;-0.29000
4488888;-0.28000
4491665;-0.28000
4494443;-0.28500
4497221;-0.27000
4499999;-0.27500
4502777;-0.27500
4505554;-0.29500
4508332;-0.28500
4511110;-0.28500
4513888;-0.29000
4516665;-0.28500
4519443;-0.30500
4522221;-0.32000
4524999;-0.31500
4527777;-0.31000
4530554;-0.30500
4533332;-0.30500
4536110;-0.31500
4538888;-0.33000
4541665;-0.32000
4544443;-0.30000
4547221;-0.30000
4549999;-0.30000
4552777;-0.30500
4555554;-0.31500
4558332;-0.30500
4561110;-0.29000
4563888;-0.30500
4566665;-0.30000
4569443;-0.30500
4572221;-0.31000
4574999;-0.31000
4577776;-0.31500
4580554;-0.30500
4583332;-0.30000
4586110;-0.30000
4588888;-0.31500
4591665;-0.30000
4594443;-0.30000
4597221;-0.28500
4599999;-0.28500
4602776;-0.29500
4605554;-0.31500
4608332;-0.29000
4611110;-0.28500
4613888;-0.28500
4616665;-0.29000
4619443;-0.29000
4622221;-0.27500
4624999;-0.26000
4627776;-0.24500
4630554;-0.22000
4633332;-0.23500
4636110;-0.23500
4638888;-0.24500
4641665;-0.22500
4644443;-0.22500
4647221;-0.21000
4649999;-0.19500
4652776;-0.18500
4655554;-0.19500
4658332;-0.20500
4661110;-0.19000
4663888;-0.20000
4666665;-0.19500
4669443;-0.20500
4672221;-0.22500
4674999;-0.21000
4677776;-0.21000
4680554;-0.21000
4683332;-0.20500
4686110;-0.20000
4688888;-0.18500
4691665;-0.17000
4694443;-0.18000
4697221;-0.21000
4699999;-0.24500
4702776;-0.27000
4705554;-0.28000
4708332;-0.29000
4711110;-0.28500
4713888;-0.29500
4716665;-0.31000
4719443;-0.32000
4722221;-0.33000
4724999;-0.31500
4727776;-0.32000
4730554;-0.31500
4733332;-0.32500
4736110;-0.32500
4738888;-0.33500
4741665;-0.33000
4744443;-0.31500
4747221;-0.31500
4749999;-0.32000
4752776;-0.32500
4755554;-0.33000
4758332;-0.31500
4761110;-0.31000
4763888;-0.30500
4766665;-0.31500
4769443;-0.32000
4772221;-0.34000
4774999;-0.33500
4777776;-0.32500
4780554;-0.32500
4783332;-0.34500
4786110;-0.39500
4788888;-0.43500
4791665;-0.46500
4794443;-0.47000
4797221;-0.51000
4799999;-0.53000
4802776;-0.47500
4805554;-0.34000
4808332;-0.16500
4811110;0.01500
4813888;0.23000
4816665;0.52500
4819443;0.77000
4822221;0.93000
4824999;0.99000
