time_ms;ecg_value
0;0.91500
2778;1.02000
5556;0.98000
8333;0.71500
11111;0.25000
13889;-0.16000
16667;-0.39500
19444;-0.47000
22222;-0.47000
25000;-0.44500
27778;-0.42000
30556;-0.39000
33333;-0.38000
36111;-0.39500
38889;-0.39000
41667;-0.39500
44444;-0.38500
47222;-0.36500
50000;-0.36000
52778;-0.37000
55556;-0.39000
58333;-0.41000
61111;-0.41000
63889;-0.40500
66667;-0.39500
69444;-0.40000
72222;-0.39500
75000;-0.40500
77778;-0.41000
80556;-0.39000
83333;-0.37000
86111;-0.37000
88889;-0.40000
91667;-0.40500
94444;-0.42000
97222;-0.41500
100000;-0.40000
102778;-0.39000
105556;-0.39500
108333;-0.40500
111111;-0.41000
113889;-0.42500
116667;-0.41500
119444;-0.41000
122222;-0.41000
125000;-0.41500
127778;-0.41500
130556;-0.40500
133333;-0.39500
136111;-0.40000
138889;-0.41000
141667;-0.43500
144444;-0.44500
147222;-0.43500
150000;-0.42000
152778;-0.42000
155556;-0.42000
158333;-0.42500
161111;-0.44000
163889;-0.44000
166667;-0.43000
169444;-0.42000
172222;-0.42000
175000;-0.42500
177778;-0.43500
180556;-0.43000
183333;-0.41500
186111;-0.42000
188889;-0.41500
191667;-0.43000
194444;-0.42000
197222;-0.42000
200000;-0.41000
202778;-0.41500
205555;-0.42500
208333;-0.43500
211111;-0.45500
213889;-0.45000
216667;-0.44000
219444;-0.43500
222222;-0.45500
225000;-0.46000
227778;-0.47000
230555;-0.47000
233333;-0.46000
236111;-0.47000
238889;-0.49000
241667;-0.49000
244444;-0.49500
247222;-0.49000
250000;-0.47500
252778;-0.50000
255555;-0.51000
258333;-0.52000
261111;-0.51000
263889;-0.50500
266667;-0.49500
269444;-0.50000
272222;-0.51000
275000;-0.50500
277778;-0.48500
280555;-0.46000
283333;-0.44500
286111;-0.44000
288889;-0.44000
291667;-0.45000
294444;-0.45000
297222;-0.42000
300000;-0.39500
302778;-0.36500
305555;-0.37000
308333;-0.36000
311111;-0.36000
313889;-0.35500
316667;-0.35500
319444;-0.36000
322222;-0.34500
325000;-0.34000
327778;-0.34000
330555;-0.32500
333333;-0.32000
336111;-0.32500
338889;-0.33500
341667;-0.33000
344444;-0.33500
347222;-0.32000
350000;-0.32000
352778;-0.32500
355555;-0.33000
358333;-0.34500
361111;-0.34500
363889;-0.33500
366667;-0.34500
369444;-0.33500
372222;-0.34500
375000;-0.34500
377778;-0.34500
380555;-0.33500
383333;-0.33000
386111;-0.34500
388889;-0.35000
391667;-0.35000
394444;-0.36000
397222;-0.35500
400000;-0.34000
402778;-0.34500
405555;-0.35500
408333;-0.36000
411111;-0.36000
413889;-0.35500
416667;-0.36000
419444;-0.35000
422222;-0.36500
425000;-0.37500
427778;-0.38500
430555;-0.37000
433333;-0.37500
436111;-0.36000
438889;-0.37500
441667;-0.38500
444444;-0.37000
447222;-0.37500
450000;-0.37000
452778;-0.37500
455555;-0.37500
458333;-0.38000
461111;-0.38000
463889;-0.37000
466667;-0.36500
469444;-0.38000
472222;-0.38500
475000;-0.38000
477778;-0.38500
480555;-0.38000
483333;-0.36500
486111;-0.36500
488889;-0.37000
491667;-0.37000
494444;-0.37500
497222;-0.36500
500000;-0.36000
502778;-0.36500
505555;-0.36500
508333;-0.38500
511111;-0.37500
513889;-0.36000
516667;-0.35000
519444;-0.35500
522222;-0.35500
525000;-0.36000
527778;-0.36000
530555;-0.35500
533333;-0.34500
536111;-0.34000
538889;-0.34500
541667;-0.35000
544444;-0.36500
547222;-0.34000
550000;-0.34500
552778;-0.35000
555555;-0.35000
558333;-0.36000
561111;-0.36000
563889;-0.35000
566667;-0.33000
569444;-0.33500
572222;-0.32000
575000;-0.31500
577778;-0.31000
580555;-0.28500
583333;-0.28000
586111;-0.26500
588889;-0.26500
591667;-0.26500
594444;-0.26000
597222;-0.24000
600000;-0.22500
602778;-0.21500
605555;-0.22500
608333;-0.23000
611111;-0.23000
613889;-0.22500
616666;-0.22000
619444;-0.23000
622222;-0.24000
625000;-0.24500
627778;-0.24500
630555;-0.24500
633333;-0.25000
636111;-0.25000
638889;-0.25000
641666;-0.24000
644444;-0.23000
647222;-0.24000
650000;-0.25000
652778;-0.28000
655555;-0.29000
658333;-0.30000
661111;-0.32000
663889;-0.33000
666666;-0.31500
669444;-0.32000
672222;-0.33000
675000;-0.35000
677778;-0.34000
680555;-0.33500
683333;-0.32500
686111;-0.33500
688889;-0.34000
691666;-0.36000
694444;-0.36000
697222;-0.35000
700000;-0.35500
702778;-0.34500
705555;-0.33500
708333;-0.36000
711111;-0.35500
713889;-0.34500
716666;-0.34000
719444;-0.33500
722222;-0.35000
725000;-0.34500
727778;-0.35000
730555;-0.33500
733333;-0.34500
736111;-0.34000
738889;-0.35000
741666;-0.37500
744444;-0.41500
747222;-0.44500
750000;-0.46000
752778;-0.48500
755555;-0.51500
758333;-0.54500
761111;-0.49500
763889;-0.35500
766666;-0.19500
769444;-0.01500
772222;0.18000
775000;0.44000
777778;0.71500
780555;0.93500
783333;1.07500
786111;1.05500
788889;0.82500
791666;0.40500
794444;-0.06000
797222;-0.37000
800000;-0.46500
802778;-0.44500
805555;-0.41000
808333;-0.37000
811111;-0.34500
813889;-0.35000
816666;-0.34500
819444;-0.35000
822222;-0.36000
825000;-0.36000
827778;-0.37000
830555;-0.37500
833333;-0.36500
836111;-0.36000
838889;-0.37000
841666;-0.37500
844444;-0.38000
847222;-0.36500
850000;-0.36000
852778;-0.36500
855555;-0.36500
858333;-0.36500
861111;-0.37500
863889;-0.36500
866666;-0.36000
869444;-0.36000
872222;-0.36500
875000;-0.38500
877778;-0.38500
880555;-0.38000
883333;-0.37000
886111;-0.36500
888889;-0.38000
891666;-0.37000
894444;-0.37500
897222;-0.36500
900000;-0.36000
902778;-0.36000
905555;-0.37000
908333;-0.36500
911111;-0.37000
913889;-0.37500
916666;-0.37000
919444;-0.38500
922222;-0.38500
925000;-0.39000
927778;-0.39000
930555;-0.37500
933333;-0.37000
936111;-0.37500
938889;-0.38000
941666;-0.38500
944444;-0.38000
947222;-0.37500
950000;-0.37000
952778;-0.37000
955555;-0.37500
958333;-0.39500
961111;-0.38000
963889;-0.38500
966666;-0.36000
969444;-0.37000
972222;-0.36500
975000;-0.37000
977778;-0.37500
980555;-0.36500
983333;-0.36000
986111;-0.37000
988889;-0.37000
991666;-0.39000
994444;-0.39000
997222;-0.38500
1000000;-0.38000
1002777;-0.38000
1005555;-0.38500
1008333;-0.40000
1011111;-0.41500
1013889;-0.41000
1016666;-0.40000
1019444;-0.40000
1022222;-0.40000
1025000;-0.40500
1027777;-0.40500
1030555;-0.41000
1033333;-0.39500
1036111;-0.39000
1038889;-0.41000
1041666;-0.42000
1044444;-0.42000
1047222;-0.40000
1050000;-0.39500
1052777;-0.39000
1055555;-0.39500
1058333;-0.39500
1061111;-0.39500
1063889;-0.39500
1066666;-0.38500
1069444;-0.37500
1072222;-0.37000
1075000;-0.37000
1077777;-0.37000
1080555;-0.35500
1083333;-0.33500
1086111;-0.32000
1088889;-0.32000
1091666;-0.32000
1094444;-0.32000
1097222;-0.29000
1100000;-0.28000
1102777;-0.26500
1105555;-0.26500
1108333;-0.27500
1111111;-0.27000
1113889;-0.26500
1116666;-0.25000
1119444;-0.23500
1122222;-0.24500
1125000;-0.24500
1127777;-0.25000
1130555;-0.24500
1133333;-0.23500
1136111;-0.22500
1138889;-0.24000
1141666;-0.24000
1144444;-0.24500
1147222;-0.24000
1150000;-0.24500
1152777;-0.24000
1155555;-0.24500
1158333;-0.26000
1161111;-0.25500
1163889;-0.26000
1166666;-0.25000
1169444;-0.25500
1172222;-0.25000
1175000;-0.26000
1177777;-0.27000
1180555;-0.26000
1183333;-0.25000
1186111;-0.25000
1188889;-0.25500
1191666;-0.26000
1194444;-0.27000
1197222;-0.27000
1200000;-0.25500
1202777;-0.25000
1205555;-0.27000
1208333;-0.27500
1211111;-0.28000
1213889;-0.26000
1216666;-0.27000
1219444;-0.26000
1222222;-0.26000
1225000;-0.27500
1227777;-0.27500
1230555;-0.28500
1233333;-0.27500
1236111;-0.27500
1238889;-0.28500
1241666;-0.30000
1244444;-0.30500
1247222;-0.29500
1250000;-0.29000
1252777;-0.29000
1255555;-0.29500
1258333;-0.30500
1261111;-0.31000
1263889;-0.30500
1266666;-0.28500
1269444;-0.28000
1272222;-0.29500
1275000;-0.29500
1277777;-0.30500
1280555;-0.29500
1283333;-0.29000
1286111;-0.28500
1288889;-0.30000
1291666;-0.30000
1294444;-0.30500
1297222;-0.30500
1300000;-0.28500
1302777;-0.29000
1305555;-0.29500
1308333;-0.31500
1311111;-0.30000
1313889;-0.30000
1316666;-0.29000
1319444;-0.29500
1322222;-0.30000
1325000;-0.31000
1327777;-0.31000
1330555;-0.30500
1333333;-0.29000
1336111;-0.28500
1338889;-0.29500
1341666;-0.30000
1344444;-0.30000
1347222;-0.28500
1350000;-0.28000
1352777;-0.27000
1355555;-0.28000
1358333;-0.29500
1361111;-0.30000
1363889;-0.29000
1366666;-0.28000
1369444;-0.29000
1372222;-0.29000
1375000;-0.28500
1377777;-0.28500
1380555;-0.28500
1383333;-0.27000
1386111;-0.25000
1388888;-0.25500
1391666;-0.24000
1394444;-0.24000
1397222;-0.22000
1400000;-0.21500
1402777;-0.21000
1405555;-0.21500
1408333;-0.21000
1411111;-0.20000
1413888;-0.19000
1416666;-0.18000
1419444;-0.16500
1422222;-0.17000
1425000;-0.18000
1427777;-0.19000
1430555;-0.19000
1433333;-0.19000
1436111;-0.19000
1438888;-0.19500
1441666;-0.19500
1444444;-0.20500
1447222;-0.21000
1450000;-0.20000
1452777;-0.18000
1455555;-0.17000
1458333;-0.19000
1461111;-0.23000
1463888;-0.24500
1466666;-0.26000
1469444;-0.26000
1472222;-0.29000
1475000;-0.30000
1477777;-0.31500
1480555;-0.32000
1483333;-0.31500
1486111;-0.31500
1488888;-0.32500
1491666;-0.33000
1494444;-0.32500
1497222;-0.31500
1500000;-0.31000
1502777;-0.31500
1505555;-0.32000
1508333;-0.32500
1511111;-0.33000
1513888;-0.33000
1516666;-0.32500
1519444;-0.32500
1522222;-0.32500
1525000;-0.34500
1527777;-0.34500
1530555;-0.33000
1533333;-0.32500
1536111;-0.33000
1538888;-0.34000
1541666;-0.36500
1544444;-0.39000
1547222;-0.42500
1550000;-0.44500
1552777;-0.44500
1555555;-0.44500
1558333;-0.49000
1561111;-0.53000
1563888;-0.54500
1566666;-0.48500
1569444;-0.36000
1572222;-0.18500
1575000;-0.00500
1577777;0.21000
1580555;0.46500
1583333;0.77000
1586111;1.02000
1588888;1.17000
1591666;1.18000
1594444;0.98000
1597222;0.57000
1600000;0.07500
1602777;-0.31000
1605555;-0.45000
1608333;-0.43000
1611111;-0.36000
1613888;-0.32000
1616666;-0.31500
1619444;-0.33500
1622222;-0.35000
1625000;-0.35000
1627777;-0.35500
1630555;-0.35000
1633333;-0.35500
1636111;-0.36500
1638888;-0.35500
1641666;-0.37000
1644444;-0.37000
1647222;-0.36000
1650000;-0.36000
1652777;-0.36000
1655555;-0.37500
1658333;-0.39000
1661111;-0.38500
1663888;-0.37000
1666666;-0.37500
1669444;-0.37000
1672222;-0.37500
1675000;-0.38500
1677777;-0.39000
1680555;-0.38000
1683333;-0.35500
1686111;-0.35500
1688888;-0.36500
1691666;-0.37500
1694444;-0.38500
1697222;-0.36500
1700000;-0.35500
1702777;-0.37000
1705555;-0.36500
1708333;-0.37000
1711111;-0.36500
1713888;-0.36000
1716666;-0.35500
1719444;-0.34500
1722222;-0.36500
1725000;-0.37000
1727777;-0.38000
1730555;-0.37500
1733333;-0.37000
1736111;-0.36500
1738888;-0.36500
1741666;-0.38000
1744444;-0.38500
1747222;-0.38500
1750000;-0.37000
1752777;-0.36500
1755555;-0.37000
1758333;-0.37500
1761111;-0.38500
1763888;-0.36000
1766666;-0.35500
1769444;-0.36000
1772222;-0.36500
1775000;-0.36500
1777777;-0.38000
1780555;-0.36500
1783333;-0.36500
1786111;-0.36000
1788888;-0.37000
1791666;-0.37500
1794444;-0.38500
1797222;-0.37000
1799999;-0.36000
1802777;-0.38000
1805555;-0.36500
1808333;-0.38500
1811111;-0.38500
1813888;-0.38000
1816666;-0.37000
1819444;-0.37000
1822222;-0.37000
1824999;-0.39000
1827777;-0.39000
1830555;-0.37500
1833333;-0.36500
1836111;-0.37500
1838888;-0.38500
1841666;-0.39000
1844444;-0.39500
1847222;-0.37500
1849999;-0.36000
1852777;-0.36500
1855555;-0.37000
1858333;-0.36000
1861111;-0.37000
1863888;-0.35000
1866666;-0.33500
1869444;-0.32500
1872222;-0.32000
1874999;-0.32000
1877777;-0.32000
1880555;-0.31000
1883333;-0.28000
1886111;-0.28500
1888888;-0.27500
1891666;-0.28500
1894444;-0.28000
1897222;-0.27500
1899999;-0.25500
1902777;-0.25000
1905555;-0.26000
1908333;-0.25500
1911111;-0.26000
1913888;-0.25000
1916666;-0.24000
1919444;-0.25500
1922222;-0.24500
1924999;-0.25500
1927777;-0.26000
1930555;-0.24000
1933333;-0.24500
1936111;-0.24000
1938888;-0.25000
1941666;-0.25000
1944444;-0.26000
1947222;-0.24500
1949999;-0.25000
1952777;-0.24500
1955555;-0.26000
1958333;-0.26500
1961111;-0.27500
1963888;-0.26500
1966666;-0.27000
1969444;-0.26500
1972222;-0.27500
1974999;-0.27000
1977777;-0.28500
1980555;-0.27000
1983333;-0.26500
1986111;-0.26000
1988888;-0.26000
1991666;-0.27000
1994444;-0.29000
1997222;-0.26000
1999999;-0.27000
2002777;-0.26500
2005555;-0.28500
2008333;-0.30000
2011111;-0.29000
2013888;-0.29000
2016666;-0.29000
2019444;-0.28500
2022222;-0.30000
2024999;-0.32500
2027777;-0.31000
2030555;-0.31000
2033333;-0.29500
2036111;-0.30000
2038888;-0.30000
2041666;-0.31500
2044444;-0.32500
2047222;-0.30500
2049999;-0.30500
2052777;-0.30500
2055555;-0.31500
2058333;-0.32500
2061111;-0.33500
2063888;-0.32000
2066666;-0.30500
2069444;-0.30000
2072222;-0.30500
2074999;-0.31500
2077777;-0.32000
2080555;-0.32500
2083333;-0.31500
2086111;-0.31500
2088888;-0.31500
2091666;-0.32500
2094444;-0.33500
2097222;-0.33000
2099999;-0.31000
2102777;-0.30000
2105555;-0.31500
2108333;-0.31500
2111111;-0.32000
2113888;-0.31000
2116666;-0.30000
2119444;-0.31000
2122222;-0.30500
2124999;-0.32000
2127777;-0.32500
2130555;-0.31000
2133333;-0.30500
2136111;-0.30500
2138888;-0.30500
2141666;-0.30500
2144444;-0.31000
2147222;-0.30500
2149999;-0.29000
2152777;-0.30000
2155555;-0.30000
2158333;-0.31500
2161111;-0.31000
2163888;-0.31500
2166666;-0.30500
2169444;-0.30000
2172222;-0.30000
2174999;-0.30000
2177777;-0.29500
2180555;-0.27500
2183333;-0.25000
2186110;-0.24500
2188888;-0.24000
2191666;-0.23500
2194444;-0.24500
2197222;-0.23000
2199999;-0.21500
2202777;-0.20500
2205555;-0.20500
2208333;-0.20000
2211110;-0.20000
2213888;-0.18000
2216666;-0.17500
2219444;-0.18500
2222222;-0.19000
2224999;-0.21500
2227777;-0.22500
2230555;-0.22000
2233333;-0.21000
2236110;-0.21500
2238888;-0.23000
2241666;-0.25000
2244444;-0.24000
2247222;-0.23500
2249999;-0.22000
2252777;-0.19500
2255555;-0.18500
2258333;-0.20000
2261110;-0.22500
2263888;-0.24500
2266666;-0.25500
2269444;-0.26000
2272222;-0.29000
2274999;-0.31500
2277777;-0.33000
2280555;-0.31500
2283333;-0.32500
2286110;-0.32500
2288888;-0.33500
2291666;-0.33500
2294444;-0.32500
2297222;-0.32500
2299999;-0.31500
2302777;-0.32000
2305555;-0.32000
2308333;-0.33000
2311110;-0.34000
2313888;-0.33500
2316666;-0.35000
2319444;-0.34500
2322222;-0.34000
2324999;-0.36000
2327777;-0.35500
2330555;-0.35000
2333333;-0.34000
2336110;-0.34000
2338888;-0.34500
2341666;-0.36000
2344444;-0.38500
2347222;-0.41000
2349999;-0.45000
2352777;-0.47000
2355555;-0.49000
2358333;-0.54000
2361110;-0.58500
2363888;-0.51500
2366666;-0.41000
2369444;-0.24500
2372222;-0.05500
2374999;0.14000
2377777;0.39500
2380555;0.71000
2383333;0.96000
2386110;1.09500
2388888;1.09000
2391666;0.92500
2394444;0.54000
2397222;0.09000
2399999;-0.27000
2402777;-0.44500
2405555;-0.50000
2408333;-0.50000
2411110;-0.48500
2413888;-0.46000
2416666;-0.42000
2419444;-0.38000
2422222;-0.36500
2424999;-0.37500
2427777;-0.39000
2430555;-0.38000
2433333;-0.38000
2436110;-0.37500
2438888;-0.37000
2441666;-0.38500
2444444;-0.39000
2447222;-0.38000
2449999;-0.37000
2452777;-0.36500
2455555;-0.37500
2458333;-0.38500
2461110;-0.38500
2463888;-0.38000
2466666;-0.37000
2469444;-0.38500
2472222;-0.39000
2474999;-0.40000
2477777;-0.39000
2480555;-0.38500
2483333;-0.38500
2486110;-0.38000
2488888;-0.38000
2491666;-0.39000
2494444;-0.39500
2497222;-0.38500
2499999;-0.37500
2502777;-0.37000
2505555;-0.38000
2508333;-0.39000
2511110;-0.39000
2513888;-0.38000
2516666;-0.37000
2519444;-0.36500
2522222;-0.37000
2524999;-0.38000
2527777;-0.37500
2530555;-0.37000
2533333;-0.36000
2536110;-0.36000
2538888;-0.37000
2541666;-0.38500
2544444;-0.39000
2547222;-0.38000
2549999;-0.39000
2552777;-0.39000
2555555;-0.39000
2558333;-0.38500
2561110;-0.40500
2563888;-0.38500
2566666;-0.37500
2569444;-0.37500
2572222;-0.38500
2574999;-0.39000
2577777;-0.40000
2580555;-0.38500
2583333;-0.38500
2586110;-0.38000
2588888;-0.39000
2591666;-0.39000
2594444;-0.38500
2597221;-0.39000
2599999;-0.37500
2602777;-0.37500
2605555;-0.37500
2608333;-0.38500
2611110;-0.39000
2613888;-0.39500
2616666;-0.39500
2619444;-0.39500
2622221;-0.39500
2624999;-0.40500
2627777;-0.41000
2630555;-0.40000
2633333;-0.39000
2636110;-0.39500
2638888;-0.39500
2641666;-0.41000
2644444;-0.41500
2647221;-0.39500
2649999;-0.39500
2652777;-0.39500
2655555;-0.39000
2658333;-0.40500
2661110;-0.40500
2663888;-0.40000
2666666;-0.39000
2669444;-0.37500
2672221;-0.37000
2674999;-0.36500
2677777;-0.36000
2680555;-0.34000
2683333;-0.34000
2686110;-0.32500
2688888;-0.32500
2691666;-0.32500
2694444;-0.32500
2697221;-0.31000
2699999;-0.30500
2702777;-0.30000
2705555;-0.28500
2708333;-0.29000
2711110;-0.29500
2713888;-0.27500
2716666;-0.26500
2719444;-0.26500
2722221;-0.27000
2724999;-0.28000
2727777;-0.28000
2730555;-0.28000
2733333;-0.27000
2736110;-0.26500
2738888;-0.27000
2741666;-0.27000
2744444;-0.27500
2747221;-0.26500
2749999;-0.26000
2752777;-0.26000
2755555;-0.26500
2758333;-0.28000
2761110;-0.29500
2763888;-0.27000
2766666;-0.26500
2769444;-0.26500
2772221;-0.28000
2774999;-0.28000
2777777;-0.30000
2780555;-0.29000
2783333;-0.28000
2786110;-0.27000
2788888;-0.28500
2791666;-0.29500
2794444;-0.30000
2797221;-0.30000
2799999;-0.29000
2802777;-0.30000
2805555;-0.30000
2808333;-0.32000
2811110;-0.31500
2813888;-0.31000
2816666;-0.31000
2819444;-0.32000
2822221;-0.32000
2824999;-0.33000
2827777;-0.32500
2830555;-0.31500
2833333;-0.31000
2836110;-0.31000
2838888;-0.31000
2841666;-0.31500
2844444;-0.32000
2847221;-0.31000
2849999;-0.31500
2852777;-0.31000
2855555;-0.33000
2858333;-0.33500
2861110;-0.35500
2863888;-0.34000
2866666;-0.33000
2869444;-0.33000
2872221;-0.34000
2874999;-0.35500
2877777;-0.36500
2880555;-0.35000
2883333;-0.34500
2886110;-0.34500
2888888;-0.35000
2891666;-0.35500
2894444;-0.36500
2897221;-0.34000
2899999;-0.33000
2902777;-0.33500
2905555;-0.34000
2908333;-0.35000
2911110;-0.34500
2913888;-0.34000
2916666;-0.33500
2919444;-0.33000
2922221;-0.34000
2924999;-0.36000
2927777;-0.36500
2930555;-0.35000
2933333;-0.34000
2936110;-0.33000
2938888;-0.34000
2941666;-0.35500
2944444;-0.35000
2947221;-0.35000
2949999;-0.33500
2952777;-0.34000
2955555;-0.35000
2958333;-0.35000
2961110;-0.34500
2963888;-0.34500
2966666;-0.33500
2969444;-0.33500
2972221;-0.32500
2974999;-0.34000
2977777;-0.34000
2980555;-0.33500
2983332;-0.31500
2986110;-0.29000
2988888;-0.28500
2991666;-0.28500
2994444;-0.28000
2997221;-0.27500
2999999;-0.26500
3002777;-0.27000
3005555;-0.27500
3008332;-0.28000
3011110;-0.28500
3013888;-0.28500
3016666;-0.27500
3019444;-0.26500
3022221;-0.26000
3024999;-0.26000
3027777;-0.25500
3030555;-0.23000
3033332;-0.21500
3036110;-0.22500
3038888;-0.23000
3041666;-0.25500
3044444;-0.26500
3047221;-0.25000
3049999;-0.25500
3052777;-0.24500
3055555;-0.25500
3058332;-0.25000
3061110;-0.26500
3063888;-0.25500
3066666;-0.25500
3069444;-0.24500
3072221;-0.24000
3074999;-0.23000
3077777;-0.24000
3080555;-0.26000
3083332;-0.29000
3086110;-0.30500
3088888;-0.33000
3091666;-0.35000
3094444;-0.38000
3097221;-0.38000
3099999;-0.35500
3102777;-0.35500
3105555;-0.35500
3108332;-0.37500
3111110;-0.39000
3113888;-0.38500
3116666;-0.37500
3119444;-0.36500
3122221;-0.36000
3124999;-0.37500
3127777;-0.39000
3130555;-0.37000
3133332;-0.36000
3136110;-0.36500
3138888;-0.37500
3141666;-0.38500
3144444;-0.39500
3147221;-0.38500
3149999;-0.38000
3152777;-0.38000
3155555;-0.37000
3158332;-0.38000
3161110;-0.40000
3163888;-0.39500
3166666;-0.39500
3169444;-0.42000
3172221;-0.47500
3174999;-0.50000
3177777;-0.54500
3180555;-0.57500
3183332;-0.58500
3186110;-0.56500
3188888;-0.46500
3191666;-0.34000
3194444;-0.19000
3197221;-0.00500
3199999;0.24000
3202777;0.50500
3205555;0.72500
3208332;0.86000
3211110;0.88500
3213888;0.76000
3216666;0.45000
3219444;0.07000
3222221;-0.25000
3224999;-0.45000
3227777;-0.53000
3230555;-0.51500
3233332;-0.46500
3236110;-0.43500
3238888;-0.41500
3241666;-0.42000
3244444;-0.42000
3247221;-0.41000
3249999;-0.39500
3252777;-0.39500
3255555;-0.38500
3258332;-0.40000
3261110;-0.42000
3263888;-0.40500
3266666;-0.40500
3269444;-0.42500
3272221;-0.42500
3274999;-0.43000
3277777;-0.44000
3280555;-0.43000
3283332;-0.42500
3286110;-0.40500
3288888;-0.41000
3291666;-0.42000
3294444;-0.43000
3297221;-0.41000
3299999;-0.41000
3302777;-0.42000
3305555;-0.41500
3308332;-0.42000
3311110;-0.42000
3313888;-0.40500
3316666;-0.40500
3319444;-0.42000
3322221;-0.43000
3324999;-0.44000
3327777;-0.45000
3330555;-0.44500
3333332;-0.42500
3336110;-0.41500
3338888;-0.43000
3341666;-0.43500
3344444;-0.43000
3347221;-0.43000
3349999;-0.42000
3352777;-0.41000
3355555;-0.41500
3358332;-0.41500
3361110;-0.41000
3363888;-0.40500
3366666;-0.40000
3369444;-0.41000
3372221;-0.41500
3374999;-0.44000
3377777;-0.44000
3380555;-0.45500
3383332;-0.43500
3386110;-0.44000
3388888;-0.44500
3391666;-0.44500
3394443;-0.45500
3397221;-0.45000
3399999;-0.44000
3402777;-0.44000
3405555;-0.44500
3408332;-0.44000
3411110;-0.44500
3413888;-0.45000
3416666;-0.42500
3419443;-0.44500
3422221;-0.44000
3424999;-0.45000
3427777;-0.46000
3430555;-0.44500
3433332;-0.45500
3436110;-0.45500
3438888;-0.46000
3441666;-0.44500
3444443;-0.45500
3447221;-0.45500
3449999;-0.46000
3452777;-0.45500
3455555;-0.47500
3458332;-0.47500
3461110;-0.48500
3463888;-0.49000
3466666;-0.49000
3469443;-0.50000
3472221;-0.51000
3474999;-0.51500
3477777;-0.52000
3480555;-0.52500
3483332;-0.52500
3486110;-0.52000
3488888;-0.51500
3491666;-0.51000
3494443;-0.51000
3497221;-0.50500
3499999;-0.49000
3502777;-0.48500
3505555;-0.47500
3508332;-0.48000
3511110;-0.46500
3513888;-0.45000
3516666;-0.44500
3519443;-0.43500
3522221;-0.41500
3524999;-0.41500
3527777;-0.40000
3530555;-0.40000
3533332;-0.39500
3536110;-0.39000
3538888;-0.40000
3541666;-0.39000
3544443;-0.37500
3547221;-0.35500
3549999;-0.37000
3552777;-0.35500
3555555;-0.36000
3558332;-0.37500
3561110;-0.38000
3563888;-0.37500
3566666;-0.36000
3569443;-0.35500
3572221;-0.36500
3574999;-0.36000
3577777;-0.36500
3580555;-0.35000
3583332;-0.35500
3586110;-0.34500
3588888;-0.36500
3591666;-0.38000
3594443;-0.39000
3597221;-0.38500
3599999;-0.37000
3602777;-0.37000
3605555;-0.37000
3608332;-0.38500
3611110;-0.38500
3613888;-0.38500
3616666;-0.39000
3619443;-0.36000
3622221;-0.38000
3624999;-0.37000
3627777;-0.38500
3630555;-0.39000
3633332;-0.38000
3636110;-0.38000
3638888;-0.38500
3641666;-0.38500
3644443;-0.38000
3647221;-0.38000
3649999;-0.37000
3652777;-0.38500
3655555;-0.39000
3658332;-0.41000
3661110;-0.41000
3663888;-0.39000
3666666;-0.38000
3669443;-0.39000
3672221;-0.39000
3674999;-0.41000
3677777;-0.41500
3680555;-0.40500
3683332;-0.41000
3686110;-0.40500
3688888;-0.40500
3691666;-0.41000
3694443;-0.40500
3697221;-0.40000
3699999;-0.39500
3702777;-0.40500
3705555;-0.41000
3708332;-0.41500
3711110;-0.42500
3713888;-0.42500
3716666;-0.41000
3719443;-0.41000
3722221;-0.42000
3724999;-0.43500
3727777;-0.44500
3730555;-0.45000
3733332;-0.44000
3736110;-0.44000
3738888;-0.42500
3741666;-0.41500
3744443;-0.42000
3747221;-0.40500
3749999;-0.41000
3752777;-0.40500
3755555;-0.42000
3758332;-0.42500
3761110;-0.44000
3763888;-0.43000
3766666;-0.41500
3769443;-0.41000
3772221;-0.40500
3774999;-0.41500
3777777;-0.42500
3780554;-0.42000
3783332;-0.40000
3786110;-0.41500
3788888;-0.42000
3791666;-0.42500
3794443;-0.44000
3797221;-0.43000
3799999;-0.41500
3802777;-0.41000
3805554;-0.41000
3808332;-0.41500
3811110;-0.42500
3813888;-0.42000
3816666;-0.41000
3819443;-0.40000
3822221;-0.40500
3824999;-0.38500
3827777;-0.39500
3830554;-0.38000
3833332;-0.37000
3836110;-0.36000
3838888;-0.36500
3841666;-0.35500
3844443;-0.35000
3847221;-0.32500
3849999;-0.30500
3852777;-0.30500
3855554;-0.31500
3858332;-0.32500
3861110;-0.34000
3863888;-0.32500
3866666;-0.31000
3869443;-0.31500
3872221;-0.32000
3874999;-0.31500
3877777;-0.34000
3880554;-0.35000
3883332;-0.34000
3886110;-0.33000
3888888;-0.33000
3891666;-0.34000
3894443;-0.36000
3897221;-0.37000
3899999;-0.34000
3902777;-0.32000
3905554;-0.31500
3908332;-0.33000
3911110;-0.35000
3913888;-0.37500
3916666;-0.39000
3919443;-0.40000
3922221;-0.42000
3924999;-0.43500
3927777;-0.44500
3930554;-0.44000
3933332;-0.44500
3936110;-0.44000
3938888;-0.44500
3941666;-0.44000
3944443;-0.46000
3947221;-0.43000
3949999;-0.43000
3952777;-0.42500
3955554;-0.43000
3958332;-0.44000
3961110;-0.45000
3963888;-0.44000
3966666;-0.44500
3969443;-0.44500
3972221;-0.44000
3974999;-0.45000
3977777;-0.45500
3980554;-0.44500
3983332;-0.45000
3986110;-0.44500
3988888;-0.46000
3991666;-0.45500
3994443;-0.46500
3997221;-0.45000
3999999;-0.44500
4002777;-0.43500
4005554;-0.45500
4008332;-0.50000
4011110;-0.54000
4013888;-0.56500
4016666;-0.57500
4019443;-0.60000
4022221;-0.64000
4024999;-0.65000
4027777;-0.61000
4030554;-0.48000
4033332;-0.32500
4036110;-0.15000
4038888;0.06000
4041666;0.29500
4044443;0.57000
4047221;0.79500
4049999;0.93000
4052777;0.91000
4055554;0.67500
4058332;0.27500
4061110;-0.17000
4063888;-0.44500
4066666;-0.54500
4069443;-0.54500
4072221;-0.52000
4074999;-0.49500
4077777;-0.48500
4080554;-0.48500
4083332;-0.47500
