time_ms;ecg_value
0;0.73500
2778;0.84500
5556;0.87500
8333;0.73500
11111;0.40000
13889;-0.02500
16667;-0.33500
19444;-0.48000
22222;-0.47000
25000;-0.41500
27778;-0.37500
30556;-0.36500
33333;-0.38500
36111;-0.40000
38889;-0.38000
41667;-0.39000
44444;-0.37500
47222;-0.38500
50000;-0.39500
52778;-0.40500
55556;-0.39000
58333;-0.38000
61111;-0.38500
63889;-0.38500
66667;-0.39500
69444;-0.40000
72222;-0.40500
75000;-0.40000
77778;-0.39000
80556;-0.39000
83333;-0.39500
86111;-0.40000
88889;-0.39000
91667;-0.38500
94444;-0.39000
97222;-0.38500
100000;-0.41000
102778;-0.42000
105556;-0.40500
108333;-0.41000
111111;-0.39000
113889;-0.39000
116667;-0.39000
119444;-0.40000
122222;-0.40000
125000;-0.39000
127778;-0.37500
130556;-0.38000
133333;-0.39500
136111;-0.40000
138889;-0.39000
141667;-0.40000
144444;-0.39000
147222;-0.39500
150000;-0.41000
152778;-0.41500
155556;-0.40500
158333;-0.38500
161111;-0.38500
163889;-0.38000
166667;-0.40000
169444;-0.40000
172222;-0.39500
175000;-0.39000
177778;-0.38000
180556;-0.37500
183333;-0.39500
186111;-0.39500
188889;-0.38500
191667;-0.38000
194444;-0.37500
197222;-0.38500
200000;-0.39000
202778;-0.40000
205555;-0.40000
208333;-0.38500
211111;-0.38000
213889;-0.39500
216667;-0.39000
219444;-0.40000
222222;-0.39500
225000;-0.38500
227778;-0.38000
230555;-0.38500
233333;-0.39500
236111;-0.40500
238889;-0.40000
241667;-0.39000
244444;-0.38000
247222;-0.38000
250000;-0.38500
252778;-0.40500
255555;-0.39500
258333;-0.40000
261111;-0.39000
263889;-0.40000
266667;-0.40500
269444;-0.42500
272222;-0.42000
275000;-0.40500
277778;-0.40000
280555;-0.40500
283333;-0.40500
286111;-0.41500
288889;-0.40000
291667;-0.39000
294444;-0.38000
297222;-0.38500
300000;-0.39500
302778;-0.40500
305555;-0.39000
308333;-0.37000
311111;-0.37000
313889;-0.37000
316667;-0.38500
319444;-0.37000
322222;-0.35500
325000;-0.34500
327778;-0.34000
330555;-0.33500
333333;-0.34000
336111;-0.35500
338889;-0.33500
341667;-0.32500
344444;-0.31000
347222;-0.30500
350000;-0.30500
352778;-0.32000
355555;-0.31500
358333;-0.31000
361111;-0.30500
363889;-0.30500
366667;-0.33000
369444;-0.32500
372222;-0.34500
375000;-0.32500
377778;-0.31500
380555;-0.31500
383333;-0.30500
386111;-0.31000
388889;-0.31000
391667;-0.30000
394444;-0.30500
397222;-0.30500
400000;-0.31500
402778;-0.32000
405555;-0.32500
408333;-0.31500
411111;-0.30500
413889;-0.31500
416667;-0.32500
419444;-0.32500
422222;-0.33000
425000;-0.31500
427778;-0.31500
430555;-0.31000
433333;-0.33000
436111;-0.34000
438889;-0.33500
441667;-0.33000
444444;-0.34500
447222;-0.35500
450000;-0.36500
452778;-0.37000
455555;-0.34500
458333;-0.34000
461111;-0.34000
463889;-0.34500
466667;-0.36000
469444;-0.36500
472222;-0.36000
475000;-0.36000
477778;-0.34500
480555;-0.35500
483333;-0.36500
486111;-0.35000
488889;-0.36000
491667;-0.35000
494444;-0.34000
497222;-0.34500
500000;-0.35500
502778;-0.37000
505555;-0.35000
508333;-0.35000
511111;-0.35000
513889;-0.34500
516667;-0.35000
519444;-0.35500
522222;-0.36000
525000;-0.34500
527778;-0.35500
530555;-0.35000
533333;-0.36000
536111;-0.37000
538889;-0.35500
541667;-0.35500
544444;-0.35000
547222;-0.35500
550000;-0.36000
552778;-0.39000
555555;-0.38500
558333;-0.36000
561111;-0.36000
563889;-0.37000
566667;-0.37000
569444;-0.39000
572222;-0.37500
575000;-0.37000
577778;-0.35000
580555;-0.34000
583333;-0.34500
586111;-0.36000
588889;-0.36000
591667;-0.35000
594444;-0.35000
597222;-0.33500
600000;-0.36000
602778;-0.36500
605555;-0.36500
608333;-0.36000
611111;-0.36000
613889;-0.36500
616666;-0.37500
619444;-0.38500
622222;-0.38500
625000;-0.36500
627778;-0.37000
630555;-0.37500
633333;-0.37000
636111;-0.37500
638889;-0.36500
641666;-0.35500
644444;-0.35500
647222;-0.36000
650000;-0.36500
652778;-0.37000
655555;-0.36000
658333;-0.35000
661111;-0.34000
663889;-0.34500
666666;-0.34000
669444;-0.35000
672222;-0.34500
675000;-0.35000
677778;-0.36000
680555;-0.35000
683333;-0.36000
686111;-0.37000
688889;-0.36000
691666;-0.36000
694444;-0.35500
697222;-0.36000
700000;-0.37500
702778;-0.37500
705555;-0.37000
708333;-0.35000
711111;-0.35500
713889;-0.36000
716666;-0.36500
719444;-0.37500
722222;-0.37000
725000;-0.36500
727778;-0.36000
730555;-0.35500
733333;-0.36000
736111;-0.36000
738889;-0.35000
741666;-0.34000
744444;-0.34500
747222;-0.34500
750000;-0.35500
752778;-0.36000
755555;-0.36000
758333;-0.36500
761111;-0.34500
763889;-0.35500
766666;-0.35000
769444;-0.36000
772222;-0.35500
775000;-0.36000
777778;-0.34500
780555;-0.33500
783333;-0.33000
786111;-0.33000
788889;-0.31000
791666;-0.30500
794444;-0.30000
797222;-0.30500
800000;-0.29500
802778;-0.30500
805555;-0.28500
808333;-0.27500
811111;-0.26500
813889;-0.25500
816666;-0.25500
819444;-0.26000
822222;-0.26500
825000;-0.25500
827778;-0.25500
830555;-0.26000
833333;-0.28000
836111;-0.29000
838889;-0.28000
841666;-0.27000
844444;-0.25500
847222;-0.27500
850000;-0.29000
852778;-0.32000
855555;-0.30000
858333;-0.29500
861111;-0.27000
863889;-0.26500
866666;-0.27000
869444;-0.28500
872222;-0.30000
875000;-0.31000
877778;-0.31500
880555;-0.32000
883333;-0.35000
886111;-0.37000
888889;-0.36500
891666;-0.36500
894444;-0.36500
897222;-0.37000
900000;-0.37000
902778;-0.37000
905555;-0.38000
908333;-0.36000
911111;-0.37500
913889;-0.37500
916666;-0.40000
919444;-0.42000
922222;-0.40500
925000;-0.40000
927778;-0.38500
930555;-0.38000
933333;-0.40000
936111;-0.41500
938889;-0.40500
941666;-0.39500
944444;-0.39500
947222;-0.39500
950000;-0.41000
952778;-0.43000
955555;-0.44000
958333;-0.45500
961111;-0.49000
963889;-0.48500
966666;-0.52000
969444;-0.57000
972222;-0.57500
975000;-0.52500
977778;-0.42000
980555;-0.30500
983333;-0.19000
986111;-0.02000
988889;0.22000
991666;0.48500
994444;0.71500
997222;0.84500
1000000;0.88500
1002777;0.79000
1005555;0.56000
1008333;0.22500
1011111;-0.07000
1013889;-0.28500
1016666;-0.42500
1019444;-0.50000
1022222;-0.55000
1025000;-0.53500
1027777;-0.50000
1030555;-0.46500
1033333;-0.45000
1036111;-0.45000
1038889;-0.43500
1041666;-0.42000
1044444;-0.41000
1047222;-0.41000
1050000;-0.41500
1052777;-0.42000
1055555;-0.42500
1058333;-0.42000
1061111;-0.43000
1063889;-0.43000
1066666;-0.44000
1069444;-0.45000
1072222;-0.45000
1075000;-0.43000
1077777;-0.43000
1080555;-0.43000
1083333;-0.44500
1086111;-0.44500
1088889;-0.44000
1091666;-0.42500
1094444;-0.43000
1097222;-0.43000
1100000;-0.42500
1102777;-0.44500
1105555;-0.44500
1108333;-0.43000
1111111;-0.43500
1113889;-0.43500
1116666;-0.44500
1119444;-0.44500
1122222;-0.43500
1125000;-0.43000
1127777;-0.42500
1130555;-0.43000
1133333;-0.43000
1136111;-0.44000
1138889;-0.42000
1141666;-0.43000
1144444;-0.42500
1147222;-0.43000
1150000;-0.44000
1152777;-0.44000
1155555;-0.43000
1158333;-0.43000
1161111;-0.41500
1163889;-0.42500
1166666;-0.43000
1169444;-0.45500
1172222;-0.44500
1175000;-0.44500
1177777;-0.43000
1180555;-0.43000
1183333;-0.44000
1186111;-0.44000
1188889;-0.43500
1191666;-0.43000
1194444;-0.41500
1197222;-0.41500
1200000;-0.42500
1202777;-0.42500
1205555;-0.42000
1208333;-0.40500
1211111;-0.40500
1213889;-0.41500
1216666;-0.41500
1219444;-0.42500
1222222;-0.43000
1225000;-0.40500
1227777;-0.40500
1230555;-0.40500
1233333;-0.40500
1236111;-0.43000
1238889;-0.41500
1241666;-0.41000
1244444;-0.41500
1247222;-0.43000
1250000;-0.44500
1252777;-0.46500
1255555;-0.46000
1258333;-0.45000
1261111;-0.45500
1263889;-0.46000
1266666;-0.46500
1269444;-0.48500
1272222;-0.49500
1275000;-0.47500
1277777;-0.49000
1280555;-0.50000
1283333;-0.49500
1286111;-0.51500
1288889;-0.50000
1291666;-0.48500
1294444;-0.49000
1297222;-0.48500
1300000;-0.50000
1302777;-0.50000
1305555;-0.49000
1308333;-0.48000
1311111;-0.46000
1313889;-0.46000
1316666;-0.47000
1319444;-0.46500
1322222;-0.44000
1325000;-0.43000
1327777;-0.42500
1330555;-0.41000
1333333;-0.41000
1336111;-0.40000
1338889;-0.39000
1341666;-0.38000
1344444;-0.35500
1347222;-0.35000
1350000;-0.35500
1352777;-0.35000
1355555;-0.34000
1358333;-0.33000
1361111;-0.32500
1363889;-0.30500
1366666;-0.32000
1369444;-0.31500
1372222;-0.30500
1375000;-0.30000
1377777;-0.30500
1380555;-0.30500
1383333;-0.31000
1386111;-0.33000
1388888;-0.31000
1391666;-0.31500
1394444;-0.31500
1397222;-0.32000
1400000;-0.32500
1402777;-0.32500
1405555;-0.32500
1408333;-0.31000
1411111;-0.31000
1413888;-0.31500
1416666;-0.32500
1419444;-0.33000
1422222;-0.32500
1425000;-0.32500
1427777;-0.31500
1430555;-0.32000
1433333;-0.33000
1436111;-0.33500
1438888;-0.33000
1441666;-0.31500
1444444;-0.32000
1447222;-0.32000
1450000;-0.33500
1452777;-0.33500
1455555;-0.32500
1458333;-0.32500
1461111;-0.32000
1463888;-0.32000
1466666;-0.32500
1469444;-0.35000
1472222;-0.34500
1475000;-0.34500
1477777;-0.33500
1480555;-0.34500
1483333;-0.35500
1486111;-0.35500
1488888;-0.35500
1491666;-0.34500
1494444;-0.33500
1497222;-0.33500
1500000;-0.34500
1502777;-0.35500
1505555;-0.34000
1508333;-0.33500
1511111;-0.33000
1513888;-0.33500
1516666;-0.34500
1519444;-0.35000
1522222;-0.35000
1525000;-0.34000
1527777;-0.33500
1530555;-0.33000
1533333;-0.36000
1536111;-0.35500
1538888;-0.34500
1541666;-0.33500
1544444;-0.34500
1547222;-0.35000
1550000;-0.36000
1552777;-0.38000
1555555;-0.37000
1558333;-0.34500
1561111;-0.34500
1563888;-0.35000
1566666;-0.35500
1569444;-0.36500
1572222;-0.36000
1575000;-0.34500
1577777;-0.34500
1580555;-0.35000
1583333;-0.36000
1586111;-0.36000
1588888;-0.35000
1591666;-0.35500
1594444;-0.34000
1597222;-0.34500
1600000;-0.35500
1602777;-0.35500
1605555;-0.35500
1608333;-0.34000
1611111;-0.34000
1613888;-0.34500
1616666;-0.36500
1619444;-0.37000
1622222;-0.35000
1625000;-0.33000
1627777;-0.32000
1630555;-0.31500
1633333;-0.29500
1636111;-0.30500
1638888;-0.29500
1641666;-0.30000
1644444;-0.28500
1647222;-0.27500
1650000;-0.26000
1652777;-0.27500
1655555;-0.26500
1658333;-0.26000
1661111;-0.25000
1663888;-0.24500
1666666;-0.25500
1669444;-0.26500
1672222;-0.26000
1675000;-0.26000
1677777;-0.25000
1680555;-0.26000
1683333;-0.28000
1686111;-0.28000
1688888;-0.27500
1691666;-0.28500
1694444;-0.28000
1697222;-0.25500
1700000;-0.24500
1702777;-0.24500
1705555;-0.26000
1708333;-0.28500
1711111;-0.29000
1713888;-0.30000
1716666;-0.32000
1719444;-0.33500
1722222;-0.35500
1725000;-0.35000
1727777;-0.35500
1730555;-0.35500
1733333;-0.37500
1736111;-0.38500
1738888;-0.38000
1741666;-0.36000
1744444;-0.35000
1747222;-0.36000
1750000;-0.36500
1752777;-0.37000
1755555;-0.37000
1758333;-0.36500
1761111;-0.36000
1763888;-0.36500
1766666;-0.37000
1769444;-0.38500
1772222;-0.38500
1775000;-0.36500
1777777;-0.36000
1780555;-0.38000
1783333;-0.38500
1786111;-0.39500
1788888;-0.39500
1791666;-0.38500
1794444;-0.38000
1797222;-0.39500
1799999;-0.42500
1802777;-0.46500
1805555;-0.50000
1808333;-0.51500
1811111;-0.53000
1813888;-0.56000
1816666;-0.58500
1819444;-0.53000
1822222;-0.41000
1824999;-0.25500
1827777;-0.10500
1830555;0.10500
1833333;0.35500
1836111;0.60000
1838888;0.81000
1841666;0.89000
1844444;0.83000
1847222;0.58000
1849999;0.18500
1852777;-0.20500
1855555;-0.45000
1858333;-0.52500
1861111;-0.49500
1863888;-0.46500
1866666;-0.43500
1869444;-0.41500
1872222;-0.41500
1874999;-0.41500
1877777;-0.40000
1880555;-0.39500
1883333;-0.40500
1886111;-0.42500
1888888;-0.43500
1891666;-0.41500
1894444;-0.41500
1897222;-0.41500
1899999;-0.41500
1902777;-0.43000
1905555;-0.42000
1908333;-0.41000
1911111;-0.40500
1913888;-0.42000
1916666;-0.41000
1919444;-0.42000
1922222;-0.40000
1924999;-0.39500
1927777;-0.38500
1930555;-0.40000
1933333;-0.40000
1936111;-0.40000
1938888;-0.40000
1941666;-0.39500
1944444;-0.40000
1947222;-0.40000
1949999;-0.40000
1952777;-0.41000
1955555;-0.39500
1958333;-0.41000
1961111;-0.40000
1963888;-0.39500
1966666;-0.40500
1969444;-0.41000
1972222;-0.41500
1974999;-0.40500
1977777;-0.40000
1980555;-0.39500
1983333;-0.40500
1986111;-0.41500
1988888;-0.40500
1991666;-0.41500
1994444;-0.41000
1997222;-0.40500
1999999;-0.40500
2002777;-0.41000
2005555;-0.40500
2008333;-0.40000
2011111;-0.39500
2013888;-0.40500
2016666;-0.40500
2019444;-0.40000
2022222;-0.39500
2024999;-0.39000
2027777;-0.39500
2030555;-0.39000
2033333;-0.39500
2036111;-0.42000
2038888;-0.41500
2041666;-0.40500
2044444;-0.40000
2047222;-0.40000
2049999;-0.41500
2052777;-0.42000
2055555;-0.41000
2058333;-0.39500
2061111;-0.40000
2063888;-0.40500
2066666;-0.41500
2069444;-0.43500
2072222;-0.41500
2074999;-0.41500
2077777;-0.40000
2080555;-0.40500
2083333;-0.42000
2086111;-0.43000
2088888;-0.42500
2091666;-0.41000
2094444;-0.41000
2097222;-0.40500
2099999;-0.41500
2102777;-0.42500
2105555;-0.42500
2108333;-0.42000
2111111;-0.41000
2113888;-0.41000
2116666;-0.42000
2119444;-0.43000
2122222;-0.42500
2124999;-0.42000
2127777;-0.40500
2130555;-0.41500
2133333;-0.41000
2136111;-0.41000
2138888;-0.38500
2141666;-0.37000
2144444;-0.36000
2147222;-0.35000
2149999;-0.35000
2152777;-0.35000
2155555;-0.33500
2158333;-0.32000
2161111;-0.30500
2163888;-0.31500
2166666;-0.31500
2169444;-0.32000
2172222;-0.30500
2174999;-0.30500
2177777;-0.29500
2180555;-0.29000
2183333;-0.29500
2186110;-0.29500
2188888;-0.28500
2191666;-0.28500
2194444;-0.27000
2197222;-0.28000
2199999;-0.28000
2202777;-0.29500
2205555;-0.28000
2208333;-0.28500
2211110;-0.27500
2213888;-0.28500
2216666;-0.29500
2219444;-0.30500
2222222;-0.29500
2224999;-0.28500
2227777;-0.28500
2230555;-0.29000
2233333;-0.30000
2236110;-0.31000
2238888;-0.29500
2241666;-0.30000
2244444;-0.29000
2247222;-0.28500
2249999;-0.30500
2252777;-0.31000
2255555;-0.30000
2258333;-0.29500
2261110;-0.30500
2263888;-0.30000
2266666;-0.30500
2269444;-0.32000
2272222;-0.32000
2274999;-0.31000
2277777;-0.30000
2280555;-0.31000
2283333;-0.32000
2286110;-0.34000
2288888;-0.33000
2291666;-0.31000
2294444;-0.31500
2297222;-0.32500
2299999;-0.32500
2302777;-0.34500
2305555;-0.33000
2308333;-0.32000
2311110;-0.32000
2313888;-0.33500
2316666;-0.33500
2319444;-0.35500
2322222;-0.34000
2324999;-0.32000
2327777;-0.31500
2330555;-0.33000
2333333;-0.34000
2336110;-0.34000
2338888;-0.35000
2341666;-0.33000
2344444;-0.33000
2347222;-0.34000
2349999;-0.35000
2352777;-0.35500
2355555;-0.34500
2358333;-0.33500
2361110;-0.33500
2363888;-0.34000
2366666;-0.34000
2369444;-0.34500
2372222;-0.33500
2374999;-0.33500
2377777;-0.32500
2380555;-0.32500
2383333;-0.33500
2386110;-0.34000
2388888;-0.34000
2391666;-0.32000
2394444;-0.31500
2397222;-0.32000
2399999;-0.33500
2402777;-0.33500
2405555;-0.32000
2408333;-0.32500
2411110;-0.31500
2413888;-0.32000
2416666;-0.32000
2419444;-0.34500
2422222;-0.33500
2424999;-0.32000
2427777;-0.31000
2430555;-0.32000
2433333;-0.32000
2436110;-0.34000
2438888;-0.33000
2441666;-0.32000
2444444;-0.31000
2447222;-0.31000
2449999;-0.31000
2452777;-0.29500
2455555;-0.28000
2458333;-0.25500
2461110;-0.25000
2463888;-0.25000
2466666;-0.25500
2469444;-0.26000
2472222;-0.24000
2474999;-0.22000
2477777;-0.23000
2480555;-0.23000
2483333;-0.21500
2486110;-0.22000
2488888;-0.22500
2491666;-0.23000
2494444;-0.23000
2497222;-0.23500
2499999;-0.24500
2502777;-0.25500
2505555;-0.24000
2508333;-0.23500
2511110;-0.24500
2513888;-0.23500
2516666;-0.23000
2519444;-0.22000
2522222;-0.19500
2524999;-0.22000
2527777;-0.24500
2530555;-0.26000
2533333;-0.27000
2536110;-0.29000
2538888;-0.30000
2541666;-0.30500
2544444;-0.30500
2547222;-0.32000
2549999;-0.33000
2552777;-0.35000
2555555;-0.35000
2558333;-0.33500
2561110;-0.33500
2563888;-0.33500
2566666;-0.34000
2569444;-0.35000
2572222;-0.35000
2574999;-0.34500
2577777;-0.33500
2580555;-0.34500
2583333;-0.35500
2586110;-0.37000
2588888;-0.35000
2591666;-0.34500
2594444;-0.33500
2597221;-0.33500
2599999;-0.33500
2602777;-0.35500
2605555;-0.35500
2608333;-0.34500
2611110;-0.35500
2613888;-0.39500
2616666;-0.45000
2619444;-0.48000
2622221;-0.50500
2624999;-0.52500
2627777;-0.54500
2630555;-0.50000
2633333;-0.39500
2636110;-0.25500
2638888;-0.07000
2641666;0.14500
2644444;0.42500
2647221;0.68500
2649999;0.87500
2652777;0.92500
2655555;0.79500
2658333;0.47000
2661110;0.02000
2663888;-0.32500
2666666;-0.47000
2669444;-0.48500
2672221;-0.41000
2674999;-0.36500
2677777;-0.35500
2680555;-0.36500
2683333;-0.38000
2686110;-0.38500
2688888;-0.38000
2691666;-0.37000
2694444;-0.37000
2697221;-0.37500
2699999;-0.38500
2702777;-0.39500
2705555;-0.38500
2708333;-0.38000
2711110;-0.38500
2713888;-0.37500
2716666;-0.39000
2719444;-0.40500
2722221;-0.40500
2724999;-0.39000
2727777;-0.38500
2730555;-0.38500
2733333;-0.39000
2736110;-0.41000
2738888;-0.40000
2741666;-0.39000
2744444;-0.38500
2747221;-0.38500
2749999;-0.39500
2752777;-0.39000
2755555;-0.39500
2758333;-0.38000
2761110;-0.37500
2763888;-0.38000
2766666;-0.38500
2769444;-0.40000
2772221;-0.38500
2774999;-0.38000
2777777;-0.37500
2780555;-0.38000
2783333;-0.39500
2786110;-0.39500
2788888;-0.38500
2791666;-0.37500
2794444;-0.37000
2797221;-0.36500
2799999;-0.38500
2802777;-0.39500
2805555;-0.38500
2808333;-0.38500
2811110;-0.37000
2813888;-0.37500
2816666;-0.37000
2819444;-0.37500
2822221;-0.37500
2824999;-0.37000
2827777;-0.35500
2830555;-0.36500
2833333;-0.38000
2836110;-0.37500
2838888;-0.37000
2841666;-0.38000
2844444;-0.36500
2847221;-0.37000
2849999;-0.37500
2852777;-0.39000
2855555;-0.38000
2858333;-0.37500
2861110;-0.38000
2863888;-0.37000
2866666;-0.37500
2869444;-0.38000
2872221;-0.38500
2874999;-0.38500
2877777;-0.37000
2880555;-0.37500
2883333;-0.37500
2886110;-0.38000
2888888;-0.38000
2891666;-0.38000
2894444;-0.38000
2897221;-0.37500
2899999;-0.39000
2902777;-0.39500
2905555;-0.38500
2908333;-0.38500
2911110;-0.37500
2913888;-0.37500
2916666;-0.38500
2919444;-0.38500
2922221;-0.39000
2924999;-0.37000
2927777;-0.36500
2930555;-0.36500
2933333;-0.37500
2936110;-0.38500
2938888;-0.35000
2941666;-0.34500
2944444;-0.32500
2947221;-0.32500
2949999;-0.33000
2952777;-0.32500
2955555;-0.32500
2958333;-0.31500
2961110;-0.31500
2963888;-0.31500
2966666;-0.30000
2969444;-0.30000
2972221;-0.28500
2974999;-0.27000
2977777;-0.26500
2980555;-0.26000
2983332;-0.27500
2986110;-0.28500
2988888;-0.26500
2991666;-0.25500
2994444;-0.25000
2997221;-0.27000
2999999;-0.28000
3002777;-0.28500
3005555;-0.28500
3008332;-0.28000
3011110;-0.27000
3013888;-0.27000
3016666;-0.27000
3019444;-0.28500
3022221;-0.28000
3024999;-0.27500
3027777;-0.27000
3030555;-0.26500
3033332;-0.27500
3036110;-0.29000
3038888;-0.28500
3041666;-0.28500
3044444;-0.27500
3047221;-0.27000
3049999;-0.28000
3052777;-0.29500
3055555;-0.28000
3058332;-0.27000
3061110;-0.27000
3063888;-0.27500
3066666;-0.28500
3069444;-0.30000
3072221;-0.29500
3074999;-0.29000
3077777;-0.29500
3080555;-0.30000
3083332;-0.29000
3086110;-0.30500
3088888;-0.29500
3091666;-0.29000
3094444;-0.29500
3097221;-0.29000
3099999;-0.31000
3102777;-0.32000
3105555;-0.31500
3108332;-0.31500
3111110;-0.30000
3113888;-0.30500
3116666;-0.31500
3119444;-0.33000
3122221;-0.32000
3124999;-0.30500
3127777;-0.31500
3130555;-0.30500
3133332;-0.31500
3136110;-0.32500
3138888;-0.31000
3141666;-0.29500
3144444;-0.30000
3147221;-0.30500
3149999;-0.31000
3152777;-0.32500
3155555;-0.31500
3158332;-0.31500
3161110;-0.30500
3163888;-0.30500
3166666;-0.32500
3169444;-0.32000
3172221;-0.32000
3174999;-0.31000
3177777;-0.30500
3180555;-0.32000
3183332;-0.32000
3186110;-0.32000
3188888;-0.31000
3191666;-0.30500
3194444;-0.29000
3197221;-0.28500
3199999;-0.29000
3202777;-0.30500
3205555;-0.31000
3208332;-0.30000
3211110;-0.30000
3213888;-0.31000
3216666;-0.31500
3219444;-0.31500
3222221;-0.31000
3224999;-0.29500
3227777;-0.30000
3230555;-0.29500
3233332;-0.31500
3236110;-0.31000
3238888;-0.29000
3241666;-0.26500
3244444;-0.24000
3247221;-0.25500
3249999;-0.24000
3252777;-0.25000
3255555;-0.22500
3258332;-0.22500
3261110;-0.21500
3263888;-0.21000
3266666;-0.20000
3269444;-0.19500
3272221;-0.19500
3274999;-0.18000
3277777;-0.17500
3280555;-0.18000
3283332;-0.20500
3286110;-0.21500
3288888;-0.21000
3291666;-0.21000
3294444;-0.21000
3297221;-0.21000
3299999;-0.21500
3302777;-0.22500
3305555;-0.21000
3308332;-0.18000
3311110;-0.17000
3313888;-0.18500
3316666;-0.24000
3319444;-0.25500
3322221;-0.25500
3324999;-0.27000
3327777;-0.27500
3330555;-0.28500
3333332;-0.30000
3336110;-0.30000
3338888;-0.31500
3341666;-0.30500
3344444;-0.30000
3347221;-0.29500
3349999;-0.30000
3352777;-0.31500
3355555;-0.31000
3358332;-0.31000
3361110;-0.30000
3363888;-0.30000
3366666;-0.30500
3369444;-0.31500
3372221;-0.32500
3374999;-0.32000
3377777;-0.32000
3380555;-0.32000
3383332;-0.32500
3386110;-0.34000
3388888;-0.33500
3391666;-0.32500
3394443;-0.31500
3397221;-0.32000
3399999;-0.34500
3402777;-0.37000
3405555;-0.39500
3408332;-0.42500
3411110;-0.44500
3413888;-0.46500
3416666;-0.51000
3419443;-0.53000
3422221;-0.48500
3424999;-0.37000
3427777;-0.23500
3430555;-0.09000
3433332;0.10500
3436110;0.37500
3438888;0.65500
3441666;0.82000
3444443;0.86500
3447221;0.73500
3449999;0.45000
3452777;0.06000
3455555;-0.27000
3458332;-0.43000
3461110;-0.46000
3463888;-0.41500
3466666;-0.38500
3469443;-0.36500
3472221;-0.35500
3474999;-0.35500
3477777;-0.34500
3480555;-0.35000
3483332;-0.35000
3486110;-0.36000
3488888;-0.34500
3491666;-0.34000
3494443;-0.34000
3497221;-0.33500
3499999;-0.33500
3502777;-0.35500
3505555;-0.34500
3508332;-0.34000
3511110;-0.33500
3513888;-0.34000
3516666;-0.35000
3519443;-0.36500
3522221;-0.36000
3524999;-0.36500
3527777;-0.35000
3530555;-0.34500
3533332;-0.36500
3536110;-0.36000
3538888;-0.35000
3541666;-0.35500
3544443;-0.35000
3547221;-0.35500
3549999;-0.35000
3552777;-0.36000
3555555;-0.33500
3558332;-0.33500
3561110;-0.33000
3563888;-0.34000
3566666;-0.35000
3569443;-0.35000
3572221;-0.34500
3574999;-0.33500
3577777;-0.34500
3580555;-0.35500
3583332;-0.35500
3586110;-0.37000
3588888;-0.35500
3591666;-0.35000
3594443;-0.34500
3597221;-0.36500
3599999;-0.36500
3602777;-0.37000
3605555;-0.36500
3608332;-0.35500
3611110;-0.34500
3613888;-0.34500
3616666;-0.34500
3619443;-0.34000
3622221;-0.33500
3624999;-0.32500
3627777;-0.33500
3630555;-0.34500
3633332;-0.35000
3636110;-0.35000
3638888;-0.35500
3641666;-0.35500
3644443;-0.36000
3647221;-0.35000
3649999;-0.36000
3652777;-0.36500
3655555;-0.34500
3658332;-0.34500
3661110;-0.33000
3663888;-0.35000
3666666;-0.34500
3669443;-0.35500
3672221;-0.35000
3674999;-0.34000
3677777;-0.33500
3680555;-0.35000
3683332;-0.36500
3686110;-0.38000
3688888;-0.38500
3691666;-0.35500
3694443;-0.36000
3697221;-0.35500
3699999;-0.37000
3702777;-0.38500
3705555;-0.37000
3708332;-0.37000
3711110;-0.35000
3713888;-0.34500
3716666;-0.36500
3719443;-0.36500
3722221;-0.36000
3724999;-0.34500
3727777;-0.33000
3730555;-0.33000
3733332;-0.33000
3736110;-0.33500
3738888;-0.31500
3741666;-0.31000
3744443;-0.28500
3747221;-0.29000
3749999;-0.29000
3752777;-0.30000
3755555;-0.28000
3758332;-0.27500
3761110;-0.26000
3763888;-0.26000
3766666;-0.27000
3769443;-0.26500
3772221;-0.25500
3774999;-0.25000
3777777;-0.24500
3780554;-0.24500
3783332;-0.25500
3786110;-0.26500
3788888;-0.26000
3791666;-0.25500
3794443;-0.24000
3797221;-0.25000
3799999;-0.25500
3802777;-0.27500
3805554;-0.27500
3808332;-0.26500
3811110;-0.27000
3813888;-0.27500
3816666;-0.28000
3819443;-0.29000
3822221;-0.28000
3824999;-0.27500
3827777;-0.27000
3830554;-0.27000
3833332;-0.28000
3836110;-0.29000
3838888;-0.28000
3841666;-0.28500
3844443;-0.27500
3847221;-0.29000
3849999;-0.28000
3852777;-0.29000
3855554;-0.28000
3858332;-0.28500
3861110;-0.27500
3863888;-0.28000
3866666;-0.29500
3869443;-0.30500
3872221;-0.30000
3874999;-0.30000
3877777;-0.30500
3880554;-0.31500
3883332;-0.32000
3886110;-0.31000
3888888;-0.31000
3891666;-0.30000
3894443;-0.31000
3897221;-0.31000
3899999;-0.32000
3902777;-0.32500
3905554;-0.31000
3908332;-0.32000
3911110;-0.31000
3913888;-0.31000
3916666;-0.31500
3919443;-0.32500
3922221;-0.31500
3924999;-0.30500
3927777;-0.31500
3930554;-0.31000
3933332;-0.32000
3936110;-0.32500
3938888;-0.32500
3941666;-0.32000
3944443;-0.30500
3947221;-0.30500
3949999;-0.30000
3952777;-0.31500
3955554;-0.30000
3958332;-0.31000
3961110;-0.31500
3963888;-0.30500
3966666;-0.31000
3969443;-0.32000
3972221;-0.31000
3974999;-0.30000
3977777;-0.29500
3980554;-0.30000
3983332;-0.31500
3986110;-0.32500
3988888;-0.32500
3991666;-0.30500
3994443;-0.31000
3997221;-0.29000
3999999;-0.31500
4002777;-0.32500
4005554;-0.32000
4008332;-0.29000
4011110;-0.28000
4013888;-0.26000
4016666;-0.26000
4019443;-0.26500
4022221;-0.26000
4024999;-0.25000
4027777;-0.23000
4030554;-0.22000
4033332;-0.22000
4036110;-0.23500
4038888;-0.22000
4041666;-0.20500
4044443;-0.20500
4047221;-0.21000
4049999;-0.21000
4052777;-0.23000
4055554;-0.24000
4058332;-0.23000
4061110;-0.22500
4063888;-0.23500
4066666;-0.25000
4069443;-0.26500
4072221;-0.26000
4074999;-0.24500
4077777;-0.21500
4080554;-0.21500
4083332;-0.24500
4086110;-0.28000
4088888;-0.27500
4091666;-0.27500
4094443;-0.29500
4097221;-0.31000
4099999;-0.32500
4102777;-0.34000
4105554;-0.34000
4108332;-0.32500
4111110;-0.31500
4113888;-0.31000
4116666;-0.31500
4119443;-0.33000
4122221;-0.33000
4124999;-0.32500
4127777;-0.32500
4130554;-0.33500
4133332;-0.34500
4136110;-0.35000
4138888;-0.35000
4141666;-0.35000
4144443;-0.34500
4147221;-0.35000
4149999;-0.36500
4152777;-0.36000
4155554;-0.35000
4158332;-0.35500
4161110;-0.34500
4163888;-0.34500
4166666;-0.35000
4169443;-0.36500
4172221;-0.38000
4174999;-0.40500
4177777;-0.42500
4180554;-0.44000
4183332;-0.47000
4186110;-0.52000
4188888;-0.54000
4191665;-0.49000
4194443;-0.39000
4197221;-0.26000
4199999;-0.11500
4202777;0.08500
4205554;0.36000
4208332;0.61500
4211110;0.78000
4213888;0.83500
4216665;0.72000
4219443;0.41000
4222221;0.03000
4224999;-0.25500
4227777;-0.41500
4230554;-0.47000
4233332;-0.46500
4236110;-0.43500
4238888;-0.39500
4241665;-0.37500
4244443;-0.37000
4247221;-0.37500
4249999;-0.37500
4252777;-0.39000
4255554;-0.40000
4258332;-0.38000
4261110;-0.38500
4263888;-0.38500
4266665;-0.38500
4269443;-0.38500
4272221;-0.37000
4274999;-0.37000
4277777;-0.36000
4280554;-0.38000
4283332;-0.38000
4286110;-0.38500
4288888;-0.37000
4291665;-0.37000
4294443;-0.36500
4297221;-0.37500
4299999;-0.38500
4302777;-0.39000
4305554;-0.39000
4308332;-0.38500
4311110;-0.38500
4313888;-0.39500
4316665;-0.39000
4319443;-0.40000
4322221;-0.40500
4324999;-0.39000
4327777;-0.39500
4330554;-0.39000
4333332;-0.40500
4336110;-0.40500
4338888;-0.40000
4341665;-0.37500
4344443;-0.38000
4347221;-0.39000
4349999;-0.39500
4352777;-0.39500
4355554;-0.39000
4358332;-0.39000
4361110;-0.38500
4363888;-0.40500
4366665;-0.40000
4369443;-0.40500
4372221;-0.39500
4374999;-0.39000
4377777;-0.39500
4380554;-0.39000
4383332;-0.40000
4386110;-0.40500
4388888;-0.40500
4391665;-0.39000
4394443;-0.39000
4397221;-0.39500
4399999;-0.40000
4402777;-0.40000
4405554;-0.39500
4408332;-0.38000
4411110;-0.37000
4413888;-0.38000
4416665;-0.38500
4419443;-0.39500
4422221;-0.39000
4424999;-0.38000
4427777;-0.38000
4430554;-0.38500
4433332;-0.39000
4436110;-0.39000
4438888;-0.40000
4441665;-0.40000
4444443;-0.40500
4447221;-0.41500
4449999;-0.42000
4452777;-0.43000
4455554;-0.43000
4458332;-0.42500
4461110;-0.42000
4463888;-0.43000
4466665;-0.44500
4469443;-0.46500
4472221;-0.45500
4474999;-0.44000
4477777;-0.42500
4480554;-0.43500
4483332;-0.45000
4486110;-0.44000
4488888;-0.44500
4491665;-0.42500
4494443;-0.42500
4497221;-0.42500
4499999;-0.43000
4502777;-0.43000
4505554;-0.41500
4508332;-0.41500
4511110;-0.38500
4513888;-0.37500
4516665;-0.38500
4519443;-0.37000
4522221;-0.36000
4524999;-0.35000
4527777;-0.33500
4530554;-0.33500
4533332;-0.32500
4536110;-0.32000
4538888;-0.32500
4541665;-0.30500
4544443;-0.29500
4547221;-0.30000
4549999;-0.29000
4552777;-0.29500
4555554;-0.29000
4558332;-0.29000
4561110;-0.28500
4563888;-0.28500
4566665;-0.28500
4569443;-0.29000
4572221;-0.29000
4574999;-0.28500
4577776;-0.27000
4580554;-0.27000
4583332;-0.28000
4586110;-0.29000
4588888;-0.28500
4591665;-0.27500
4594443;-0.27500
4597221;-0.27500
4599999;-0.29000
4602776;-0.30500
4605554;-0.30500
4608332;-0.30000
4611110;-0.28000
4613888;-0.29000
4616665;-0.30500
4619443;-0.31500
4622221;-0.31000
4624999;-0.29500
4627776;-0.29000
4630554;-0.30000
4633332;-0.30500
4636110;-0.30500
4638888;-0.31000
4641665;-0.30000
4644443;-0.29500
4647221;-0.30500
4649999;-0.30500
4652776;-0.31500
4655554;-0.31000
4658332;-0.31000
4661110;-0.29500
4663888;-0.30000
4666665;-0.30500
4669443;-0.31000
4672221;-0.30500
4674999;-0.30500
4677776;-0.29500
4680554;-0.30000
4683332;-0.31500
4686110;-0.32500
4688888;-0.32000
4691665;-0.32000
4694443;-0.31500
4697221;-0.31000
4699999;-0.32500
4702776;-0.33500
4705554;-0.33000
4708332;-0.32000
4711110;-0.32000
4713888;-0.31000
4716665;-0.33000
4719443;-0.33000
4722221;-0.32500
4724999;-0.31000
4727776;-0.30500
4730554;-0.30500
4733332;-0.32000
4736110;-0.33000
4738888;-0.32500
4741665;-0.30000
4744443;-0.31000
4747221;-0.30500
4749999;-0.31500
4752776;-0.33000
4755554;-0.33000
4758332;-0.33000
4761110;-0.32000
4763888;-0.32500
4766665;-0.32500
4769443;-0.33500
4772221;-0.32500
4774999;-0.31500
4777776;-0.31000
4780554;-0.31500
4783332;-0.32000
4786110;-0.32500
4788888;-0.31500
4791665;-0.31000
4794443;-0.30500
4797221;-0.31000
4799999;-0.31500
4802776;-0.32000
4805554;-0.31500
4808332;-0.31000
4811110;-0.29500
4813888;-0.29500
4816665;-0.30500
4819443;-0.31000
4822221;-0.30000
4824999;-0.28000
4827776;-0.27500
4830554;-0.26500
4833332;-0.27500
4836110;-0.27500
4838888;-0.26000
4841665;-0.24000
4844443;-0.24000
4847221;-0.23500
4849999;-0.24000
4852776;-0.23500
4855554;-0.22500
4858332;-0.21500
4861110;-0.20500
4863888;-0.20500
4866665;-0.21000
4869443;-0.21500
4872221;-0.22000
4874999;-0.22000
4877776;-0.21500
4880554;-0.22000
4883332;-0.22000
4886110;-0.23000
4888888;-0.23000
4891665;-0.24000
4894443;-0.21000
4897221;-0.22000
4899999;-0.23000
4902776;-0.25500
4905554;-0.23500
4908332;-0.21000
4911110;-0.19000
4913888;-0.20500
4916665;-0.22500
4919443;-0.26000
4922221;-0.27500
4924999;-0.28000
4927776;-0.28500
4930554;-0.30500
4933332;-0.32000
4936110;-0.31500
4938888;-0.33500
4941665;-0.32500
4944443;-0.33500
4947221;-0.32000
4949999;-0.32500
4952776;-0.32000
4955554;-0.32500
4958332;-0.32500
4961110;-0.31000
4963887;-0.30500
4966665;-0.32000
4969443;-0.32000
4972221;-0.33000
4974999;-0.32000
4977776;-0.32000
4980554;-0.33000
4983332;-0.33000
4986110;-0.36000
4988887;-0.35500
4991665;-0.33000
4994443;-0.32500
4997221;-0.32500
4999999;-0.33500
5002776;-0.35000
5005554;-0.34000
5008332;-0.34500
5011110;-0.35500
5013887;-0.38500
5016665;-0.42500
5019443;-0.45000
5022221;-0.47000
5024999;-0.48500
5027776;-0.51000
5030554;-0.51500
5033332;-0.45500
5036110;-0.32500
5038887;-0.16500
5041665;0.01000
5044443;0.25000
5047221;0.51500
5049999;0.74000
5052776;0.88500
5055554;0.93500
5058332;0.83500
5061110;0.52500
5063887;0.12000
5066665;-0.23000
5069443;-0.42500
5072221;-0.45500
5074999;-0.42000
5077776;-0.38000
5080554;-0.36000
5083332;-0.36500
5086110;-0.37500
5088887;-0.38000
5091665;-0.35500
5094443;-0.35500
5097221;-0.37000
5099999;-0.37500
5102776;-0.38500
5105554;-0.38000
5108332;-0.36500
5111110;-0.37000
5113887;-0.37000
5116665;-0.36500
5119443;-0.38000
5122221;-0.37000
5124999;-0.37500
5127776;-0.36500
5130554;-0.37000
5133332;-0.38000
5136110;-0.37500
5138887;-0.36500
5141665;-0.36000
5144443;-0.36000
5147221;-0.35500
5149999;-0.35500
5152776;-0.37000
5155554;-0.36500
5158332;-0.35500
5161110;-0.35000
5163887;-0.35000
5166665;-0.35000
5169443;-0.36000
5172221;-0.36000
5174999;-0.36000
5177776;-0.35000
5180554;-0.35500
5183332;-0.36500
5186110;-0.37000
5188887;-0.36000
5191665;-0.35000
5194443;-0.35500
5197221;-0.35000
5199999;-0.35500
5202776;-0.37000
5205554;-0.37500
5208332;-0.36000
5211110;-0.35000
5213887;-0.34500
5216665;-0.35000
5219443;-0.37000
5222221;-0.37000
5224999;-0.35500
5227776;-0.35000
5230554;-0.34500
5233332;-0.36000
5236110;-0.37000
5238887;-0.36500
5241665;-0.36000
5244443;-0.35000
5247221;-0.35500
5249999;-0.36500
5252776;-0.36500
5255554;-0.37000
5258332;-0.36500
5261110;-0.35000
5263887;-0.35000
5266665;-0.36000
5269443;-0.36000
5272221;-0.35500
5274999;-0.34500
5277776;-0.35000
5280554;-0.34500
5283332;-0.35500
5286110;-0.37000
5288887;-0.36500
5291665;-0.35500
5294443;-0.36000
5297221;-0.36500
5299999;-0.36500
5302776;-0.38000
5305554;-0.38500
5308332;-0.37500
5311110;-0.37000
5313887;-0.37500
5316665;-0.38500
5319443;-0.39500
5322221;-0.37500
5324999;-0.38500
5327776;-0.38000
5330554;-0.37000
5333332;-0.38500
5336110;-0.38500
5338887;-0.38000
5341665;-0.37000
5344443;-0.36000
5347221;-0.35000
5349999;-0.33500
5352776;-0.33000
5355554;-0.31500
5358332;-0.29500
5361110;-0.29000
5363887;-0.29000
5366665;-0.28500
5369443;-0.29000
5372221;-0.28000
5374998;-0.28000
5377776;-0.26000
5380554;-0.25500
5383332;-0.27000
5386110;-0.27500
5388887;-0.26000
5391665;-0.25000
5394443;-0.24500
5397221;-0.25000
5399998;-0.26000
5402776;-0.26500
5405554;-0.24500
5408332;-0.23500
5411110;-0.24500
5413887;-0.24000
5416665;-0.25000
5419443;-0.26500
5422221;-0.25000
5424998;-0.25000
5427776;-0.25000
5430554;-0.25000
5433332;-0.25500
5436110;-0.26500
5438887;-0.26000
5441665;-0.24000
5444443;-0.25000
5447221;-0.24500
5449998;-0.25000
5452776;-0.27000
5455554;-0.26500
5458332;-0.27000
5461110;-0.26500
5463887;-0.26500
5466665;-0.27500
5469443;-0.28500
5472221;-0.27500
5474998;-0.26500
5477776;-0.27000
5480554;-0.27000
5483332;-0.28000
5486110;-0.28500
5488887;-0.28500
5491665;-0.28000
5494443;-0.28500
5497221;-0.28000
5499998;-0.28500
5502776;-0.30000
5505554;-0.29000
5508332;-0.28500
5511110;-0.27000
5513887;-0.28000
5516665;-0.29500
5519443;-0.29000
5522221;-0.29000
5524998;-0.29500
5527776;-0.29000
5530554;-0.28500
5533332;-0.30500
5536110;-0.31500
5538887;-0.31000
5541665;-0.31000
5544443;-0.29000
5547221;-0.29500
5549998;-0.31000
5552776;-0.32000
5555554;-0.31500
5558332;-0.31000
5561110;-0.30000
5563887;-0.30000
5566665;-0.31500
5569443;-0.32000
5572221;-0.31500
5574998;-0.32000
5577776;-0.29000
5580554;-0.30000
5583332;-0.30000
5586110;-0.31500
5588887;-0.31000
5591665;-0.30000
5594443;-0.30000
5597221;-0.29000
5599998;-0.31000
5602776;-0.32500
5605554;-0.31500
5608332;-0.30500
5611110;-0.30500
5613887;-0.30500
5616665;-0.31500
5619443;-0.32500
5622221;-0.32000
5624998;-0.31000
5627776;-0.30000
5630554;-0.29500
5633332;-0.31500
5636110;-0.32000
5638887;-0.30500
5641665;-0.30000
5644443;-0.29000
5647221;-0.29500
5649998;-0.29500
5652776;-0.31000
5655554;-0.29500
5658332;-0.29500
5661110;-0.28500
5663887;-0.29500
5666665;-0.29500
5669443;-0.31000
5672221;-0.30000
5674998;-0.28500
5677776;-0.28000
5680554;-0.27500
5683332;-0.28000
5686110;-0.26500
5688887;-0.24500
5691665;-0.23000
5694443;-0.24000
5697221;-0.24000
5699998;-0.24000
5702776;-0.24500
5705554;-0.22000
5708332;-0.22000
5711110;-0.21500
5713887;-0.20000
5716665;-0.20000
5719443;-0.21000
5722221;-0.20500
5724998;-0.19500
5727776;-0.20500
5730554;-0.21000
5733332;-0.21500
5736110;-0.22500
5738887;-0.22500
5741665;-0.20000
5744443;-0.20000
5747221;-0.21000
5749998;-0.22500
5752776;-0.22000
5755554;-0.19500
5758332;-0.18000
5761109;-0.17500
5763887;-0.20500
5766665;-0.24500
5769443;-0.26500
5772221;-0.27500
5774998;-0.28000
5777776;-0.28500
5780554;-0.30000
5783332;-0.31000
5786109;-0.32500
5788887;-0.32000
5791665;-0.32500
5794443;-0.31000
5797221;-0.32500
5799998;-0.33000
5802776;-0.34000
5805554;-0.33500
5808332;-0.33000
5811109;-0.32500
5813887;-0.32000
5816665;-0.34000
5819443;-0.34500
5822221;-0.34000
5824998;-0.33000
5827776;-0.33500
5830554;-0.33000
5833332;-0.34000
5836109;-0.34000
5838887;-0.33500
5841665;-0.33500
5844443;-0.33000
5847221;-0.33500
5849998;-0.34500
5852776;-0.37500
5855554;-0.39500
5858332;-0.43000
5861109;-0.44000
5863887;-0.45000
5866665;-0.45000
5869443;-0.47500
5872221;-0.48000
5874998;-0.51000
5877776;-0.55000
5880554;-0.57500
5883332;-0.54500
5886109;-0.49000
5888887;-0.37500
5891665;-0.25000
5894443;-0.12000
5897221;0.06000
5899998;0.28500
5902776;0.52500
5905554;0.74000
5908332;0.86000
