time_ms;ecg_value
0;0.96000
2778;1.11000
5556;1.12000
8333;0.91500
11111;0.49500
13889;-0.00500
16667;-0.35000
19444;-0.46000
22222;-0.43500
25000;-0.37500
27778;-0.34500
30556;-0.35000
33333;-0.35000
36111;-0.36000
38889;-0.36000
41667;-0.37000
44444;-0.38000
47222;-0.38500
50000;-0.38000
52778;-0.38000
55556;-0.37000
58333;-0.37500
61111;-0.40000
63889;-0.38500
66667;-0.37000
69444;-0.37500
72222;-0.37000
75000;-0.37000
77778;-0.39500
80556;-0.39000
83333;-0.38000
86111;-0.37500
88889;-0.37000
91667;-0.38000
94444;-0.39500
97222;-0.38500
100000;-0.38500
102778;-0.38000
105556;-0.37500
108333;-0.37500
111111;-0.40000
113889;-0.40000
116667;-0.39500
119444;-0.37500
122222;-0.37500
125000;-0.38000
127778;-0.39000
130556;-0.39500
133333;-0.38500
136111;-0.37000
138889;-0.37500
141667;-0.38000
144444;-0.39500
147222;-0.39000
150000;-0.38500
152778;-0.37500
155556;-0.38500
158333;-0.38500
161111;-0.39500
163889;-0.39000
166667;-0.37500
169444;-0.37000
172222;-0.37000
175000;-0.38000
177778;-0.39500
180556;-0.39000
183333;-0.37500
186111;-0.37000
188889;-0.37000
191667;-0.37000
194444;-0.39000
197222;-0.39500
200000;-0.38000
202778;-0.37000
205555;-0.37000
208333;-0.38500
211111;-0.38000
213889;-0.38500
216667;-0.37000
219444;-0.37500
222222;-0.38000
225000;-0.38500
227778;-0.39000
230555;-0.38500
233333;-0.39000
236111;-0.39000
238889;-0.39500
241667;-0.40000
244444;-0.41000
247222;-0.40500
250000;-0.39500
252778;-0.39000
255555;-0.40500
258333;-0.40000
261111;-0.42000
263889;-0.40500
266667;-0.40500
269444;-0.39000
272222;-0.38000
275000;-0.39000
277778;-0.40500
280555;-0.40000
283333;-0.37500
286111;-0.37500
288889;-0.36000
291667;-0.36500
294444;-0.37500
297222;-0.35500
300000;-0.34500
302778;-0.31500
305555;-0.31500
308333;-0.32000
311111;-0.31000
313889;-0.30000
316667;-0.28500
319444;-0.28500
322222;-0.28000
325000;-0.27000
327778;-0.28500
330555;-0.27500
333333;-0.25000
336111;-0.25000
338889;-0.25000
341667;-0.25500
344444;-0.27000
347222;-0.26500
350000;-0.25500
352778;-0.25000
355555;-0.25000
358333;-0.25500
361111;-0.25500
363889;-0.25000
366667;-0.26000
369444;-0.25000
372222;-0.25000
375000;-0.25500
377778;-0.27500
380555;-0.25500
383333;-0.25000
386111;-0.24500
388889;-0.24000
391667;-0.25000
394444;-0.25500
397222;-0.26000
400000;-0.25500
402778;-0.24000
405555;-0.25500
408333;-0.25500
411111;-0.27000
413889;-0.27000
416667;-0.25500
419444;-0.25500
422222;-0.27500
425000;-0.27000
427778;-0.27500
430555;-0.27500
433333;-0.27500
436111;-0.26000
438889;-0.28000
441667;-0.27500
444444;-0.29000
447222;-0.29000
450000;-0.28500
452778;-0.28000
455555;-0.28500
458333;-0.29500
461111;-0.29500
463889;-0.29500
466667;-0.30000
469444;-0.29000
472222;-0.29000
475000;-0.29000
477778;-0.31000
480555;-0.30000
483333;-0.29000
486111;-0.28500
488889;-0.28000
491667;-0.28500
494444;-0.30000
497222;-0.30500
500000;-0.29000
502778;-0.30000
505555;-0.29500
508333;-0.30500
511111;-0.31500
513889;-0.31500
516667;-0.30500
519444;-0.29000
522222;-0.29500
525000;-0.30500
527778;-0.31000
530555;-0.31000
533333;-0.29500
536111;-0.29000
538889;-0.29000
541667;-0.30500
544444;-0.30500
547222;-0.30000
550000;-0.30000
552778;-0.29500
555555;-0.30500
558333;-0.29500
561111;-0.30500
563889;-0.31000
566667;-0.30500
569444;-0.30000
572222;-0.28000
575000;-0.29000
577778;-0.30000
580555;-0.30000
583333;-0.29000
586111;-0.28500
588889;-0.28500
591667;-0.28000
594444;-0.29500
597222;-0.29000
600000;-0.27500
602778;-0.25500
605555;-0.24000
608333;-0.23500
611111;-0.24500
613889;-0.22500
616666;-0.22500
619444;-0.21000
622222;-0.21000
625000;-0.19500
627778;-0.22000
630555;-0.19500
633333;-0.17500
636111;-0.18500
638889;-0.18000
641666;-0.19500
644444;-0.20000
647222;-0.21000
650000;-0.20500
652778;-0.19500
655555;-0.21000
658333;-0.21000
661111;-0.23500
663889;-0.21000
666666;-0.20000
669444;-0.16500
672222;-0.16000
675000;-0.20500
677778;-0.23500
680555;-0.25500
683333;-0.26000
686111;-0.27500
688889;-0.28500
691666;-0.29500
694444;-0.31000
697222;-0.32500
700000;-0.31000
702778;-0.30000
705555;-0.29500
708333;-0.30500
711111;-0.31000
713889;-0.30500
716666;-0.31500
719444;-0.30500
722222;-0.31000
725000;-0.31500
727778;-0.33500
730555;-0.33500
733333;-0.32000
736111;-0.30500
738889;-0.30500
741666;-0.32000
744444;-0.32500
747222;-0.32500
750000;-0.30000
752778;-0.30000
755555;-0.30500
758333;-0.32000
761111;-0.33000
763889;-0.33500
766666;-0.34000
769444;-0.36000
772222;-0.39500
775000;-0.44500
777778;-0.48000
780555;-0.51500
783333;-0.54500
786111;-0.50500
788889;-0.39500
791666;-0.24500
794444;-0.08500
797222;0.12000
800000;0.38500
802778;0.69000
805555;0.93000
808333;1.03000
811111;0.99000
813889;0.73500
816666;0.30500
819444;-0.12000
822222;-0.39000
825000;-0.46500
827778;-0.43000
830555;-0.37000
833333;-0.33000
836111;-0.33000
838889;-0.34000
841666;-0.36000
844444;-0.36500
847222;-0.36000
850000;-0.35000
852778;-0.35000
855555;-0.35000
858333;-0.35500
861111;-0.36000
863889;-0.36000
866666;-0.36000
869444;-0.36000
872222;-0.35500
875000;-0.35500
877778;-0.37500
880555;-0.37500
883333;-0.37000
886111;-0.35000
888889;-0.33500
891666;-0.34500
894444;-0.35500
897222;-0.37000
900000;-0.35500
902778;-0.34500
905555;-0.34500
908333;-0.35000
911111;-0.35000
913889;-0.35500
916666;-0.34000
919444;-0.32000
922222;-0.32500
925000;-0.33500
927778;-0.35500
930555;-0.34500
933333;-0.33500
936111;-0.34000
938889;-0.33000
941666;-0.35000
944444;-0.35500
947222;-0.35500
950000;-0.34500
952778;-0.33500
955555;-0.34000
958333;-0.35500
961111;-0.36000
963889;-0.34500
966666;-0.34500
969444;-0.33500
972222;-0.34500
975000;-0.35500
977778;-0.36500
980555;-0.36500
983333;-0.35000
986111;-0.34000
988889;-0.33500
991666;-0.35000
994444;-0.34500
997222;-0.35500
1000000;-0.34000
1002777;-0.33000
1005555;-0.34500
1008333;-0.36000
1011111;-0.35500
1013889;-0.35500
1016666;-0.34500
1019444;-0.34000
1022222;-0.34000
1025000;-0.34500
1027777;-0.35500
1030555;-0.35000
1033333;-0.35000
1036111;-0.34000
1038889;-0.34500
1041666;-0.35000
1044444;-0.37000
1047222;-0.37500
1050000;-0.36500
1052777;-0.34500
1055555;-0.33500
1058333;-0.34500
1061111;-0.37000
1063889;-0.36500
1066666;-0.35500
1069444;-0.36500
1072222;-0.35000
1075000;-0.35000
1077777;-0.35000
1080555;-0.34500
1083333;-0.33500
1086111;-0.32500
1088889;-0.33000
1091666;-0.33000
1094444;-0.33000
1097222;-0.31000
1100000;-0.29000
1102777;-0.26500
1105555;-0.28500
1108333;-0.28000
1111111;-0.29000
1113889;-0.28000
1116666;-0.26500
1119444;-0.24000
1122222;-0.23000
1125000;-0.23500
1127777;-0.24500
1130555;-0.25000
1133333;-0.24000
1136111;-0.23000
1138889;-0.23000
1141666;-0.23500
1144444;-0.24500
1147222;-0.24000
1150000;-0.23500
1152777;-0.22500
1155555;-0.23000
1158333;-0.22000
1161111;-0.23000
1163889;-0.24000
1166666;-0.23500
1169444;-0.22500
1172222;-0.22500
1175000;-0.23000
1177777;-0.23500
1180555;-0.24500
1183333;-0.23000
1186111;-0.22500
1188889;-0.23500
1191666;-0.23500
1194444;-0.24500
1197222;-0.24000
1200000;-0.23500
1202777;-0.23000
1205555;-0.25000
1208333;-0.25500
1211111;-0.26500
1213889;-0.26500
1216666;-0.25000
1219444;-0.25500
1222222;-0.23500
1225000;-0.25500
1227777;-0.27000
1230555;-0.27000
1233333;-0.27000
1236111;-0.26500
1238889;-0.26000
1241666;-0.27500
1244444;-0.28000
1247222;-0.27500
1250000;-0.28500
1252777;-0.27000
1255555;-0.27000
1258333;-0.27000
1261111;-0.27500
1263889;-0.28500
1266666;-0.26500
1269444;-0.26500
1272222;-0.27000
1275000;-0.28000
1277777;-0.29000
1280555;-0.30000
1283333;-0.30000
1286111;-0.30000
1288889;-0.29000
1291666;-0.29000
1294444;-0.30000
1297222;-0.32000
1300000;-0.29000
1302777;-0.29000
1305555;-0.30500
1308333;-0.31000
1311111;-0.31500
1313889;-0.30500
1316666;-0.29500
1319444;-0.28500
1322222;-0.29500
1325000;-0.29500
1327777;-0.30500
1330555;-0.30500
1333333;-0.30000
1336111;-0.29000
1338889;-0.29500
1341666;-0.29000
1344444;-0.30500
1347222;-0.30500
1350000;-0.31000
1352777;-0.30000
1355555;-0.31000
1358333;-0.30500
1361111;-0.29500
1363889;-0.29000
1366666;-0.29500
1369444;-0.29000
1372222;-0.29500
1375000;-0.29500
1377777;-0.29000
1380555;-0.27500
1383333;-0.24500
1386111;-0.22000
1388888;-0.22000
1391666;-0.23500
1394444;-0.24500
1397222;-0.25000
1400000;-0.22500
1402777;-0.20000
1405555;-0.19500
1408333;-0.19000
1411111;-0.19000
1413888;-0.20000
1416666;-0.18500
1419444;-0.16500
1422222;-0.17500
1425000;-0.20000
1427777;-0.21500
1430555;-0.21500
1433333;-0.20000
1436111;-0.19500
1438888;-0.20500
1441666;-0.22500
1444444;-0.23000
1447222;-0.21000
1450000;-0.19500
1452777;-0.20500
1455555;-0.24000
1458333;-0.26500
1461111;-0.27500
1463888;-0.28500
1466666;-0.28000
1469444;-0.27000
1472222;-0.28000
1475000;-0.30500
1477777;-0.33000
1480555;-0.33500
1483333;-0.32500
1486111;-0.32000
1488888;-0.31500
1491666;-0.32500
1494444;-0.31500
1497222;-0.31000
1500000;-0.31000
1502777;-0.31000
1505555;-0.32000
1508333;-0.34000
1511111;-0.34500
1513888;-0.33000
1516666;-0.34000
1519444;-0.33500
1522222;-0.34000
1525000;-0.34500
1527777;-0.33500
1530555;-0.33000
1533333;-0.32000
1536111;-0.32500
1538888;-0.33500
1541666;-0.35500
1544444;-0.41500
1547222;-0.43000
1550000;-0.45000
1552777;-0.46000
1555555;-0.51000
1558333;-0.53000
1561111;-0.46500
1563888;-0.34000
1566666;-0.18500
1569444;-0.01000
1572222;0.22000
1575000;0.49500
1577777;0.75000
1580555;0.91000
1583333;0.94000
1586111;0.78000
1588888;0.40000
1591666;-0.02500
1594444;-0.33500
1597222;-0.46000
1600000;-0.47000
1602777;-0.42000
1605555;-0.37000
1608333;-0.35500
1611111;-0.36500
1613888;-0.37500
1616666;-0.36500
1619444;-0.34500
1622222;-0.34500
1625000;-0.34000
1627777;-0.37000
1630555;-0.37000
1633333;-0.36500
1636111;-0.37000
1638888;-0.37000
1641666;-0.37500
1644444;-0.38500
1647222;-0.37500
1650000;-0.37500
1652777;-0.36000
1655555;-0.36000
1658333;-0.37000
1661111;-0.39500
1663888;-0.38500
1666666;-0.36500
1669444;-0.35000
1672222;-0.36500
1675000;-0.37500
1677777;-0.39500
1680555;-0.39000
1683333;-0.37500
1686111;-0.34500
1688888;-0.36000
1691666;-0.36000
1694444;-0.38000
1697222;-0.38000
1700000;-0.36500
1702777;-0.36500
1705555;-0.37000
1708333;-0.37000
1711111;-0.38000
1713888;-0.38000
1716666;-0.37500
1719444;-0.37000
1722222;-0.37500
1725000;-0.38500
1727777;-0.38000
1730555;-0.36000
1733333;-0.35500
1736111;-0.34500
1738888;-0.35000
1741666;-0.37000
1744444;-0.37000
1747222;-0.38500
1750000;-0.37500
1752777;-0.37000
1755555;-0.37000
1758333;-0.38000
1761111;-0.38500
1763888;-0.37500
1766666;-0.37000
1769444;-0.35000
1772222;-0.35000
1775000;-0.37000
1777777;-0.38500
1780555;-0.38500
1783333;-0.39500
1786111;-0.37500
1788888;-0.37000
1791666;-0.36500
1794444;-0.38000
1797222;-0.38500
1799999;-0.39000
1802777;-0.37500
1805555;-0.38500
1808333;-0.38000
1811111;-0.39500
1813888;-0.40500
1816666;-0.41000
1819444;-0.40500
1822222;-0.41000
1824999;-0.42500
1827777;-0.44000
1830555;-0.44000
1833333;-0.44000
1836111;-0.41500
1838888;-0.42500
1841666;-0.42500
1844444;-0.44000
1847222;-0.42500
1849999;-0.41000
1852777;-0.39000
1855555;-0.39500
1858333;-0.40500
1861111;-0.40500
1863888;-0.41000
1866666;-0.38000
1869444;-0.35500
1872222;-0.34000
1874999;-0.33500
1877777;-0.32500
1880555;-0.31500
1883333;-0.29500
1886111;-0.27000
1888888;-0.28500
1891666;-0.28500
1894444;-0.28000
1897222;-0.27000
1899999;-0.26000
1902777;-0.24500
1905555;-0.25000
1908333;-0.24500
1911111;-0.26500
1913888;-0.26500
1916666;-0.24500
1919444;-0.24000
1922222;-0.23500
1924999;-0.24500
1927777;-0.25000
1930555;-0.25000
1933333;-0.23500
1936111;-0.22500
1938888;-0.24000
1941666;-0.24000
1944444;-0.25500
1947222;-0.25500
1949999;-0.25000
1952777;-0.25000
1955555;-0.25000
1958333;-0.26000
1961111;-0.26000
1963888;-0.26000
1966666;-0.26500
1969444;-0.25000
1972222;-0.24500
1974999;-0.25500
1977777;-0.26500
1980555;-0.27000
1983333;-0.26000
1986111;-0.24500
1988888;-0.26000
1991666;-0.27500
1994444;-0.29500
1997222;-0.28000
1999999;-0.26500
2002777;-0.26000
2005555;-0.28000
2008333;-0.29000
2011111;-0.29500
2013888;-0.28000
2016666;-0.28000
2019444;-0.26000
2022222;-0.27500
2024999;-0.29000
2027777;-0.29500
2030555;-0.30500
2033333;-0.29500
2036111;-0.28000
2038888;-0.28500
2041666;-0.29000
2044444;-0.30000
2047222;-0.30500
2049999;-0.30000
2052777;-0.28500
2055555;-0.29500
2058333;-0.30000
2061111;-0.30000
2063888;-0.30500
2066666;-0.28000
2069444;-0.28000
2072222;-0.29500
2074999;-0.30000
2077777;-0.30000
2080555;-0.30500
2083333;-0.30000
2086111;-0.28500
2088888;-0.29000
2091666;-0.29000
2094444;-0.29500
2097222;-0.30000
2099999;-0.29000
2102777;-0.27000
2105555;-0.28000
2108333;-0.27500
2111111;-0.29500
2113888;-0.29500
2116666;-0.28500
2119444;-0.28500
2122222;-0.28000
2124999;-0.29000
2127777;-0.29500
2130555;-0.29500
2133333;-0.29000
2136111;-0.27500
2138888;-0.28000
2141666;-0.27500
2144444;-0.27000
2147222;-0.26000
2149999;-0.24500
2152777;-0.23000
2155555;-0.23500
2158333;-0.23500
2161111;-0.23000
2163888;-0.23000
2166666;-0.22500
2169444;-0.21000
2172222;-0.20500
2174999;-0.21000
2177777;-0.21000
2180555;-0.20000
2183333;-0.19000
2186110;-0.18000
2188888;-0.18000
2191666;-0.18500
2194444;-0.19000
2197222;-0.20500
2199999;-0.21000
2202777;-0.19500
2205555;-0.20500
2208333;-0.21000
2211110;-0.20500
2213888;-0.21500
2216666;-0.22000
2219444;-0.21500
2222222;-0.20500
2224999;-0.20000
2227777;-0.20000
2230555;-0.22000
2233333;-0.23000
2236110;-0.24500
2238888;-0.26000
2241666;-0.28500
2244444;-0.29500
2247222;-0.31500
2249999;-0.31000
2252777;-0.31000
2255555;-0.31000
2258333;-0.33000
2261110;-0.33000
2263888;-0.33500
2266666;-0.33000
2269444;-0.31500
2272222;-0.32500
2274999;-0.33000
2277777;-0.35000
2280555;-0.34500
2283333;-0.34000
2286110;-0.33000
2288888;-0.34000
2291666;-0.33500
2294444;-0.34000
2297222;-0.35000
2299999;-0.34500
2302777;-0.33000
2305555;-0.35000
2308333;-0.34500
2311110;-0.35000
2313888;-0.36500
2316666;-0.38500
2319444;-0.41000
2322222;-0.46000
2324999;-0.46500
2327777;-0.49500
2330555;-0.53500
2333333;-0.50500
2336110;-0.41500
2338888;-0.27000
2341666;-0.08000
2344444;0.10500
2347222;0.34500
2349999;0.64500
2352777;0.88000
2355555;1.03000
2358333;1.13000
2361110;1.19500
2363888;1.19500
2366666;1.09000
2369444;0.88000
2372222;0.52000
2374999;0.14000
2377777;-0.18500
2380555;-0.39000
2383333;-0.46000
2386110;-0.47000
2388888;-0.44000
2391666;-0.40500
2394444;-0.38500
2397222;-0.38500
2399999;-0.38500
2402777;-0.37000
2405555;-0.37500
2408333;-0.37500
2411110;-0.39000
2413888;-0.39000
2416666;-0.38500
2419444;-0.38000
2422222;-0.38000
2424999;-0.38500
2427777;-0.39000
2430555;-0.39500
2433333;-0.38500
2436110;-0.38000
2438888;-0.38500
2441666;-0.38500
2444444;-0.39500
2447222;-0.39000
2449999;-0.38500
2452777;-0.38000
2455555;-0.38000
2458333;-0.40000
2461110;-0.40000
2463888;-0.41000
2466666;-0.38500
2469444;-0.38000
2472222;-0.39500
2474999;-0.39000
2477777;-0.39500
2480555;-0.40500
2483333;-0.40000
2486110;-0.39500
2488888;-0.40000
2491666;-0.39000
2494444;-0.39500
2497222;-0.41500
2499999;-0.39000
2502777;-0.37500
2505555;-0.38000
2508333;-0.38500
2511110;-0.40000
2513888;-0.40500
2516666;-0.39500
2519444;-0.38000
2522222;-0.38500
2524999;-0.39000
2527777;-0.40500
2530555;-0.40500
2533333;-0.39500
2536110;-0.38500
2538888;-0.39000
2541666;-0.39500
2544444;-0.40000
2547222;-0.40000
2549999;-0.39000
2552777;-0.38500
2555555;-0.37500
2558333;-0.39000
2561110;-0.39500
2563888;-0.40000
2566666;-0.38500
2569444;-0.38000
2572222;-0.38500
2574999;-0.40000
2577777;-0.40500
2580555;-0.40000
2583333;-0.40500
2586110;-0.39500
2588888;-0.40500
2591666;-0.42000
2594444;-0.42000
2597221;-0.42500
2599999;-0.41500
2602777;-0.41000
2605555;-0.43000
2608333;-0.43000
2611110;-0.44000
2613888;-0.43500
2616666;-0.43000
2619444;-0.41500
2622221;-0.41500
2624999;-0.42000
2627777;-0.43000
2630555;-0.44000
2633333;-0.42000
2636110;-0.40500
2638888;-0.40000
2641666;-0.39500
2644444;-0.39500
2647221;-0.37000
2649999;-0.36000
2652777;-0.33000
2655555;-0.32000
2658333;-0.31000
2661110;-0.31500
2663888;-0.31000
2666666;-0.29000
2669444;-0.27000
2672221;-0.27500
2674999;-0.28500
2677777;-0.27500
2680555;-0.28000
2683333;-0.27000
2686110;-0.25500
2688888;-0.26000
2691666;-0.26000
2694444;-0.27000
2697221;-0.26500
2699999;-0.26000
2702777;-0.24500
2705555;-0.25500
2708333;-0.25000
2711110;-0.26000
2713888;-0.26000
2716666;-0.27000
2719444;-0.26000
2722221;-0.25500
2724999;-0.26500
2727777;-0.26000
2730555;-0.27500
2733333;-0.27000
2736110;-0.25500
2738888;-0.26000
2741666;-0.27000
2744444;-0.28000
2747221;-0.29000
2749999;-0.27500
2752777;-0.26000
2755555;-0.26500
2758333;-0.26500
2761110;-0.28000
2763888;-0.28000
2766666;-0.27000
2769444;-0.25500
2772221;-0.26500
2774999;-0.28000
2777777;-0.27000
2780555;-0.27500
2783333;-0.27000
2786110;-0.26500
2788888;-0.28500
2791666;-0.27500
2794444;-0.30000
2797221;-0.28500
2799999;-0.29000
2802777;-0.28000
2805555;-0.28000
2808333;-0.29000
2811110;-0.29500
2813888;-0.29500
2816666;-0.29500
2819444;-0.29000
2822221;-0.29500
2824999;-0.30500
2827777;-0.30500
2830555;-0.30500
2833333;-0.30500
2836110;-0.29500
2838888;-0.29500
2841666;-0.29500
2844444;-0.30000
2847221;-0.31500
2849999;-0.30000
2852777;-0.29000
2855555;-0.30000
2858333;-0.31000
2861110;-0.31000
2863888;-0.31500
2866666;-0.30000
2869444;-0.29000
2872221;-0.29500
2874999;-0.30000
2877777;-0.31000
2880555;-0.32000
2883333;-0.30000
2886110;-0.29000
2888888;-0.29500
2891666;-0.30500
2894444;-0.31000
2897221;-0.31000
2899999;-0.30000
2902777;-0.29500
2905555;-0.29000
2908333;-0.30000
2911110;-0.32000
2913888;-0.30500
2916666;-0.30500
2919444;-0.29000
2922221;-0.29500
2924999;-0.30000
2927777;-0.30000
2930555;-0.30500
2933333;-0.30000
2936110;-0.29000
2938888;-0.30000
2941666;-0.30000
2944444;-0.29500
2947221;-0.30500
2949999;-0.29000
2952777;-0.26500
2955555;-0.25000
2958333;-0.23500
2961110;-0.23500
2963888;-0.25000
2966666;-0.23000
2969444;-0.23000
2972221;-0.21500
2974999;-0.23000
2977777;-0.23500
2980555;-0.21500
2983332;-0.19500
2986110;-0.18000
2988888;-0.18500
2991666;-0.18500
2994444;-0.19500
2997221;-0.20500
2999999;-0.21000
3002777;-0.19500
3005555;-0.21500
3008332;-0.21500
3011110;-0.22500
3013888;-0.23000
3016666;-0.22000
3019444;-0.21000
3022221;-0.21000
3024999;-0.20000
3027777;-0.19000
3030555;-0.20500
3033332;-0.21500
3036110;-0.24500
3038888;-0.25000
3041666;-0.26500
3044444;-0.29500
3047221;-0.31500
3049999;-0.32500
3052777;-0.31000
3055555;-0.33000
3058332;-0.32500
3061110;-0.33500
3063888;-0.34500
3066666;-0.32500
3069444;-0.31500
3072221;-0.32500
3074999;-0.33500
3077777;-0.34000
3080555;-0.35000
3083332;-0.33500
3086110;-0.32500
3088888;-0.33500
3091666;-0.35000
3094444;-0.35000
3097221;-0.35500
3099999;-0.35000
3102777;-0.34500
3105555;-0.34000
3108332;-0.35000
3111110;-0.36000
3113888;-0.36000
3116666;-0.36500
3119444;-0.38500
3122221;-0.42500
3124999;-0.45500
3127777;-0.47500
3130555;-0.49500
3133332;-0.48500
3136110;-0.48000
3138888;-0.51500
3141666;-0.55500
3144444;-0.60500
3147221;-0.60500
3149999;-0.55000
3152777;-0.44500
3155555;-0.31500
3158332;-0.14000
3161110;0.03000
3163888;0.26000
3166666;0.55500
3169444;0.84000
3172221;1.05000
3174999;1.14000
3177777;1.07000
3180555;0.78000
3183332;0.32000
3186110;-0.11500
3188888;-0.40000
3191666;-0.47000
3194444;-0.42500
3197221;-0.37500
3199999;-0.34500
3202777;-0.34500
3205555;-0.36500
3208332;-0.37000
3211110;-0.38000
3213888;-0.38500
3216666;-0.38000
3219444;-0.37000
3222221;-0.38500
3224999;-0.39000
3227777;-0.39500
3230555;-0.40500
3233332;-0.38500
3236110;-0.38500
3238888;-0.39000
3241666;-0.39500
3244444;-0.41000
3247221;-0.41000
3249999;-0.39500
3252777;-0.39000
3255555;-0.40000
3258332;-0.40000
3261110;-0.39500
3263888;-0.41000
3266666;-0.39500
3269444;-0.38500
3272221;-0.38500
3274999;-0.39000
3277777;-0.40000
3280555;-0.42000
3283332;-0.40500
3286110;-0.39500
3288888;-0.39500
3291666;-0.40500
3294444;-0.40000
3297221;-0.40000
3299999;-0.40500
3302777;-0.38000
3305555;-0.39500
3308332;-0.40000
3311110;-0.41000
3313888;-0.41000
3316666;-0.39500
3319444;-0.39000
3322221;-0.39500
3324999;-0.39000
3327777;-0.40500
3330555;-0.41000
3333332;-0.40000
3336110;-0.39500
3338888;-0.39000
3341666;-0.40000
3344444;-0.40000
3347221;-0.40000
3349999;-0.38500
3352777;-0.37500
3355555;-0.38500
3358332;-0.40000
3361110;-0.40500
3363888;-0.39000
3366666;-0.38500
3369444;-0.38500
3372221;-0.40500
3374999;-0.40500
3377777;-0.40500
3380555;-0.41000
3383332;-0.40000
3386110;-0.39500
3388888;-0.40000
3391666;-0.41000
3394443;-0.42000
3397221;-0.42000
3399999;-0.40500
3402777;-0.40000
3405555;-0.41000
3408332;-0.41500
3411110;-0.42000
3413888;-0.42500
3416666;-0.41500
3419443;-0.40500
3422221;-0.41000
3424999;-0.42500
3427777;-0.42000
3430555;-0.43500
3433332;-0.42000
3436110;-0.41000
3438888;-0.41500
3441666;-0.42000
3444443;-0.41500
3447221;-0.42000
3449999;-0.41500
3452777;-0.40500
3455555;-0.39500
3458332;-0.40000
3461110;-0.40000
3463888;-0.40500
3466666;-0.38500
3469443;-0.36500
3472221;-0.35500
3474999;-0.35000
3477777;-0.35000
3480555;-0.35000
3483332;-0.31500
3486110;-0.31000
3488888;-0.30500
3491666;-0.30500
3494443;-0.30000
3497221;-0.30000
3499999;-0.29000
3502777;-0.27000
3505555;-0.27500
3508332;-0.28000
3511110;-0.28500
3513888;-0.29000
3516666;-0.27500
3519443;-0.27000
3522221;-0.27500
3524999;-0.27500
3527777;-0.27500
3530555;-0.28500
3533332;-0.27500
3536110;-0.26500
3538888;-0.26000
3541666;-0.26500
3544443;-0.28000
3547221;-0.28000
3549999;-0.27500
3552777;-0.26500
3555555;-0.26500
3558332;-0.28500
3561110;-0.27000
3563888;-0.28000
3566666;-0.27000
3569443;-0.26000
3572221;-0.26500
3574999;-0.28000
3577777;-0.29500
3580555;-0.28500
3583332;-0.28000
3586110;-0.28500
3588888;-0.27500
3591666;-0.28500
3594443;-0.28500
3597221;-0.31000
3599999;-0.29500
3602777;-0.28500
3605555;-0.28500
3608332;-0.30000
3611110;-0.31000
3613888;-0.31000
3616666;-0.30500
3619443;-0.29500
3622221;-0.29000
3624999;-0.30500
3627777;-0.30500
3630555;-0.32000
3633332;-0.30500
3636110;-0.30000
3638888;-0.31000
3641666;-0.31000
3644443;-0.32000
3647221;-0.32500
3649999;-0.32000
3652777;-0.31500
3655555;-0.32000
3658332;-0.32000
3661110;-0.33000
3663888;-0.34000
3666666;-0.32000
3669443;-0.31000
3672221;-0.31500
3674999;-0.32500
3677777;-0.34000
3680555;-0.34000
3683332;-0.32000
3686110;-0.32000
3688888;-0.32000
3691666;-0.32000
3694443;-0.33500
3697221;-0.34000
3699999;-0.33000
3702777;-0.32500
3705555;-0.31500
3708332;-0.33500
3711110;-0.34000
3713888;-0.32000
3716666;-0.31500
3719443;-0.31000
3722221;-0.31500
3724999;-0.31500
3727777;-0.33000
3730555;-0.32000
3733332;-0.32500
3736110;-0.31500
3738888;-0.31000
3741666;-0.31500
3744443;-0.32000
3747221;-0.32500
3749999;-0.31500
3752777;-0.30000
3755555;-0.31000
3758332;-0.31000
3761110;-0.30500
3763888;-0.32000
3766666;-0.30000
3769443;-0.29500
3772221;-0.30500
3774999;-0.31000
3777777;-0.31500
3780554;-0.33500
3783332;-0.31500
3786110;-0.30000
3788888;-0.30000
3791666;-0.30000
3794443;-0.29500
3797221;-0.29000
3799999;-0.26500
3802777;-0.24500
3805554;-0.24000
3808332;-0.25000
3811110;-0.25500
3813888;-0.25000
3816666;-0.24000
3819443;-0.22500
3822221;-0.22000
3824999;-0.21000
3827777;-0.20500
3830554;-0.21500
3833332;-0.20000
3836110;-0.20000
3838888;-0.19500
3841666;-0.21000
3844443;-0.22500
3847221;-0.23500
3849999;-0.23000
3852777;-0.22000
3855554;-0.21500
3858332;-0.22000
3861110;-0.25000
3863888;-0.24500
3866666;-0.21500
3869443;-0.18500
3872221;-0.18500
3874999;-0.21000
3877777;-0.25500
3880554;-0.28000
3883332;-0.27500
3886110;-0.27500
3888888;-0.29000
3891666;-0.31500
3894443;-0.32000
3897221;-0.33000
3899999;-0.33500
3902777;-0.33000
3905554;-0.32500
3908332;-0.32500
3911110;-0.33000
3913888;-0.34000
3916666;-0.32500
3919443;-0.33000
3922221;-0.33000
3924999;-0.34500
3927777;-0.34000
3930554;-0.35000
3933332;-0.34000
3936110;-0.33000
3938888;-0.33500
3941666;-0.35000
3944443;-0.36000
3947221;-0.35000
3949999;-0.34500
3952777;-0.34000
3955554;-0.33500
3958332;-0.35000
3961110;-0.35000
3963888;-0.35500
3966666;-0.36000
3969443;-0.38000
3972221;-0.42000
3974999;-0.47000
3977777;-0.49500
3980554;-0.52000
3983332;-0.54500
3986110;-0.57500
3988888;-0.53000
3991666;-0.45500
3994443;-0.34000
3997221;-0.19500
3999999;-0.07000
4002777;0.07000
4005554;0.24000
4008332;0.45500
4011110;0.68000
4013888;0.89500
4016666;1.03000
4019443;1.14500
4022221;1.19000
4024999;1.13500
4027777;0.92500
4030554;0.54000
4033332;0.11000
4036110;-0.20500
4038888;-0.40500
4041666;-0.45000
4044443;-0.42500
4047221;-0.39000
4049999;-0.36000
4052777;-0.34500
4055554;-0.36000
4058332;-0.36500
4061110;-0.37000
4063888;-0.37500
4066666;-0.37500
4069443;-0.37500
4072221;-0.38000
4074999;-0.38000
4077777;-0.39000
4080554;-0.39500
4083332;-0.39000
4086110;-0.38000
4088888;-0.38000
4091666;-0.39000
4094443;-0.39000
4097221;-0.39000
4099999;-0.39000
4102777;-0.38000
4105554;-0.39000
4108332;-0.39000
4111110;-0.39500
4113888;-0.40000
4116666;-0.39500
4119443;-0.39000
4122221;-0.38500
4124999;-0.39500
4127777;-0.40000
4130554;-0.41000
4133332;-0.39000
4136110;-0.37500
4138888;-0.39000
4141666;-0.40000
4144443;-0.41000
4147221;-0.40000
4149999;-0.39000
4152777;-0.38500
4155554;-0.39000
4158332;-0.39500
4161110;-0.40500
4163888;-0.39500
4166666;-0.38500
4169443;-0.38000
4172221;-0.38000
4174999;-0.38500
4177777;-0.39000
4180554;-0.40500
4183332;-0.38500
4186110;-0.38500
4188888;-0.39500
4191665;-0.40000
4194443;-0.40500
4197221;-0.41500
4199999;-0.39500
4202777;-0.38500
4205554;-0.40500
4208332;-0.41500
4211110;-0.40000
4213888;-0.40000
4216665;-0.39500
4219443;-0.38500
4222221;-0.39000
4224999;-0.39000
4227777;-0.40500
4230554;-0.39500
4233332;-0.38500
4236110;-0.39000
4238888;-0.40000
4241665;-0.39500
4244443;-0.41500
4247221;-0.41000
4249999;-0.40000
4252777;-0.39500
4255554;-0.39500
4258332;-0.39500
4261110;-0.41500
4263888;-0.42000
4266665;-0.41000
4269443;-0.40000
4272221;-0.40500
4274999;-0.40500
4277777;-0.41500
4280554;-0.43500
4283332;-0.40000
4286110;-0.39500
4288888;-0.40500
4291665;-0.41500
4294443;-0.41000
4297221;-0.40500
4299999;-0.40000
4302777;-0.38000
4305554;-0.37500
4308332;-0.39500
4311110;-0.39000
4313888;-0.39000
4316665;-0.36500
4319443;-0.36000
4322221;-0.34500
4324999;-0.34500
4327777;-0.34000
4330554;-0.34000
4333332;-0.31500
4336110;-0.29500
4338888;-0.28500
4341665;-0.28500
4344443;-0.29000
4347221;-0.28500
4349999;-0.27500
4352777;-0.26500
4355554;-0.26500
4358332;-0.27000
4361110;-0.26500
4363888;-0.26500
4366665;-0.26000
4369443;-0.24000
4372221;-0.24500
4374999;-0.25000
4377777;-0.25000
4380554;-0.26500
4383332;-0.26000
4386110;-0.25000
4388888;-0.25500
4391665;-0.25500
4394443;-0.26500
4397221;-0.27500
4399999;-0.26500
4402777;-0.25500
4405554;-0.25000
4408332;-0.25500
4411110;-0.26500
4413888;-0.26000
4416665;-0.25000
4419443;-0.23500
4422221;-0.23500
4424999;-0.25500
4427777;-0.25500
4430554;-0.27000
4433332;-0.26000
4436110;-0.25000
4438888;-0.25500
4441665;-0.26500
4444443;-0.27500
4447221;-0.28000
4449999;-0.27000
4452777;-0.26500
4455554;-0.28500
4458332;-0.29000
4461110;-0.28500
4463888;-0.29000
4466665;-0.28000
4469443;-0.27000
4472221;-0.26000
4474999;-0.28500
4477777;-0.31000
4480554;-0.30500
4483332;-0.30500
4486110;-0.29000
4488888;-0.29000
4491665;-0.29500
4494443;-0.31000
4497221;-0.31000
4499999;-0.30500
4502777;-0.30000
4505554;-0.29500
4508332;-0.31500
4511110;-0.32000
4513888;-0.32000
4516665;-0.31000
4519443;-0.31000
4522221;-0.31000
4524999;-0.31500
4527777;-0.31500
4530554;-0.32500
4533332;-0.32000
4536110;-0.31500
4538888;-0.32000
4541665;-0.30500
4544443;-0.30500
4547221;-0.31500
4549999;-0.31000
4552777;-0.30500
4555554;-0.31000
4558332;-0.30000
4561110;-0.30500
4563888;-0.32000
4566665;-0.31000
4569443;-0.31500
4572221;-0.30500
4574999;-0.31000
4577776;-0.32000
4580554;-0.32000
4583332;-0.31500
4586110;-0.31000
4588888;-0.30500
4591665;-0.31500
4594443;-0.31000
4597221;-0.31500
4599999;-0.30000
4602776;-0.29000
4605554;-0.30000
4608332;-0.30000
4611110;-0.31500
4613888;-0.33000
4616665;-0.30000
4619443;-0.29500
4622221;-0.27000
4624999;-0.28000
4627776;-0.27000
4630554;-0.26000
4633332;-0.25000
4636110;-0.23500
4638888;-0.23000
4641665;-0.24000
4644443;-0.24000
4647221;-0.23500
4649999;-0.22500
4652776;-0.20500
4655554;-0.19000
4658332;-0.18500
4661110;-0.19500
4663888;-0.21500
4666665;-0.19500
4669443;-0.19500
4672221;-0.19500
4674999;-0.20500
4677776;-0.22000
4680554;-0.21500
4683332;-0.21500
4686110;-0.21000
4688888;-0.23000
4691665;-0.24000
4694443;-0.24000
4697221;-0.22000
4699999;-0.19000
4702776;-0.18500
4705554;-0.20500
4708332;-0.24500
4711110;-0.27000
4713888;-0.28500
4716665;-0.28500
4719443;-0.29500
4722221;-0.30500
4724999;-0.32000
4727776;-0.32000
4730554;-0.33000
4733332;-0.31500
4736110;-0.32500
4738888;-0.31500
4741665;-0.33500
4744443;-0.33000
4747221;-0.33000
4749999;-0.32500
4752776;-0.31500
4755554;-0.33000
4758332;-0.34000
4761110;-0.34000
4763888;-0.34500
4766665;-0.34000
4769443;-0.35000
4772221;-0.34000
4774999;-0.34000
4777776;-0.35000
4780554;-0.35000
4783332;-0.35000
4786110;-0.33500
4788888;-0.33000
4791665;-0.34000
4794443;-0.33500
4797221;-0.35000
4799999;-0.35500
4802776;-0.39000
4805554;-0.43000
4808332;-0.45500
4811110;-0.48000
4813888;-0.52500
4816665;-0.55000
4819443;-0.52000
4822221;-0.43000
4824999;-0.30000
4827776;-0.16000
4830554;0.01000
4833332;0.25000
4836110;0.52000
4838888;0.76000
4841665;0.93000
4844443;1.03500
4847221;1.03500
4849999;0.93000
4852776;0.73000
4855554;0.46500
4858332;0.20000
4861110;-0.01000
4863888;-0.18500
4866665;-0.30500
4869443;-0.39000
4872221;-0.45500
4874999;-0.50000
4877776;-0.51500
4880554;-0.49500
4883332;-0.45000
4886110;-0.41500
4888888;-0.39000
4891665;-0.39500
4894443;-0.39500
4897221;-0.40500
4899999;-0.38000
4902776;-0.37500
4905554;-0.39000
4908332;-0.41000
4911110;-0.41500
4913888;-0.41500
4916665;-0.40000
4919443;-0.39000
4922221;-0.39500
4924999;-0.39500
4927776;-0.40500
4930554;-0.41000
4933332;-0.40000
4936110;-0.38500
4938888;-0.38000
4941665;-0.39500
4944443;-0.39500
4947221;-0.40000
4949999;-0.38500
4952776;-0.40000
4955554;-0.38500
4958332;-0.40000
4961110;-0.41000
4963887;-0.42000
4966665;-0.40000
4969443;-0.39000
4972221;-0.39000
4974999;-0.39500
4977776;-0.41500
4980554;-0.41000
4983332;-0.39500
4986110;-0.39500
4988887;-0.39000
4991665;-0.39500
4994443;-0.41000
4997221;-0.40500
4999999;-0.39000
5002776;-0.39000
5005554;-0.37000
5008332;-0.39500
5011110;-0.41000
5013887;-0.41500
5016665;-0.40000
5019443;-0.39000
5022221;-0.39000
5024999;-0.40000
5027776;-0.40500
5030554;-0.39000
5033332;-0.39500
5036110;-0.38500
5038887;-0.38000
5041665;-0.39000
5044443;-0.39500
5047221;-0.41000
5049999;-0.40500
5052776;-0.39500
5055554;-0.39500
5058332;-0.38500
5061110;-0.39500
5063887;-0.39500
5066665;-0.39000
5069443;-0.38500
5072221;-0.40500
5074999;-0.41500
5077776;-0.42000
5080554;-0.40500
5083332;-0.40500
5086110;-0.40000
5088887;-0.40500
5091665;-0.40500
5094443;-0.42000
5097221;-0.42500
5099999;-0.42500
5102776;-0.41500
5105554;-0.41500
5108332;-0.41500
5111110;-0.43500
5113887;-0.45500
5116665;-0.45000
5119443;-0.45000
5122221;-0.44500
5124999;-0.44500
5127776;-0.45000
5130554;-0.46000
5133332;-0.45000
5136110;-0.45500
5138887;-0.45500
5141665;-0.45500
5144443;-0.47000
5147221;-0.46000
5149999;-0.43500
5152776;-0.42000
5155554;-0.40500
5158332;-0.40500
5161110;-0.39500
5163887;-0.38000
5166665;-0.36000
5169443;-0.34000
5172221;-0.33000
5174999;-0.33500
5177776;-0.32000
5180554;-0.31000
5183332;-0.30000
5186110;-0.30000
5188887;-0.30500
5191665;-0.30500
5194443;-0.30500
5197221;-0.29500
5199999;-0.28500
5202776;-0.29000
5205554;-0.29500
5208332;-0.28500
5211110;-0.29000
5213887;-0.28000
5216665;-0.28500
5219443;-0.27000
5222221;-0.27500
5224999;-0.27500
5227776;-0.28000
5230554;-0.28000
5233332;-0.29000
5236110;-0.26000
5238887;-0.26500
5241665;-0.27000
5244443;-0.28500
5247221;-0.29000
5249999;-0.27500
5252776;-0.27000
5255554;-0.26500
5258332;-0.28500
5261110;-0.28500
5263887;-0.29500
5266665;-0.28500
5269443;-0.28000
5272221;-0.27500
5274999;-0.30000
5277776;-0.31000
5280554;-0.32000
5283332;-0.30500
5286110;-0.29500
5288887;-0.29500
5291665;-0.31500
5294443;-0.34500
5297221;-0.33500
5299999;-0.31500
5302776;-0.30000
5305554;-0.29000
5308332;-0.29000
5311110;-0.31000
5313887;-0.31000
5316665;-0.30500
5319443;-0.30500
5322221;-0.31500
5324999;-0.31000
5327776;-0.33500
5330554;-0.33500
5333332;-0.33000
5336110;-0.31500
5338887;-0.32000
5341665;-0.34000
5344443;-0.32500
5347221;-0.33000
5349999;-0.31000
5352776;-0.32500
5355554;-0.33500
5358332;-0.33500
5361110;-0.34500
5363887;-0.34500
5366665;-0.33000
5369443;-0.34000
5372221;-0.32500
5374998;-0.32000
5377776;-0.32500
5380554;-0.33000
5383332;-0.32500
5386110;-0.32500
5388887;-0.31500
5391665;-0.32500
5394443;-0.33000
5397221;-0.33500
5399998;-0.32500
5402776;-0.31000
5405554;-0.31000
5408332;-0.32000
5411110;-0.32500
5413887;-0.34500
5416665;-0.34000
5419443;-0.32500
5422221;-0.32000
5424998;-0.32500
5427776;-0.32500
5430554;-0.34000
5433332;-0.32500
5436110;-0.32500
5438887;-0.31000
5441665;-0.32500
5444443;-0.31500
5447221;-0.30000
5449998;-0.26500
5452776;-0.27000
5455554;-0.26000
5458332;-0.25500
5461110;-0.26000
5463887;-0.26500
5466665;-0.25000
5469443;-0.23000
5472221;-0.22000
5474998;-0.23000
5477776;-0.22500
5480554;-0.22500
5483332;-0.22500
5486110;-0.22500
5488887;-0.23500
5491665;-0.24000
5494443;-0.24500
5497221;-0.25500
5499998;-0.24500
5502776;-0.24000
5505554;-0.26000
5508332;-0.26000
5511110;-0.25500
5513887;-0.24500
5516665;-0.22000
5519443;-0.24500
5522221;-0.26500
5524998;-0.28000
5527776;-0.31000
5530554;-0.32000
5533332;-0.33500
5536110;-0.33500
5538887;-0.33500
5541665;-0.35000
5544443;-0.36500
5547221;-0.35500
5549998;-0.35000
5552776;-0.35000
5555554;-0.34500
5558332;-0.36500
5561110;-0.36500
5563887;-0.37500
5566665;-0.36500
5569443;-0.37500
5572221;-0.36500
5574998;-0.36500
5577776;-0.37000
5580554;-0.37500
5583332;-0.36500
5586110;-0.35500
5588887;-0.36000
5591665;-0.37000
5594443;-0.37500
5597221;-0.37500
5599998;-0.38500
5602776;-0.37000
5605554;-0.38500
5608332;-0.42000
5611110;-0.46000
5613887;-0.49000
5616665;-0.50500
5619443;-0.52500
5622221;-0.57000
5624998;-0.59500
5627776;-0.57500
5630554;-0.51500
5633332;-0.40000
5636110;-0.30500
5638887;-0.25500
5641665;-0.20000
5644443;-0.12500
5647221;-0.02000
5649998;0.16500
5652776;0.39000
5655554;0.62500
5658332;0.82000
5661110;0.95000
