time_ms;ecg_value
0;0.89500
2778;0.95500
5556;0.82000
8333;0.50500
11111;0.09000
13889;-0.24000
16667;-0.43000
19444;-0.46000
22222;-0.44000
25000;-0.40500
27778;-0.38000
30556;-0.38500
33333;-0.38500
36111;-0.37000
38889;-0.37000
41667;-0.37500
44444;-0.38500
47222;-0.39500
50000;-0.39000
52778;-0.38500
55556;-0.38500
58333;-0.38500
61111;-0.39000
63889;-0.37500
66667;-0.37500
69444;-0.36500
72222;-0.35500
75000;-0.38000
77778;-0.38500
80556;-0.38500
83333;-0.38500
86111;-0.39500
88889;-0.39500
91667;-0.40000
94444;-0.40500
97222;-0.41000
100000;-0.40500
102778;-0.38500
105556;-0.38000
108333;-0.37500
111111;-0.39500
113889;-0.40500
116667;-0.40000
119444;-0.39500
122222;-0.39500
125000;-0.39500
127778;-0.40500
130556;-0.42000
133333;-0.41000
136111;-0.39500
138889;-0.39000
141667;-0.39000
144444;-0.40000
147222;-0.41000
150000;-0.40500
152778;-0.40500
155556;-0.40500
158333;-0.42000
161111;-0.41000
163889;-0.41500
166667;-0.38000
169444;-0.39000
172222;-0.39000
175000;-0.40500
177778;-0.41500
180556;-0.41500
183333;-0.40000
186111;-0.40000
188889;-0.39500
191667;-0.40000
194444;-0.41000
197222;-0.42500
200000;-0.41000
202778;-0.41000
205555;-0.42000
208333;-0.42500
211111;-0.43500
213889;-0.43500
216667;-0.44000
219444;-0.44000
222222;-0.44500
225000;-0.44500
227778;-0.45500
230555;-0.46500
233333;-0.46000
236111;-0.45000
238889;-0.45500
241667;-0.46000
244444;-0.46500
247222;-0.47500
250000;-0.48000
252778;-0.47500
255555;-0.47000
258333;-0.46500
261111;-0.46500
263889;-0.44500
266667;-0.44000
269444;-0.43000
272222;-0.43000
275000;-0.43500
277778;-0.45000
280555;-0.45000
283333;-0.44500
286111;-0.42500
288889;-0.41000
291667;-0.40000
294444;-0.41500
297222;-0.40500
300000;-0.39000
302778;-0.37000
305555;-0.37000
308333;-0.35500
311111;-0.35000
313889;-0.36500
316667;-0.33500
319444;-0.31500
322222;-0.31000
325000;-0.32000
327778;-0.33500
330555;-0.34000
333333;-0.33500
336111;-0.32500
338889;-0.32000
341667;-0.32000
344444;-0.32000
347222;-0.32000
350000;-0.32500
352778;-0.31500
355555;-0.31500
358333;-0.34000
361111;-0.33000
363889;-0.32500
366667;-0.31500
369444;-0.31500
372222;-0.32000
375000;-0.34000
377778;-0.36000
380555;-0.35500
383333;-0.33500
386111;-0.32000
388889;-0.32000
391667;-0.32000
394444;-0.33500
397222;-0.34500
400000;-0.34500
402778;-0.32500
405555;-0.34000
408333;-0.35000
411111;-0.35000
413889;-0.37500
416667;-0.37000
419444;-0.35000
422222;-0.36000
425000;-0.36000
427778;-0.37000
430555;-0.37000
433333;-0.37500
436111;-0.34500
438889;-0.35000
441667;-0.36000
444444;-0.36500
447222;-0.36500
450000;-0.35500
452778;-0.36000
455555;-0.37500
458333;-0.38500
461111;-0.41000
463889;-0.39000
466667;-0.38500
469444;-0.37000
472222;-0.38500
475000;-0.39000
477778;-0.39000
480555;-0.39000
483333;-0.36000
486111;-0.35500
488889;-0.37500
491667;-0.39000
494444;-0.39500
497222;-0.39500
500000;-0.38000
502778;-0.38500
505555;-0.38500
508333;-0.39000
511111;-0.39500
513889;-0.40500
516667;-0.39000
519444;-0.37500
522222;-0.38500
525000;-0.39500
527778;-0.40500
530555;-0.40500
533333;-0.38500
536111;-0.36500
538889;-0.37500
541667;-0.39500
544444;-0.39000
547222;-0.39500
550000;-0.38500
552778;-0.38000
555555;-0.38000
558333;-0.39000
561111;-0.38000
563889;-0.37500
566667;-0.35000
569444;-0.33500
572222;-0.32500
575000;-0.32500
577778;-0.34000
580555;-0.35000
583333;-0.32500
586111;-0.32000
588889;-0.30000
591667;-0.29000
594444;-0.30000
597222;-0.31500
600000;-0.29000
602778;-0.28500
605555;-0.29000
608333;-0.28500
611111;-0.30500
613889;-0.33000
616666;-0.32000
619444;-0.29000
622222;-0.28500
625000;-0.30000
627778;-0.31500
630555;-0.34000
633333;-0.33000
636111;-0.31000
638889;-0.29500
641666;-0.29000
644444;-0.29500
647222;-0.31000
650000;-0.31500
652778;-0.32000
655555;-0.33000
658333;-0.35000
661111;-0.37000
663889;-0.40000
666666;-0.41000
669444;-0.41000
672222;-0.41000
675000;-0.42000
677778;-0.43500
680555;-0.43500
683333;-0.43000
686111;-0.41000
688889;-0.40500
691666;-0.41000
694444;-0.43500
697222;-0.44000
700000;-0.42000
702778;-0.42000
705555;-0.42000
708333;-0.43500
711111;-0.45000
713889;-0.45000
716666;-0.43500
719444;-0.43000
722222;-0.43000
725000;-0.43000
727778;-0.45000
730555;-0.45500
733333;-0.45000
736111;-0.43500
738889;-0.46500
741666;-0.48500
744444;-0.52500
747222;-0.55000
750000;-0.55500
752778;-0.58500
755555;-0.61500
758333;-0.60000
761111;-0.54000
763889;-0.40500
766666;-0.23500
769444;-0.05500
772222;0.18500
775000;0.46000
777778;0.70000
780555;0.87000
783333;0.94000
786111;0.81000
788889;0.45500
791666;-0.02000
794444;-0.37500
797222;-0.53500
800000;-0.55500
802778;-0.53500
805555;-0.49000
808333;-0.47000
811111;-0.47000
813889;-0.47500
816666;-0.47500
819444;-0.46000
822222;-0.46500
825000;-0.45000
827778;-0.46000
830555;-0.46000
833333;-0.45500
836111;-0.45000
838889;-0.45000
841666;-0.46000
844444;-0.46500
847222;-0.46500
850000;-0.45000
852778;-0.46000
855555;-0.45500
858333;-0.46000
861111;-0.46500
863889;-0.46500
866666;-0.45500
869444;-0.45000
872222;-0.45000
875000;-0.45500
877778;-0.47000
880555;-0.47500
883333;-0.46000
886111;-0.45000
888889;-0.45500
891666;-0.46000
894444;-0.46500
897222;-0.47000
900000;-0.44500
902778;-0.44500
905555;-0.45500
908333;-0.45500
911111;-0.45500
913889;-0.46500
916666;-0.46000
919444;-0.44500
922222;-0.44000
925000;-0.46500
927778;-0.46000
930555;-0.46000
933333;-0.44500
936111;-0.44500
938889;-0.45000
941666;-0.45500
944444;-0.47000
947222;-0.47000
950000;-0.46000
952778;-0.45500
955555;-0.45500
958333;-0.45500
961111;-0.47000
963889;-0.47000
966666;-0.46500
969444;-0.45500
972222;-0.44500
975000;-0.45000
977778;-0.46000
980555;-0.46500
983333;-0.45500
986111;-0.45000
988889;-0.45000
991666;-0.46500
994444;-0.46000
997222;-0.47500
1000000;-0.47000
1002777;-0.46500
1005555;-0.47000
1008333;-0.47500
1011111;-0.49000
1013889;-0.51500
1016666;-0.50500
1019444;-0.50500
1022222;-0.51000
1025000;-0.52500
1027777;-0.53000
1030555;-0.53500
1033333;-0.53500
1036111;-0.52500
1038889;-0.52000
1041666;-0.51500
1044444;-0.51500
1047222;-0.53000
1050000;-0.51500
1052777;-0.49000
1055555;-0.48500
1058333;-0.48500
1061111;-0.47500
1063889;-0.47000
1066666;-0.45500
1069444;-0.45500
1072222;-0.43500
1075000;-0.45000
1077777;-0.45000
1080555;-0.44000
1083333;-0.41000
1086111;-0.40000
1088889;-0.38500
1091666;-0.37500
1094444;-0.37500
1097222;-0.36500
1100000;-0.35500
1102777;-0.34500
1105555;-0.33500
1108333;-0.33500
1111111;-0.33500
1113889;-0.34000
1116666;-0.32500
1119444;-0.32000
1122222;-0.31500
1125000;-0.31500
1127777;-0.32000
1130555;-0.32000
1133333;-0.32000
1136111;-0.30500
1138889;-0.31500
1141666;-0.31000
1144444;-0.33000
1147222;-0.33500
1150000;-0.33000
1152777;-0.33000
1155555;-0.33000
1158333;-0.34000
1161111;-0.34500
1163889;-0.35000
1166666;-0.34500
1169444;-0.33000
1172222;-0.32000
1175000;-0.32500
1177777;-0.34000
1180555;-0.34000
1183333;-0.34000
1186111;-0.32000
1188889;-0.32500
1191666;-0.33500
1194444;-0.34000
1197222;-0.34000
1200000;-0.35000
1202777;-0.33000
1205555;-0.32500
1208333;-0.33500
1211111;-0.34500
1213889;-0.34500
1216666;-0.34500
1219444;-0.34000
1222222;-0.34500
1225000;-0.35000
1227777;-0.35500
1230555;-0.35500
1233333;-0.36000
1236111;-0.34000
1238889;-0.35000
1241666;-0.34000
1244444;-0.35000
1247222;-0.35500
1250000;-0.36000
1252777;-0.34500
1255555;-0.34000
1258333;-0.34500
1261111;-0.35500
1263889;-0.37500
1266666;-0.36000
1269444;-0.35500
1272222;-0.35500
1275000;-0.36500
1277777;-0.36500
1280555;-0.36000
1283333;-0.35500
1286111;-0.35500
1288889;-0.34500
1291666;-0.35500
1294444;-0.35000
1297222;-0.34500
1300000;-0.33500
1302777;-0.33000
1305555;-0.32500
1308333;-0.33000
1311111;-0.34000
1313889;-0.35000
1316666;-0.34500
1319444;-0.34000
1322222;-0.33500
1325000;-0.34000
1327777;-0.34000
1330555;-0.34500
1333333;-0.33500
1336111;-0.33000
1338889;-0.34000
1341666;-0.34500
1344444;-0.35000
1347222;-0.35000
1350000;-0.34500
1352777;-0.34000
1355555;-0.34500
1358333;-0.35000
1361111;-0.37000
1363889;-0.35500
1366666;-0.35000
1369444;-0.33500
1372222;-0.32500
1375000;-0.32000
1377777;-0.32500
1380555;-0.32000
1383333;-0.28500
1386111;-0.26500
1388888;-0.26000
1391666;-0.26000
1394444;-0.27000
1397222;-0.25000
1400000;-0.24000
1402777;-0.22000
1405555;-0.22000
1408333;-0.22500
1411111;-0.23000
1413888;-0.23500
1416666;-0.24500
1419444;-0.22500
1422222;-0.23500
1425000;-0.24500
1427777;-0.25500
1430555;-0.27000
1433333;-0.25000
1436111;-0.25000
1438888;-0.25000
1441666;-0.25000
1444444;-0.24000
1447222;-0.22500
1450000;-0.21500
1452777;-0.24500
1455555;-0.25500
1458333;-0.28500
1461111;-0.29000
1463888;-0.30000
1466666;-0.31000
1469444;-0.30000
1472222;-0.31000
1475000;-0.32500
1477777;-0.35000
1480555;-0.36500
1483333;-0.36500
1486111;-0.34000
1488888;-0.34500
1491666;-0.33500
1494444;-0.34500
1497222;-0.35500
1500000;-0.35000
1502777;-0.35000
1505555;-0.34000
1508333;-0.35500
1511111;-0.37500
1513888;-0.36500
1516666;-0.36500
1519444;-0.34500
1522222;-0.35500
1525000;-0.36000
1527777;-0.36500
1530555;-0.37500
1533333;-0.36000
1536111;-0.35000
1538888;-0.36000
1541666;-0.38000
1544444;-0.41500
1547222;-0.46000
1550000;-0.47500
1552777;-0.49500
1555555;-0.52000
1558333;-0.56000
1561111;-0.54000
1563888;-0.46000
1566666;-0.30000
1569444;-0.14000
1572222;-0.00500
1575000;0.12500
1577777;0.29000
1580555;0.51000
1583333;0.74000
1586111;0.94500
1588888;1.08000
1591666;1.17000
1594444;1.18500
1597222;1.03000
1600000;0.65500
1602777;0.15500
1605555;-0.26500
1608333;-0.46500
1611111;-0.46000
1613888;-0.40500
1616666;-0.34500
1619444;-0.34000
1622222;-0.34500
1625000;-0.36000
1627777;-0.37500
1630555;-0.38500
1633333;-0.36500
1636111;-0.37500
1638888;-0.37000
1641666;-0.38500
1644444;-0.38500
1647222;-0.39500
1650000;-0.39000
1652777;-0.39000
1655555;-0.39000
1658333;-0.39500
1661111;-0.40000
1663888;-0.42000
1666666;-0.40500
1669444;-0.39500
1672222;-0.38500
1675000;-0.39000
1677777;-0.40000
1680555;-0.40000
1683333;-0.38000
1686111;-0.37500
1688888;-0.37500
1691666;-0.37500
1694444;-0.39000
1697222;-0.39000
1700000;-0.39000
1702777;-0.38500
1705555;-0.38000
1708333;-0.38500
1711111;-0.40000
1713888;-0.41500
1716666;-0.39500
1719444;-0.40000
1722222;-0.39000
1725000;-0.38500
1727777;-0.39500
1730555;-0.40000
1733333;-0.38000
1736111;-0.38000
1738888;-0.37500
1741666;-0.38000
1744444;-0.39500
1747222;-0.40000
1750000;-0.39000
1752777;-0.37500
1755555;-0.38000
1758333;-0.39000
1761111;-0.40000
1763888;-0.40000
1766666;-0.39000
1769444;-0.38000
1772222;-0.37500
1775000;-0.38500
1777777;-0.40000
1780555;-0.40000
1783333;-0.39500
1786111;-0.39000
1788888;-0.40000
1791666;-0.39000
1794444;-0.39500
1797222;-0.41000
1799999;-0.41500
1802777;-0.39500
1805555;-0.39500
1808333;-0.40000
1811111;-0.42000
1813888;-0.42000
1816666;-0.40500
1819444;-0.39500
1822222;-0.40500
1824999;-0.40000
1827777;-0.40500
1830555;-0.42000
1833333;-0.41500
1836111;-0.40500
1838888;-0.40500
1841666;-0.41000
1844444;-0.41500
1847222;-0.42000
1849999;-0.39500
1852777;-0.39500
1855555;-0.39000
1858333;-0.39000
1861111;-0.39500
1863888;-0.39500
1866666;-0.38500
1869444;-0.38000
1872222;-0.38500
1874999;-0.37000
1877777;-0.37500
1880555;-0.37500
1883333;-0.36000
1886111;-0.34000
1888888;-0.32000
1891666;-0.33000
1894444;-0.32500
1897222;-0.31500
1899999;-0.29500
1902777;-0.27500
1905555;-0.27500
1908333;-0.27000
1911111;-0.27500
1913888;-0.27500
1916666;-0.27000
1919444;-0.26000
1922222;-0.26500
1924999;-0.26500
1927777;-0.28000
1930555;-0.28500
1933333;-0.27000
1936111;-0.26500
1938888;-0.26000
1941666;-0.26000
1944444;-0.28000
1947222;-0.28500
1949999;-0.27000
1952777;-0.26000
1955555;-0.27000
1958333;-0.26500
1961111;-0.27000
1963888;-0.27500
1966666;-0.26500
1969444;-0.26500
1972222;-0.27000
1974999;-0.26000
1977777;-0.28000
1980555;-0.29000
1983333;-0.28000
1986111;-0.26500
1988888;-0.27000
1991666;-0.27500
1994444;-0.29500
1997222;-0.29000
1999999;-0.30000
2002777;-0.29500
2005555;-0.29500
2008333;-0.31000
2011111;-0.31500
2013888;-0.31500
2016666;-0.31000
2019444;-0.29500
2022222;-0.29000
2024999;-0.30000
2027777;-0.31000
2030555;-0.32000
2033333;-0.30000
2036111;-0.30000
2038888;-0.30000
2041666;-0.30000
2044444;-0.31500
2047222;-0.33000
2049999;-0.31500
2052777;-0.30000
2055555;-0.30500
2058333;-0.31000
2061111;-0.32500
2063888;-0.33000
2066666;-0.32000
2069444;-0.31500
2072222;-0.32000
2074999;-0.32500
2077777;-0.31500
2080555;-0.34500
2083333;-0.33000
2086111;-0.32500
2088888;-0.32000
2091666;-0.32500
2094444;-0.34000
2097222;-0.34500
2099999;-0.32500
2102777;-0.31000
2105555;-0.31500
2108333;-0.31500
2111111;-0.33000
2113888;-0.32500
2116666;-0.31000
2119444;-0.30000
2122222;-0.29500
2124999;-0.30000
2127777;-0.31000
2130555;-0.32500
2133333;-0.30000
2136111;-0.29000
2138888;-0.28500
2141666;-0.29000
2144444;-0.30500
2147222;-0.30500
2149999;-0.29500
2152777;-0.28500
2155555;-0.29000
2158333;-0.30000
2161111;-0.32000
2163888;-0.33000
2166666;-0.30500
2169444;-0.29500
2172222;-0.29500
2174999;-0.30000
2177777;-0.31500
2180555;-0.31000
2183333;-0.29000
2186110;-0.26000
2188888;-0.24000
2191666;-0.22000
2194444;-0.23000
2197222;-0.23000
2199999;-0.22500
2202777;-0.20500
2205555;-0.21000
2208333;-0.21000
2211110;-0.21000
2213888;-0.20000
2216666;-0.19000
2219444;-0.18000
2222222;-0.18000
2224999;-0.19000
2227777;-0.19500
2230555;-0.20500
2233333;-0.20000
2236110;-0.20500
2238888;-0.20000
2241666;-0.20000
2244444;-0.18500
2247222;-0.20000
2249999;-0.21500
2252777;-0.21000
2255555;-0.20000
2258333;-0.19000
2261110;-0.19000
2263888;-0.19500
2266666;-0.21500
2269444;-0.23500
2272222;-0.25500
2274999;-0.25500
2277777;-0.28500
2280555;-0.30500
2283333;-0.31000
2286110;-0.30000
2288888;-0.30500
2291666;-0.32000
2294444;-0.33000
2297222;-0.33000
2299999;-0.31000
2302777;-0.31000
2305555;-0.31000
2308333;-0.32000
2311110;-0.32500
2313888;-0.33000
2316666;-0.32500
2319444;-0.31500
2322222;-0.31500
2324999;-0.31500
2327777;-0.33000
2330555;-0.33000
2333333;-0.32500
2336110;-0.32000
2338888;-0.31500
2341666;-0.32500
2344444;-0.32500
2347222;-0.33000
2349999;-0.32500
2352777;-0.31500
2355555;-0.32500
2358333;-0.32500
2361110;-0.34000
2363888;-0.38500
2366666;-0.41500
2369444;-0.44000
2372222;-0.47000
2374999;-0.50000
2377777;-0.54000
2380555;-0.55000
2383333;-0.50500
2386110;-0.38500
2388888;-0.23500
2391666;-0.10000
2394444;0.00500
2397222;0.15500
2399999;0.35000
2402777;0.59000
2405555;0.81500
2408333;0.99000
2411110;1.08500
2413888;1.07000
2416666;0.88000
2419444;0.50000
2422222;0.03500
2424999;-0.30500
2427777;-0.44000
2430555;-0.42500
2433333;-0.35000
2436110;-0.31500
2438888;-0.31000
2441666;-0.33000
2444444;-0.34500
2447222;-0.36000
2449999;-0.34500
2452777;-0.35000
2455555;-0.33500
2458333;-0.34500
2461110;-0.36500
2463888;-0.36000
2466666;-0.37000
2469444;-0.35500
2472222;-0.36000
2474999;-0.34500
2477777;-0.36000
2480555;-0.36000
2483333;-0.36000
2486110;-0.35000
2488888;-0.34000
2491666;-0.34500
2494444;-0.36000
2497222;-0.36500
2499999;-0.36000
2502777;-0.35500
2505555;-0.35500
2508333;-0.36000
2511110;-0.36000
2513888;-0.36000
2516666;-0.36000
2519444;-0.34500
2522222;-0.35000
2524999;-0.35000
2527777;-0.36000
2530555;-0.36500
2533333;-0.38000
2536110;-0.36000
2538888;-0.37500
2541666;-0.36500
2544444;-0.37500
2547222;-0.37500
2549999;-0.36500
2552777;-0.37000
2555555;-0.35500
2558333;-0.35500
2561110;-0.37000
2563888;-0.37500
2566666;-0.36500
2569444;-0.36000
2572222;-0.34000
2574999;-0.34500
2577777;-0.35500
2580555;-0.36000
2583333;-0.36000
2586110;-0.34500
2588888;-0.35000
2591666;-0.34500
2594444;-0.35500
2597221;-0.36000
2599999;-0.34500
2602777;-0.34000
2605555;-0.33500
2608333;-0.33500
2611110;-0.35000
2613888;-0.35500
2616666;-0.35500
2619444;-0.35000
2622221;-0.34500
2624999;-0.35000
2627777;-0.36000
2630555;-0.36000
2633333;-0.37500
2636110;-0.37000
2638888;-0.36000
2641666;-0.37000
2644444;-0.37500
2647221;-0.37500
2649999;-0.36000
2652777;-0.35500
2655555;-0.36000
2658333;-0.37000
2661110;-0.37000
2663888;-0.38500
2666666;-0.37500
2669444;-0.36500
2672221;-0.36500
2674999;-0.37500
2677777;-0.38500
2680555;-0.38000
2683333;-0.38500
2686110;-0.37000
2688888;-0.37000
2691666;-0.37000
2694444;-0.37500
2697221;-0.39000
2699999;-0.36000
2702777;-0.35500
2705555;-0.34500
2708333;-0.34500
2711110;-0.33500
2713888;-0.33000
2716666;-0.31000
2719444;-0.30500
2722221;-0.29000
2724999;-0.28500
2727777;-0.27000
2730555;-0.28500
2733333;-0.26000
2736110;-0.24500
2738888;-0.24000
2741666;-0.24500
2744444;-0.25000
2747221;-0.25000
2749999;-0.25500
2752777;-0.24500
2755555;-0.24500
2758333;-0.25500
2761110;-0.25000
2763888;-0.26000
2766666;-0.25000
2769444;-0.24500
2772221;-0.23500
2774999;-0.25000
2777777;-0.25500
2780555;-0.26500
2783333;-0.24500
2786110;-0.24000
2788888;-0.25000
2791666;-0.25000
2794444;-0.26000
2797221;-0.25000
2799999;-0.25000
2802777;-0.24000
2805555;-0.24000
2808333;-0.25000
2811110;-0.26000
2813888;-0.25500
2816666;-0.25500
2819444;-0.24500
2822221;-0.23500
2824999;-0.25000
2827777;-0.26500
2830555;-0.27000
2833333;-0.26500
2836110;-0.26500
2838888;-0.26000
2841666;-0.28000
2844444;-0.27500
2847221;-0.29000
2849999;-0.28500
2852777;-0.27000
2855555;-0.27000
2858333;-0.28000
2861110;-0.28500
2863888;-0.29500
2866666;-0.28500
2869444;-0.27000
2872221;-0.28000
2874999;-0.29000
2877777;-0.29000
2880555;-0.29000
2883333;-0.28000
2886110;-0.27500
2888888;-0.27500
2891666;-0.28000
2894444;-0.28500
2897221;-0.29000
2899999;-0.29500
2902777;-0.28500
2905555;-0.27000
2908333;-0.27500
2911110;-0.28000
2913888;-0.29500
2916666;-0.29500
2919444;-0.29000
2922221;-0.29000
2924999;-0.28500
2927777;-0.29500
2930555;-0.30000
2933333;-0.28500
2936110;-0.28000
2938888;-0.27500
2941666;-0.28000
2944444;-0.28500
2947221;-0.29500
2949999;-0.29000
2952777;-0.29000
2955555;-0.27000
2958333;-0.28000
2961110;-0.28500
2963888;-0.28000
2966666;-0.28500
2969444;-0.26500
2972221;-0.27500
2974999;-0.27000
2977777;-0.28000
2980555;-0.28500
2983332;-0.28500
2986110;-0.28000
2988888;-0.27000
2991666;-0.28500
2994444;-0.29000
2997221;-0.30000
2999999;-0.28500
3002777;-0.28000
3005555;-0.26500
3008332;-0.28000
3011110;-0.27500
3013888;-0.28000
3016666;-0.26000
3019444;-0.24500
3022221;-0.22000
3024999;-0.21500
3027777;-0.21000
3030555;-0.22000
3033332;-0.21000
3036110;-0.20000
3038888;-0.20000
3041666;-0.19500
3044444;-0.20000
3047221;-0.19000
3049999;-0.18000
3052777;-0.17000
3055555;-0.16000
3058332;-0.15500
3061110;-0.17000
3063888;-0.18500
3066666;-0.18000
3069444;-0.18000
3072221;-0.18500
3074999;-0.19500
3077777;-0.20500
3080555;-0.21000
3083332;-0.20500
3086110;-0.18500
3088888;-0.19000
3091666;-0.21500
3094444;-0.22500
3097221;-0.22000
3099999;-0.18500
3102777;-0.16500
3105555;-0.16500
3108332;-0.20000
3111110;-0.22500
3113888;-0.25500
3116666;-0.25000
3119444;-0.26500
3122221;-0.27500
3124999;-0.29000
3127777;-0.29500
3130555;-0.31000
3133332;-0.32000
3136110;-0.31000
3138888;-0.30000
3141666;-0.31000
3144444;-0.32000
3147221;-0.33500
3149999;-0.33500
3152777;-0.32500
3155555;-0.33000
3158332;-0.33500
3161110;-0.33000
3163888;-0.33000
3166666;-0.33500
3169444;-0.31500
3172221;-0.31500
3174999;-0.32000
3177777;-0.32500
3180555;-0.32500
3183332;-0.32000
3186110;-0.32000
3188888;-0.32500
3191666;-0.33500
3194444;-0.34000
3197221;-0.36000
3199999;-0.37500
3202777;-0.39500
3205555;-0.42000
3208332;-0.45000
3211110;-0.50000
3213888;-0.55500
3216666;-0.58500
3219444;-0.54500
3222221;-0.44000
3224999;-0.31000
3227777;-0.16500
3230555;0.01000
3233332;0.26500
3236110;0.53000
3238888;0.76500
3241666;0.93000
3244444;0.98500
