time_ms;ecg_value
0;-0.48500
2778;-0.50000
5556;-0.51000
8333;-0.50000
11111;-0.48500
13889;-0.48000
16667;-0.48000
19444;-0.48500
22222;-0.49500
25000;-0.49500
27778;-0.48000
30556;-0.47000
33333;-0.47000
36111;-0.47500
38889;-0.48000
41667;-0.46500
44444;-0.43000
47222;-0.42500
50000;-0.42000
52778;-0.40500
55556;-0.41500
58333;-0.40000
61111;-0.38500
63889;-0.38000
66667;-0.37000
69444;-0.37000
72222;-0.37000
75000;-0.37000
77778;-0.35500
80556;-0.34500
83333;-0.34000
86111;-0.35500
88889;-0.34500
91667;-0.33000
94444;-0.32500
97222;-0.32000
100000;-0.31500
102778;-0.32000
105556;-0.34000
108333;-0.32500
111111;-0.31500
113889;-0.31500
116667;-0.32000
119444;-0.32500
122222;-0.34500
125000;-0.33500
127778;-0.32000
130556;-0.32000
133333;-0.32500
136111;-0.33500
138889;-0.34000
141667;-0.33000
144444;-0.32500
147222;-0.33000
150000;-0.32000
152778;-0.32500
155556;-0.34500
158333;-0.33500
161111;-0.33000
163889;-0.32000
166667;-0.32000
169444;-0.33500
172222;-0.35000
175000;-0.34500
177778;-0.32000
180556;-0.32500
183333;-0.32000
186111;-0.33000
188889;-0.34000
191667;-0.34000
194444;-0.34500
197222;-0.33000
200000;-0.34000
202778;-0.35000
205555;-0.36000
208333;-0.36000
211111;-0.35000
213889;-0.35500
216667;-0.35500
219444;-0.36000
222222;-0.37000
225000;-0.37500
227778;-0.34500
230555;-0.33500
233333;-0.34500
236111;-0.35500
238889;-0.35500
241667;-0.36000
244444;-0.36000
247222;-0.34500
250000;-0.35500
252778;-0.36500
255555;-0.36000
258333;-0.36000
261111;-0.36000
263889;-0.36000
266667;-0.35000
269444;-0.36000
272222;-0.37000
275000;-0.36000
277778;-0.35000
280555;-0.35500
283333;-0.36500
286111;-0.36000
288889;-0.38000
291667;-0.38000
294444;-0.37500
297222;-0.36000
300000;-0.38000
302778;-0.39000
305555;-0.38500
308333;-0.38500
311111;-0.37500
313889;-0.35000
316667;-0.35500
319444;-0.36000
322222;-0.37000
325000;-0.36000
327778;-0.35500
330555;-0.34500
333333;-0.34500
336111;-0.35500
338889;-0.36000
341667;-0.36000
344444;-0.35500
347222;-0.33500
350000;-0.33500
352778;-0.34000
355555;-0.32000
358333;-0.32000
361111;-0.29500
363889;-0.28500
366667;-0.28500
369444;-0.29500
372222;-0.30500
375000;-0.29500
377778;-0.27500
380555;-0.25500
383333;-0.25000
386111;-0.26500
388889;-0.26000
391667;-0.26500
394444;-0.24500
397222;-0.24000
400000;-0.24000
402778;-0.24500
405555;-0.26000
408333;-0.26500
411111;-0.26000
413889;-0.26000
416667;-0.26000
419444;-0.27500
422222;-0.28000
425000;-0.27000
427778;-0.27500
430555;-0.27000
433333;-0.25500
436111;-0.24500
438889;-0.25000
441667;-0.28000
444444;-0.29500
447222;-0.31500
450000;-0.32500
452778;-0.34500
455555;-0.36500
458333;-0.37500
461111;-0.37500
463889;-0.37000
466667;-0.37000
469444;-0.38500
472222;-0.39000
475000;-0.38000
477778;-0.37500
480555;-0.36500
483333;-0.37000
486111;-0.38500
488889;-0.39500
491667;-0.39000
494444;-0.38500
497222;-0.37500
500000;-0.38500
502778;-0.39500
505555;-0.40500
508333;-0.40000
511111;-0.40000
513889;-0.39000
516667;-0.39500
519444;-0.41000
522222;-0.43000
525000;-0.44500
527778;-0.47500
530555;-0.50500
533333;-0.52500
536111;-0.55000
538889;-0.59500
541667;-0.60000
544444;-0.56000
547222;-0.42000
550000;-0.27500
552778;-0.13500
555555;-0.01500
558333;0.15500
561111;0.35000
563889;0.58000
566667;0.77000
569444;0.91000
572222;0.98500
575000;1.07000
577778;1.10500
580555;0.99000
583333;0.65000
586111;0.20500
588889;-0.21000
591667;-0.46000
594444;-0.52000
597222;-0.47500
600000;-0.43000
602778;-0.42000
605555;-0.44000
608333;-0.44000
611111;-0.43000
613889;-0.43000
616666;-0.43000
619444;-0.43500
622222;-0.44500
625000;-0.45000
627778;-0.43000
630555;-0.43500
633333;-0.43500
636111;-0.44000
638889;-0.47000
641666;-0.44500
644444;-0.43500
647222;-0.43000
650000;-0.43500
652778;-0.44000
655555;-0.45500
658333;-0.45000
661111;-0.44000
663889;-0.45000
666666;-0.45000
669444;-0.46500
672222;-0.46500
675000;-0.46000
677778;-0.46000
680555;-0.45000
683333;-0.45500
686111;-0.46500
688889;-0.46500
691666;-0.45500
694444;-0.45000
697222;-0.45500
700000;-0.44500
702778;-0.46000
705555;-0.46000
708333;-0.46000
711111;-0.44500
713889;-0.43500
716666;-0.45000
719444;-0.45000
722222;-0.46000
725000;-0.45000
727778;-0.44500
730555;-0.45000
733333;-0.43500
736111;-0.44500
738889;-0.46000
741666;-0.45500
744444;-0.45000
747222;-0.45000
750000;-0.45000
752778;-0.46500
755555;-0.47000
758333;-0.46500
761111;-0.45500
763889;-0.45000
766666;-0.47000
769444;-0.47500
772222;-0.47000
775000;-0.46500
777778;-0.45000
780555;-0.44000
783333;-0.44000
786111;-0.44500
788889;-0.46500
791666;-0.44500
794444;-0.43000
797222;-0.43500
800000;-0.42500
802778;-0.44500
805555;-0.45500
808333;-0.45500
811111;-0.45000
813889;-0.45000
816666;-0.45000
819444;-0.45000
822222;-0.46500
825000;-0.46500
827778;-0.46000
830555;-0.45000
833333;-0.45500
836111;-0.46000
838889;-0.48000
841666;-0.47000
844444;-0.47500
847222;-0.45500
850000;-0.46500
852778;-0.46000
855555;-0.45500
858333;-0.45000
861111;-0.43500
863889;-0.42500
866666;-0.42000
869444;-0.42500
872222;-0.42000
875000;-0.42000
877778;-0.40500
880555;-0.39000
883333;-0.36500
886111;-0.37500
888889;-0.37500
891666;-0.36500
894444;-0.35000
897222;-0.34000
900000;-0.34000
902778;-0.33000
905555;-0.33500
908333;-0.33000
911111;-0.31500
913889;-0.32000
916666;-0.30500
919444;-0.32000
922222;-0.32500
925000;-0.31500
927778;-0.30500
930555;-0.29500
933333;-0.30000
936111;-0.31000
938889;-0.32500
941666;-0.32000
944444;-0.30000
947222;-0.30000
950000;-0.31500
952778;-0.31500
955555;-0.32000
958333;-0.31000
961111;-0.31000
963889;-0.31000
966666;-0.30500
969444;-0.33000
972222;-0.33000
975000;-0.33500
977778;-0.32500
980555;-0.31500
983333;-0.31000
986111;-0.32000
988889;-0.34000
991666;-0.33500
994444;-0.32500
997222;-0.32000
1000000;-0.33500
1002777;-0.32500
1005555;-0.34000
1008333;-0.34000
1011111;-0.34000
1013889;-0.32000
1016666;-0.33000
1019444;-0.33000
1022222;-0.34500
1025000;-0.34000
1027777;-0.33000
1030555;-0.33000
1033333;-0.33000
1036111;-0.35000
1038889;-0.34500
1041666;-0.35000
1044444;-0.34500
1047222;-0.34000
1050000;-0.34500
1052777;-0.35500
1055555;-0.36500
1058333;-0.36500
1061111;-0.37000
1063889;-0.35000
1066666;-0.36500
1069444;-0.36500
1072222;-0.38000
1075000;-0.38500
1077777;-0.37500
1080555;-0.36500
1083333;-0.36000
1086111;-0.37000
1088889;-0.37500
1091666;-0.36500
1094444;-0.36000
1097222;-0.35000
1100000;-0.36500
1102777;-0.36000
1105555;-0.39000
1108333;-0.37000
1111111;-0.36500
1113889;-0.36500
1116666;-0.36000
1119444;-0.37500
1122222;-0.38500
1125000;-0.38000
1127777;-0.37500
1130555;-0.36500
1133333;-0.36500
1136111;-0.37000
1138889;-0.37500
1141666;-0.37500
1144444;-0.37500
1147222;-0.36000
1150000;-0.35000
1152777;-0.36000
1155555;-0.38000
1158333;-0.36500
1161111;-0.36000
1163889;-0.35000
1166666;-0.34000
1169444;-0.35000
1172222;-0.37000
1175000;-0.36000
1177777;-0.35500
1180555;-0.34000
1183333;-0.35000
1186111;-0.34000
1188889;-0.36000
1191666;-0.36500
1194444;-0.36000
1197222;-0.34500
1200000;-0.34000
1202777;-0.35000
1205555;-0.35500
1208333;-0.33000
1211111;-0.31500
1213889;-0.29000
1216666;-0.29000
1219444;-0.29500
1222222;-0.31500
1225000;-0.28500
1227777;-0.27000
1230555;-0.26000
1233333;-0.24000
1236111;-0.25000
1238889;-0.25500
1241666;-0.25000
1244444;-0.24500
1247222;-0.25500
1250000;-0.26500
1252777;-0.28500
1255555;-0.30500
1258333;-0.30000
1261111;-0.28500
1263889;-0.28500
1266666;-0.28500
1269444;-0.30500
1272222;-0.30500
1275000;-0.27000
1277777;-0.24000
1280555;-0.22000
1283333;-0.22000
1286111;-0.25000
1288889;-0.28500
1291666;-0.30000
1294444;-0.30500
1297222;-0.30500
1300000;-0.31500
1302777;-0.33500
1305555;-0.36000
1308333;-0.36500
1311111;-0.36500
1313889;-0.37000
1316666;-0.37500
1319444;-0.38500
1322222;-0.39500
1325000;-0.38500
1327777;-0.37500
1330555;-0.37500
1333333;-0.38500
1336111;-0.40000
1338889;-0.41000
1341666;-0.40500
1344444;-0.40500
1347222;-0.39000
1350000;-0.40000
1352777;-0.41000
1355555;-0.41000
1358333;-0.41000
1361111;-0.39500
1363889;-0.39500
1366666;-0.40000
1369444;-0.41000
1372222;-0.43000
1375000;-0.43500
1377777;-0.45000
1380555;-0.48000
1383333;-0.51500
1386111;-0.53500
1388888;-0.54500
1391666;-0.58500
1394444;-0.60500
1397222;-0.55000
1400000;-0.43000
1402777;-0.29500
1405555;-0.13500
1408333;0.09500
1411111;0.36000
1413888;0.61000
1416666;0.80500
1419444;0.86500
1422222;0.78000
1425000;0.50000
1427777;0.10500
1430555;-0.26000
1433333;-0.47500
1436111;-0.55000
1438888;-0.53000
1441666;-0.47500
1444444;-0.44000
1447222;-0.42000
1450000;-0.43000
1452777;-0.43000
1455555;-0.44500
1458333;-0.45000
1461111;-0.44000
1463888;-0.43000
1466666;-0.44000
1469444;-0.44500
1472222;-0.45000
1475000;-0.45000
1477777;-0.43500
1480555;-0.42500
1483333;-0.43500
1486111;-0.44000
1488888;-0.45000
1491666;-0.45000
1494444;-0.44000
1497222;-0.44000
1500000;-0.43500
1502777;-0.45000
1505555;-0.44500
1508333;-0.46000
1511111;-0.45000
1513888;-0.44500
1516666;-0.44000
1519444;-0.44500
1522222;-0.45000
1525000;-0.44500
1527777;-0.44000
1530555;-0.43500
1533333;-0.43000
1536111;-0.46000
1538888;-0.46000
1541666;-0.46000
1544444;-0.44500
1547222;-0.44500
1550000;-0.43500
1552777;-0.45000
1555555;-0.46000
1558333;-0.45500
1561111;-0.45000
1563888;-0.44500
1566666;-0.44500
1569444;-0.45000
1572222;-0.46000
1575000;-0.45000
1577777;-0.44500
1580555;-0.43500
1583333;-0.45000
1586111;-0.45500
1588888;-0.48000
1591666;-0.47000
1594444;-0.47000
1597222;-0.45000
1600000;-0.46000
1602777;-0.47500
1605555;-0.48500
1608333;-0.48000
1611111;-0.48000
1613888;-0.45500
1616666;-0.45500
1619444;-0.46000
1622222;-0.47000
1625000;-0.46500
1627777;-0.45000
1630555;-0.44000
1633333;-0.44500
1636111;-0.46000
1638888;-0.47500
1641666;-0.47500
1644444;-0.45500
1647222;-0.44500
1650000;-0.45500
1652777;-0.45000
1655555;-0.47000
1658333;-0.47000
1661111;-0.46000
1663888;-0.46000
1666666;-0.46500
1669444;-0.48000
1672222;-0.48500
1675000;-0.48500
1677777;-0.47500
1680555;-0.47000
1683333;-0.48000
1686111;-0.49500
1688888;-0.48000
1691666;-0.47500
1694444;-0.46500
1697222;-0.45500
1700000;-0.46500
1702777;-0.47000
1705555;-0.48500
1708333;-0.48500
1711111;-0.46500
1713888;-0.44500
1716666;-0.43000
1719444;-0.43000
1722222;-0.43000
1725000;-0.43000
1727777;-0.41000
1730555;-0.38500
1733333;-0.39000
1736111;-0.39500
1738888;-0.42000
1741666;-0.39000
1744444;-0.40500
1747222;-0.38000
1750000;-0.38000
1752777;-0.37000
1755555;-0.38000
1758333;-0.37500
1761111;-0.35500
1763888;-0.35500
1766666;-0.35000
1769444;-0.35000
1772222;-0.36000
1775000;-0.34000
1777777;-0.33500
1780555;-0.33500
1783333;-0.33500
1786111;-0.35000
1788888;-0.36000
1791666;-0.35000
1794444;-0.33500
1797222;-0.33500
1799999;-0.34000
1802777;-0.34500
1805555;-0.36000
1808333;-0.35000
1811111;-0.34500
1813888;-0.35000
1816666;-0.35500
1819444;-0.36000
1822222;-0.36500
1824999;-0.36500
1827777;-0.36000
1830555;-0.35500
1833333;-0.36000
1836111;-0.37000
1838888;-0.38500
1841666;-0.37000
1844444;-0.36500
1847222;-0.34500
1849999;-0.34000
1852777;-0.35000
1855555;-0.37000
1858333;-0.36500
1861111;-0.37000
1863888;-0.36500
1866666;-0.36500
1869444;-0.36500
1872222;-0.38000
1874999;-0.36000
1877777;-0.36500
1880555;-0.36000
1883333;-0.37500
1886111;-0.39000
1888888;-0.41000
1891666;-0.40500
1894444;-0.39500
1897222;-0.38500
1899999;-0.40000
1902777;-0.41000
1905555;-0.42500
1908333;-0.41000
1911111;-0.39500
1913888;-0.39500
1916666;-0.39500
1919444;-0.41000
1922222;-0.42500
1924999;-0.41000
1927777;-0.39000
1930555;-0.38500
1933333;-0.39000
1936111;-0.38500
1938888;-0.39500
1941666;-0.39500
1944444;-0.39000
1947222;-0.39500
1949999;-0.39500
1952777;-0.40500
1955555;-0.41000
1958333;-0.40000
1961111;-0.38500
1963888;-0.38500
1966666;-0.40500
1969444;-0.40500
1972222;-0.41500
1974999;-0.41500
1977777;-0.40500
1980555;-0.38500
1983333;-0.39500
1986111;-0.40500
1988888;-0.42000
1991666;-0.41000
1994444;-0.40000
1997222;-0.39500
1999999;-0.40000
2002777;-0.40500
2005555;-0.41000
2008333;-0.40500
2011111;-0.38000
2013888;-0.37500
2016666;-0.38000
2019444;-0.38500
2022222;-0.41000
2024999;-0.40500
2027777;-0.39500
2030555;-0.40000
2033333;-0.38500
2036111;-0.40500
2038888;-0.39500
2041666;-0.36000
2044444;-0.34500
2047222;-0.32000
2049999;-0.31000
2052777;-0.34000
2055555;-0.37000
2058333;-0.37000
2061111;-0.34000
2063888;-0.30500
2066666;-0.28500
2069444;-0.29000
2072222;-0.30500
2074999;-0.30500
2077777;-0.28000
2080555;-0.28500
2083333;-0.28000
2086111;-0.29500
2088888;-0.31000
2091666;-0.32500
2094444;-0.31000
2097222;-0.29000
2099999;-0.28500
2102777;-0.32000
2105555;-0.33000
2108333;-0.31500
2111111;-0.31000
2113888;-0.27000
2116666;-0.28000
2119444;-0.30000
2122222;-0.33500
2124999;-0.35500
2127777;-0.35000
2130555;-0.37500
2133333;-0.39000
2136111;-0.41000
2138888;-0.43000
2141666;-0.42500
2144444;-0.42000
2147222;-0.41500
2149999;-0.42500
2152777;-0.44000
2155555;-0.44500
2158333;-0.44000
2161111;-0.43000
2163888;-0.40000
2166666;-0.39500
2169444;-0.40500
2172222;-0.42500
2174999;-0.42500
2177777;-0.43000
2180555;-0.43000
2183333;-0.42500
2186110;-0.43500
2188888;-0.44000
2191666;-0.43000
2194444;-0.41500
2197222;-0.42000
2199999;-0.43500
2202777;-0.45000
2205555;-0.47000
2208333;-0.46000
2211110;-0.45000
2213888;-0.46500
2216666;-0.48000
2219444;-0.51500
2222222;-0.53500
2224999;-0.56000
2227777;-0.59000
2230555;-0.61500
2233333;-0.61500
2236110;-0.55500
2238888;-0.44500
2241666;-0.29500
2244444;-0.12500
2247222;0.08500
2249999;0.32500
2252777;0.56000
2255555;0.72000
2258333;0.82000
2261110;0.77500
2263888;0.54500
2266666;0.16000
2269444;-0.22000
2272222;-0.47000
2274999;-0.57500
2277777;-0.58500
2280555;-0.54500
2283333;-0.50500
2286110;-0.49500
2288888;-0.50000
2291666;-0.49500
2294444;-0.48000
2297222;-0.47500
2299999;-0.49000
2302777;-0.49000
2305555;-0.50500
2308333;-0.50000
2311110;-0.48500
2313888;-0.47000
2316666;-0.47500
