time_ms;ecg_value
0;-0.12000
2778;-0.11500
5556;-0.11000
8333;-0.13500
11111;-0.14500
13889;-0.15500
16667;-0.15500
19444;-0.15000
22222;-0.15000
25000;-0.14500
27778;-0.15500
30556;-0.14000
33333;-0.12000
36111;-0.09000
38889;-0.07500
41667;-0.09500
44444;-0.13000
47222;-0.15000
50000;-0.17500
52778;-0.17000
55556;-0.17500
58333;-0.19500
61111;-0.21500
63889;-0.23500
66667;-0.23500
69444;-0.24500
72222;-0.26000
75000;-0.28500
77778;-0.29500
80556;-0.29000
83333;-0.28000
86111;-0.28000
88889;-0.27000
91667;-0.29000
94444;-0.28500
97222;-0.30500
100000;-0.29500
102778;-0.28500
105556;-0.29500
108333;-0.29500
111111;-0.30500
113889;-0.30500
116667;-0.30000
119444;-0.29000
122222;-0.28500
125000;-0.30000
127778;-0.30500
130556;-0.31500
133333;-0.32500
136111;-0.33500
138889;-0.38500
141667;-0.40500
144444;-0.43000
147222;-0.44500
150000;-0.48500
152778;-0.53500
155556;-0.55000
158333;-0.53000
161111;-0.46000
163889;-0.34500
166667;-0.21000
169444;-0.05000
172222;0.14000
175000;0.36500
177778;0.62000
180556;0.83000
183333;0.94500
186111;0.88500
188889;0.65500
191667;0.26500
194444;-0.15000
197222;-0.39500
200000;-0.45500
202778;-0.42000
205555;-0.36500
208333;-0.33500
211111;-0.35500
213889;-0.36000
216667;-0.35000
219444;-0.34000
222222;-0.34000
225000;-0.35500
227778;-0.36500
230555;-0.36000
233333;-0.34500
236111;-0.35500
238889;-0.34500
241667;-0.35500
244444;-0.35500
247222;-0.36000
250000;-0.35500
252778;-0.34500
255555;-0.35000
258333;-0.35000
261111;-0.37000
263889;-0.35500
266667;-0.34000
269444;-0.33500
272222;-0.34500
275000;-0.36500
277778;-0.37000
280555;-0.38000
283333;-0.36500
286111;-0.36500
288889;-0.36000
291667;-0.35500
294444;-0.37000
297222;-0.35000
300000;-0.35000
302778;-0.34000
305555;-0.34000
308333;-0.34000
311111;-0.34500
313889;-0.36000
316667;-0.34500
319444;-0.34500
322222;-0.34500
325000;-0.34500
327778;-0.36500
330555;-0.36000
333333;-0.37000
336111;-0.36000
338889;-0.35500
341667;-0.37000
344444;-0.38500
347222;-0.38000
350000;-0.37000
352778;-0.36500
355555;-0.37500
358333;-0.37500
361111;-0.38500
363889;-0.39000
366667;-0.38000
369444;-0.37000
372222;-0.36000
375000;-0.36000
377778;-0.37000
380555;-0.37000
383333;-0.36000
386111;-0.35000
388889;-0.36000
391667;-0.37500
394444;-0.38000
397222;-0.37500
400000;-0.39000
402778;-0.38500
405555;-0.38500
408333;-0.39500
411111;-0.41500
413889;-0.40500
416667;-0.40000
419444;-0.39000
422222;-0.38500
425000;-0.39000
427778;-0.40500
430555;-0.39500
433333;-0.38000
436111;-0.37500
438889;-0.36000
441667;-0.35000
444444;-0.35000
447222;-0.34500
450000;-0.33500
452778;-0.32000
455555;-0.31000
458333;-0.31500
461111;-0.31500
463889;-0.31500
466667;-0.30000
469444;-0.29000
472222;-0.29000
475000;-0.30000
477778;-0.29500
480555;-0.28000
483333;-0.27500
486111;-0.26000
488889;-0.25500
491667;-0.26500
494444;-0.27000
497222;-0.27500
500000;-0.25500
502778;-0.24500
505555;-0.24500
508333;-0.25000
511111;-0.26500
513889;-0.25500
516667;-0.23500
519444;-0.24000
522222;-0.23500
525000;-0.26500
527778;-0.27000
530555;-0.27500
533333;-0.25500
536111;-0.24500
538889;-0.25500
541667;-0.27000
544444;-0.28000
547222;-0.28000
550000;-0.27500
552778;-0.27500
555555;-0.27500
558333;-0.30000
561111;-0.29500
563889;-0.28500
566667;-0.26500
569444;-0.26500
572222;-0.26000
575000;-0.28000
577778;-0.29500
580555;-0.30000
583333;-0.29000
586111;-0.28000
588889;-0.28500
591667;-0.30000
594444;-0.31000
597222;-0.32500
600000;-0.31000
602778;-0.30000
605555;-0.30500
608333;-0.31000
611111;-0.32500
613889;-0.32000
616666;-0.31000
619444;-0.31000
622222;-0.30500
625000;-0.32000
627778;-0.32500
630555;-0.32500
633333;-0.30500
636111;-0.31000
638889;-0.31000
641666;-0.31500
644444;-0.32500
647222;-0.32000
650000;-0.32000
652778;-0.32000
655555;-0.31000
658333;-0.30500
661111;-0.31500
663889;-0.32000
666666;-0.32000
669444;-0.31000
672222;-0.31000
675000;-0.32500
677778;-0.33500
680555;-0.32500
683333;-0.32500
686111;-0.30500
688889;-0.31000
691666;-0.32000
694444;-0.33500
697222;-0.32000
700000;-0.31500
702778;-0.29500
705555;-0.30000
708333;-0.31000
711111;-0.32000
713889;-0.33000
716666;-0.31000
719444;-0.29500
722222;-0.28500
725000;-0.28500
727778;-0.30000
730555;-0.29000
733333;-0.27500
736111;-0.26500
738889;-0.26000
741666;-0.25000
744444;-0.24500
747222;-0.24500
750000;-0.24000
752778;-0.22000
755555;-0.21000
758333;-0.22000
761111;-0.22500
763889;-0.22000
766666;-0.20000
769444;-0.19500
772222;-0.19500
775000;-0.21500
777778;-0.23500
780555;-0.23500
783333;-0.21000
786111;-0.19500
788889;-0.20000
791666;-0.21000
794444;-0.20000
797222;-0.17500
800000;-0.16500
802778;-0.18500
805555;-0.22000
808333;-0.25000
811111;-0.29000
813889;-0.30500
816666;-0.32000
819444;-0.32500
822222;-0.33000
825000;-0.34000
827778;-0.36500
830555;-0.35000
833333;-0.33000
836111;-0.32000
838889;-0.33000
841666;-0.33500
844444;-0.35500
847222;-0.36000
850000;-0.35500
852778;-0.34000
855555;-0.33500
858333;-0.35000
861111;-0.36000
863889;-0.35500
866666;-0.35500
869444;-0.35000
872222;-0.34500
875000;-0.34000
877778;-0.36000
880555;-0.36000
883333;-0.36000
886111;-0.34500
888889;-0.35000
891666;-0.35000
894444;-0.38000
897222;-0.39500
900000;-0.43000
902778;-0.44000
905555;-0.45500
908333;-0.48000
911111;-0.53000
913889;-0.58000
916666;-0.59000
919444;-0.52000
922222;-0.40500
925000;-0.27500
927778;-0.13500
930555;0.09000
933333;0.35500
936111;0.61500
938889;0.80000
941666;0.87500
944444;0.75500
947222;0.43000
950000;0.03500
952778;-0.27000
955555;-0.45500
958333;-0.52000
961111;-0.51000
963889;-0.46000
966666;-0.42500
969444;-0.40500
972222;-0.41500
975000;-0.41500
977778;-0.42500
980555;-0.42500
983333;-0.42500
986111;-0.41500
988889;-0.41500
991666;-0.43500
994444;-0.44000
997222;-0.42500
1000000;-0.40500
1002777;-0.40000
1005555;-0.39500
1008333;-0.40500
1011111;-0.42500
1013889;-0.42000
1016666;-0.41500
1019444;-0.41000
1022222;-0.42000
1025000;-0.43500
1027777;-0.43500
1030555;-0.43500
1033333;-0.42000
1036111;-0.41500
1038889;-0.41500
1041666;-0.42000
1044444;-0.43000
1047222;-0.44000
1050000;-0.42000
1052777;-0.42000
1055555;-0.42500
1058333;-0.43500
1061111;-0.44000
1063889;-0.44500
1066666;-0.43500
1069444;-0.42500
1072222;-0.42500
1075000;-0.43500
1077777;-0.44500
1080555;-0.44000
1083333;-0.43500
1086111;-0.41500
1088889;-0.41000
1091666;-0.42500
1094444;-0.43000
1097222;-0.42500
1100000;-0.41000
1102777;-0.40500
1105555;-0.40000
1108333;-0.41500
1111111;-0.43500
1113889;-0.43000
1116666;-0.43000
1119444;-0.42500
1122222;-0.42000
1125000;-0.43000
1127777;-0.44500
1130555;-0.44000
1133333;-0.42000
1136111;-0.43000
1138889;-0.43000
1141666;-0.43000
1144444;-0.43500
1147222;-0.44500
1150000;-0.43000
1152777;-0.42500
1155555;-0.42000
1158333;-0.44000
1161111;-0.44500
1163889;-0.45000
1166666;-0.45000
1169444;-0.45000
1172222;-0.46000
1175000;-0.47000
1177777;-0.48500
1180555;-0.48000
1183333;-0.48500
1186111;-0.46000
1188889;-0.47000
1191666;-0.47500
1194444;-0.48000
1197222;-0.47500
1200000;-0.46500
1202777;-0.45500
1205555;-0.45000
1208333;-0.44500
1211111;-0.44500
1213889;-0.43000
1216666;-0.41000
1219444;-0.39500
1222222;-0.38000
1225000;-0.38000
1227777;-0.36500
1230555;-0.35500
1233333;-0.33000
1236111;-0.32000
1238889;-0.31000
1241666;-0.30500
1244444;-0.32000
1247222;-0.31500
1250000;-0.29500
1252777;-0.28500
1255555;-0.28500
1258333;-0.29500
1261111;-0.29500
1263889;-0.28000
1266666;-0.27500
1269444;-0.26500
1272222;-0.26500
1275000;-0.26500
1277777;-0.27500
1280555;-0.27000
1283333;-0.26500
1286111;-0.25000
1288889;-0.26000
1291666;-0.26000
1294444;-0.29000
1297222;-0.28000
1300000;-0.27500
1302777;-0.26000
1305555;-0.26000
1308333;-0.27500
1311111;-0.28500
1313889;-0.28500
1316666;-0.28500
1319444;-0.27000
1322222;-0.28000
1325000;-0.28500
1327777;-0.28500
1330555;-0.27500
1333333;-0.26500
1336111;-0.26000
1338889;-0.26500
1341666;-0.27000
1344444;-0.28500
1347222;-0.28000
1350000;-0.27500
1352777;-0.28000
1355555;-0.28000
1358333;-0.29000
1361111;-0.29000
1363889;-0.29500
1366666;-0.29000
1369444;-0.28000
1372222;-0.28500
1375000;-0.29500
1377777;-0.30000
1380555;-0.30500
1383333;-0.29500
1386111;-0.29500
1388888;-0.30000
1391666;-0.29500
1394444;-0.30500
1397222;-0.30500
1400000;-0.30000
1402777;-0.29000
1405555;-0.27500
1408333;-0.28000
1411111;-0.29000
1413888;-0.29000
1416666;-0.28000
1419444;-0.28000
1422222;-0.26500
1425000;-0.27000
1427777;-0.28500
1430555;-0.29000
1433333;-0.26500
1436111;-0.27500
1438888;-0.28500
1441666;-0.29500
1444444;-0.29500
1447222;-0.30000
1450000;-0.29000
1452777;-0.29500
1455555;-0.28500
1458333;-0.30000
1461111;-0.30500
1463888;-0.30500
1466666;-0.30000
1469444;-0.29500
1472222;-0.28500
1475000;-0.28500
1477777;-0.29000
1480555;-0.30500
1483333;-0.27500
1486111;-0.27000
1488888;-0.26000
1491666;-0.26000
1494444;-0.26500
1497222;-0.26000
1500000;-0.24500
1502777;-0.23000
1505555;-0.22500
1508333;-0.22500
1511111;-0.22500
1513888;-0.22500
1516666;-0.21500
1519444;-0.19500
1522222;-0.19000
1525000;-0.19000
1527777;-0.19000
1530555;-0.19500
1533333;-0.17500
1536111;-0.17000
1538888;-0.16500
1541666;-0.18000
1544444;-0.19500
1547222;-0.17500
1550000;-0.17000
1552777;-0.16000
1555555;-0.16000
1558333;-0.16500
1561111;-0.15000
1563888;-0.14000
1566666;-0.14500
1569444;-0.17500
1572222;-0.21500
1575000;-0.23500
1577777;-0.24500
1580555;-0.26000
1583333;-0.26500
1586111;-0.26500
1588888;-0.28000
1591666;-0.31000
1594444;-0.31000
1597222;-0.32000
1600000;-0.30500
1602777;-0.30000
1605555;-0.30500
1608333;-0.31500
1611111;-0.32500
1613888;-0.32000
1616666;-0.30500
1619444;-0.32000
1622222;-0.30500
1625000;-0.31500
1627777;-0.32000
1630555;-0.33000
1633333;-0.31500
1636111;-0.31000
1638888;-0.30500
1641666;-0.32500
1644444;-0.33000
1647222;-0.32500
1650000;-0.32500
1652777;-0.32000
1655555;-0.33000
1658333;-0.34500
1661111;-0.37000
1663888;-0.37500
1666666;-0.41500
1669444;-0.43500
1672222;-0.45500
1675000;-0.49000
1677777;-0.55000
1680555;-0.56500
1683333;-0.53000
1686111;-0.43000
1688888;-0.30500
1691666;-0.14500
1694444;-0.01000
1697222;0.22000
1700000;0.48000
1702777;0.73000
1705555;0.91000
1708333;0.97500
1711111;0.88000
1713888;0.62000
1716666;0.23000
1719444;-0.13000
1722222;-0.39500
1725000;-0.49000
1727777;-0.48000
1730555;-0.43000
1733333;-0.38000
1736111;-0.37500
1738888;-0.38000
1741666;-0.37500
1744444;-0.39500
1747222;-0.38500
1750000;-0.37500
1752777;-0.37500
1755555;-0.38500
1758333;-0.39000
1761111;-0.40500
1763888;-0.39500
1766666;-0.39000
1769444;-0.37500
1772222;-0.38000
1775000;-0.40000
1777777;-0.39500
1780555;-0.40500
1783333;-0.39000
1786111;-0.37500
1788888;-0.37500
1791666;-0.38500
1794444;-0.38500
1797222;-0.39500
1799999;-0.38000
1802777;-0.37500
1805555;-0.38000
1808333;-0.37500
1811111;-0.39000
1813888;-0.39500
1816666;-0.37500
1819444;-0.38500
1822222;-0.39000
1824999;-0.39000
1827777;-0.39000
1830555;-0.39000
1833333;-0.38000
1836111;-0.36000
1838888;-0.37500
1841666;-0.37500
1844444;-0.39000
1847222;-0.39000
1849999;-0.38000
1852777;-0.37500
1855555;-0.37500
1858333;-0.38000
1861111;-0.38500
1863888;-0.40000
1866666;-0.39500
1869444;-0.37500
1872222;-0.37500
1874999;-0.39500
1877777;-0.40000
1880555;-0.39500
1883333;-0.38500
1886111;-0.38500
1888888;-0.38500
1891666;-0.38500
1894444;-0.40500
1897222;-0.40000
1899999;-0.39000
1902777;-0.38000
1905555;-0.38000
1908333;-0.38000
1911111;-0.39000
1913888;-0.38000
1916666;-0.37500
1919444;-0.36500
1922222;-0.35500
1924999;-0.37000
1927777;-0.39000
1930555;-0.38500
1933333;-0.38000
1936111;-0.37500
1938888;-0.38000
1941666;-0.40000
1944444;-0.41000
1947222;-0.40500
1949999;-0.38500
1952777;-0.38000
1955555;-0.39000
1958333;-0.40000
1961111;-0.41500
1963888;-0.41500
1966666;-0.41000
1969444;-0.39500
1972222;-0.41000
1974999;-0.40000
1977777;-0.41500
1980555;-0.40500
1983333;-0.39500
1986111;-0.39000
1988888;-0.38500
1991666;-0.37500
1994444;-0.38500
1997222;-0.37500
1999999;-0.36500
2002777;-0.35000
2005555;-0.34000
2008333;-0.34000
2011111;-0.34500
2013888;-0.33500
2016666;-0.30000
2019444;-0.28500
2022222;-0.28500
2024999;-0.29000
2027777;-0.27500
2030555;-0.27500
2033333;-0.26000
2036111;-0.25500
2038888;-0.25000
2041666;-0.25000
2044444;-0.25000
2047222;-0.25000
2049999;-0.24500
2052777;-0.24000
2055555;-0.23000
2058333;-0.24000
2061111;-0.25500
2063888;-0.24500
2066666;-0.24500
2069444;-0.24500
2072222;-0.24000
2074999;-0.24500
2077777;-0.25000
2080555;-0.25500
2083333;-0.25000
2086111;-0.24000
2088888;-0.24500
2091666;-0.25000
2094444;-0.26500
2097222;-0.26500
2099999;-0.25500
2102777;-0.25000
2105555;-0.26500
2108333;-0.27000
2111111;-0.27500
2113888;-0.27500
2116666;-0.26000
2119444;-0.25500
2122222;-0.26500
2124999;-0.26000
2127777;-0.27500
2130555;-0.27000
2133333;-0.26000
2136111;-0.25000
2138888;-0.25500
2141666;-0.26000
2144444;-0.28500
2147222;-0.28000
2149999;-0.28000
2152777;-0.26500
2155555;-0.29000
2158333;-0.28000
2161111;-0.30000
2163888;-0.29500
2166666;-0.27500
2169444;-0.29000
2172222;-0.28500
2174999;-0.29000
2177777;-0.30500
2180555;-0.31000
2183333;-0.30000
2186110;-0.30000
2188888;-0.30000
2191666;-0.30500
2194444;-0.33500
2197222;-0.32000
2199999;-0.30500
2202777;-0.30500
2205555;-0.29000
2208333;-0.30000
2211110;-0.31000
2213888;-0.30500
2216666;-0.31000
2219444;-0.29500
2222222;-0.30000
2224999;-0.31500
2227777;-0.31500
2230555;-0.31500
2233333;-0.30500
2236110;-0.31000
2238888;-0.31000
2241666;-0.31500
2244444;-0.33000
2247222;-0.31000
2249999;-0.30500
2252777;-0.29000
2255555;-0.30000
2258333;-0.30000
2261110;-0.29000
2263888;-0.26500
2266666;-0.25500
2269444;-0.25000
2272222;-0.25500
2274999;-0.24500
2277777;-0.25500
2280555;-0.23500
2283333;-0.23500
2286110;-0.22000
2288888;-0.22000
2291666;-0.22500
2294444;-0.22500
2297222;-0.21500
2299999;-0.20500
2302777;-0.18000
2305555;-0.19000
2308333;-0.20000
2311110;-0.20000
2313888;-0.19500
2316666;-0.19500
2319444;-0.19000
2322222;-0.20500
2324999;-0.21000
2327777;-0.21000
2330555;-0.20000
2333333;-0.19000
2336110;-0.18500
2338888;-0.16500
2341666;-0.15000
2344444;-0.16500
2347222;-0.18000
2349999;-0.19500
2352777;-0.22500
2355555;-0.23000
2358333;-0.24000
2361110;-0.28000
2363888;-0.29000
2366666;-0.29500
2369444;-0.29000
2372222;-0.30000
2374999;-0.32000
2377777;-0.33500
2380555;-0.32000
2383333;-0.32000
2386110;-0.31500
2388888;-0.31500
2391666;-0.32500
2394444;-0.34000
2397222;-0.33500
2399999;-0.33500
2402777;-0.32000
2405555;-0.32500
2408333;-0.34000
2411110;-0.35500
2413888;-0.34500
2416666;-0.33500
2419444;-0.31500
2422222;-0.33000
2424999;-0.33500
2427777;-0.35500
2430555;-0.34500
2433333;-0.32500
2436110;-0.31500
2438888;-0.32000
2441666;-0.33500
2444444;-0.35500
2447222;-0.37500
2449999;-0.39500
2452777;-0.44500
2455555;-0.46500
2458333;-0.50000
2461110;-0.55000
2463888;-0.57500
2466666;-0.54000
2469444;-0.45000
2472222;-0.30500
2474999;-0.17000
2477777;0.00500
2480555;0.23000
2483333;0.51000
2486110;0.74000
2488888;0.91500
2491666;0.98500
2494444;0.94000
2497222;0.73000
2499999;0.37500
2502777;-0.01500
2505555;-0.32000
2508333;-0.47500
2511110;-0.48500
2513888;-0.45000
2516666;-0.40000
2519444;-0.36500
2522222;-0.36000
2524999;-0.38500
2527777;-0.38500
2530555;-0.39000
2533333;-0.37500
2536110;-0.37000
2538888;-0.38500
2541666;-0.38500
2544444;-0.40500
2547222;-0.40500
2549999;-0.39000
2552777;-0.40000
2555555;-0.39000
2558333;-0.40000
2561110;-0.40000
2563888;-0.41000
2566666;-0.40000
2569444;-0.39500
2572222;-0.40000
2574999;-0.41500
2577777;-0.41000
2580555;-0.40000
2583333;-0.40000
2586110;-0.39500
2588888;-0.39000
2591666;-0.39000
2594444;-0.39500
2597221;-0.39500
2599999;-0.38500
2602777;-0.38500
2605555;-0.38500
2608333;-0.40000
2611110;-0.41500
2613888;-0.41000
2616666;-0.40000
2619444;-0.39500
2622221;-0.39000
2624999;-0.39000
2627777;-0.42000
2630555;-0.40500
2633333;-0.41000
2636110;-0.39500
2638888;-0.40500
2641666;-0.40500
2644444;-0.41500
2647221;-0.41500
2649999;-0.41500
2652777;-0.40500
2655555;-0.39500
2658333;-0.42000
2661110;-0.42000
2663888;-0.41000
2666666;-0.41000
2669444;-0.40000
2672221;-0.40000
2674999;-0.40000
2677777;-0.40000
2680555;-0.39500
2683333;-0.38500
2686110;-0.37500
2688888;-0.38500
2691666;-0.41000
2694444;-0.41000
2697221;-0.40000
2699999;-0.39000
2702777;-0.40000
2705555;-0.39500
2708333;-0.41000
2711110;-0.42000
2713888;-0.43000
2716666;-0.40500
2719444;-0.40000
2722221;-0.40500
2724999;-0.42500
2727777;-0.42500
2730555;-0.41500
2733333;-0.41000
2736110;-0.40000
2738888;-0.41000
2741666;-0.41000
2744444;-0.43000
2747221;-0.43000
2749999;-0.41500
2752777;-0.40000
2755555;-0.40500
2758333;-0.40500
2761110;-0.42000
2763888;-0.40500
2766666;-0.40000
2769444;-0.39500
2772221;-0.38000
2774999;-0.39500
2777777;-0.40500
2780555;-0.40000
2783333;-0.39000
2786110;-0.37500
2788888;-0.38000
2791666;-0.38500
2794444;-0.39000
2797221;-0.37000
2799999;-0.35500
2802777;-0.34500
2805555;-0.34000
2808333;-0.33000
2811110;-0.33000
2813888;-0.32500
2816666;-0.31000
2819444;-0.31000
2822221;-0.31000
2824999;-0.29500
2827777;-0.30000
2830555;-0.29500
2833333;-0.28500
2836110;-0.27000
2838888;-0.27500
2841666;-0.27500
2844444;-0.29000
2847221;-0.28000
2849999;-0.27500
2852777;-0.25500
2855555;-0.26500
2858333;-0.26500
2861110;-0.28000
2863888;-0.27500
2866666;-0.28000
2869444;-0.27500
2872221;-0.27500
2874999;-0.29000
2877777;-0.31000
2880555;-0.30000
2883333;-0.29000
2886110;-0.28000
2888888;-0.28500
2891666;-0.29500
2894444;-0.30500
2897221;-0.30500
2899999;-0.31000
2902777;-0.30000
2905555;-0.30500
2908333;-0.30500
2911110;-0.31000
2913888;-0.31500
2916666;-0.30000
2919444;-0.29500
2922221;-0.29500
2924999;-0.30000
2927777;-0.31000
2930555;-0.31500
2933333;-0.30500
2936110;-0.30500
2938888;-0.31000
2941666;-0.30500
2944444;-0.32000
2947221;-0.31000
2949999;-0.31000
2952777;-0.31000
2955555;-0.31000
2958333;-0.31000
2961110;-0.32000
2963888;-0.33500
2966666;-0.32500
2969444;-0.31500
2972221;-0.32000
2974999;-0.33500
2977777;-0.35000
2980555;-0.34500
2983332;-0.33500
2986110;-0.33500
2988888;-0.33500
2991666;-0.34500
2994444;-0.36000
2997221;-0.35000
2999999;-0.35000
3002777;-0.34000
3005555;-0.34500
3008332;-0.34500
3011110;-0.36500
3013888;-0.35500
3016666;-0.35000
3019444;-0.34000
3022221;-0.34000
3024999;-0.34500
3027777;-0.36000
3030555;-0.34500
3033332;-0.34500
3036110;-0.34500
3038888;-0.34000
3041666;-0.35000
3044444;-0.35500
3047221;-0.36000
3049999;-0.35500
3052777;-0.33500
3055555;-0.34000
3058332;-0.34000
3061110;-0.35000
3063888;-0.34500
3066666;-0.33000
3069444;-0.30000
3072221;-0.30000
3074999;-0.29000
3077777;-0.29500
3080555;-0.29000
3083332;-0.28500
3086110;-0.26000
3088888;-0.26500
3091666;-0.26500
3094444;-0.28500
3097221;-0.29000
3099999;-0.27000
3102777;-0.25000
3105555;-0.23000
3108332;-0.23500
3111110;-0.23500
3113888;-0.24000
3116666;-0.23500
3119444;-0.22500
3122221;-0.22500
3124999;-0.23500
3127777;-0.24000
3130555;-0.25000
3133332;-0.23500
3136110;-0.21500
3138888;-0.22000
3141666;-0.22000
3144444;-0.21500
3147221;-0.19500
3149999;-0.18500
3152777;-0.20500
3155555;-0.24500
3158332;-0.28000
3161110;-0.30000
3163888;-0.30500
3166666;-0.31000
3169444;-0.32500
3172221;-0.33500
3174999;-0.35000
3177777;-0.37500
3180555;-0.37000
3183332;-0.36500
3186110;-0.36000
3188888;-0.35500
3191666;-0.36500
3194444;-0.37500
3197221;-0.36500
3199999;-0.35500
3202777;-0.34500
3205555;-0.34500
3208332;-0.35500
3211110;-0.36500
3213888;-0.37000
3216666;-0.36500
3219444;-0.36000
3222221;-0.36000
3224999;-0.36500
3227777;-0.38000
3230555;-0.38500
3233332;-0.37000
3236110;-0.36000
3238888;-0.36500
3241666;-0.38000
3244444;-0.39500
3247221;-0.42500
3249999;-0.44000
3252777;-0.48500
3255555;-0.51000
3258332;-0.55500
3261110;-0.61000
3263888;-0.60500
3266666;-0.52500
3269444;-0.40000
3272221;-0.25000
3274999;-0.08000
3277777;0.13000
3280555;0.40000
3283332;0.65500
3286110;0.81000
3288888;0.85000
3291666;0.71500
3294444;0.40500
3297221;0.00000
3299999;-0.31500
3302777;-0.47500
3305555;-0.50500
3308332;-0.48500
3311110;-0.47000
3313888;-0.46000
3316666;-0.45500
3319444;-0.44000
3322221;-0.43000
3324999;-0.44000
3327777;-0.45000
3330555;-0.45500
3333332;-0.45500
3336110;-0.44000
3338888;-0.45500
3341666;-0.45500
3344444;-0.47000
3347221;-0.46000
3349999;-0.44500
3352777;-0.43500
3355555;-0.43000
3358332;-0.44000
3361110;-0.43500
3363888;-0.44500
3366666;-0.43500
3369444;-0.42500
3372221;-0.43000
3374999;-0.43500
3377777;-0.45000
3380555;-0.45000
3383332;-0.44000
3386110;-0.43500
3388888;-0.43000
3391666;-0.46000
3394443;-0.46000
3397221;-0.46000
3399999;-0.45500
3402777;-0.45500
3405555;-0.44500
3408332;-0.45500
3411110;-0.47000
3413888;-0.46500
3416666;-0.45500
3419443;-0.45500
3422221;-0.45500
3424999;-0.46500
3427777;-0.46500
3430555;-0.47500
3433332;-0.45000
3436110;-0.45000
3438888;-0.45000
3441666;-0.45500
3444443;-0.46500
3447221;-0.46000
3449999;-0.45500
3452777;-0.44500
3455555;-0.43000
3458332;-0.44000
3461110;-0.45000
3463888;-0.46500
3466666;-0.44500
3469443;-0.43500
3472221;-0.45000
3474999;-0.46500
3477777;-0.46500
3480555;-0.46000
3483332;-0.45500
3486110;-0.44500
3488888;-0.44500
3491666;-0.46500
3494443;-0.46500
3497221;-0.47500
3499999;-0.46000
3502777;-0.47000
3505555;-0.47500
3508332;-0.47000
3511110;-0.47500
3513888;-0.47000
3516666;-0.47000
3519443;-0.45500
3522221;-0.46000
3524999;-0.47000
3527777;-0.48500
3530555;-0.48500
3533332;-0.48000
3536110;-0.46500
3538888;-0.48000
3541666;-0.50000
3544443;-0.50000
