time_ms;ecg_value
0;0.78500
2778;0.85000
5556;0.80000
8333;0.55000
11111;0.15500
13889;-0.21500
16667;-0.44500
19444;-0.53000
22222;-0.54000
25000;-0.50000
27778;-0.46000
30556;-0.43500
33333;-0.43000
36111;-0.43000
38889;-0.43500
41667;-0.43000
44444;-0.44000
47222;-0.43000
50000;-0.42500
52778;-0.43000
55556;-0.43500
58333;-0.44500
61111;-0.44500
63889;-0.42500
66667;-0.41500
69444;-0.42000
72222;-0.42000
75000;-0.43500
77778;-0.43000
80556;-0.42000
83333;-0.40500
86111;-0.41500
88889;-0.42500
91667;-0.42500
94444;-0.43500
97222;-0.41500
100000;-0.41000
102778;-0.42000
105556;-0.42000
108333;-0.44000
111111;-0.44000
113889;-0.44500
116667;-0.42500
119444;-0.41500
122222;-0.43000
125000;-0.44000
127778;-0.43500
130556;-0.42500
133333;-0.42000
136111;-0.42000
138889;-0.42500
141667;-0.42500
144444;-0.43500
147222;-0.41500
150000;-0.42000
152778;-0.41500
155556;-0.42500
158333;-0.43500
161111;-0.42500
163889;-0.42000
166667;-0.41000
169444;-0.42000
172222;-0.43000
175000;-0.44000
177778;-0.44000
180556;-0.43500
183333;-0.42000
186111;-0.41500
188889;-0.43500
191667;-0.43000
194444;-0.43500
197222;-0.42500
200000;-0.42000
202778;-0.42500
205555;-0.42500
208333;-0.43000
211111;-0.43000
213889;-0.43000
216667;-0.41500
219444;-0.41000
222222;-0.41500
225000;-0.43000
227778;-0.42500
230555;-0.42500
233333;-0.41000
236111;-0.41500
238889;-0.42000
241667;-0.45000
244444;-0.44500
247222;-0.43500
250000;-0.43000
252778;-0.43000
255555;-0.43500
258333;-0.44000
261111;-0.44500
263889;-0.43000
266667;-0.43000
269444;-0.42500
272222;-0.43500
275000;-0.43000
277778;-0.42500
280555;-0.42500
283333;-0.41000
286111;-0.41500
288889;-0.41000
291667;-0.42000
294444;-0.42500
297222;-0.40000
300000;-0.39500
302778;-0.38000
305555;-0.37000
308333;-0.37000
311111;-0.36500
313889;-0.34000
316667;-0.32500
319444;-0.31500
322222;-0.33500
325000;-0.32000
327778;-0.32000
330555;-0.30500
333333;-0.28000
336111;-0.29000
338889;-0.28500
341667;-0.29000
344444;-0.29500
347222;-0.29000
350000;-0.29500
352778;-0.28500
355555;-0.28000
358333;-0.28500
361111;-0.28000
363889;-0.28000
366667;-0.26500
369444;-0.27000
372222;-0.27500
375000;-0.28000
377778;-0.28000
380555;-0.27500
383333;-0.27500
386111;-0.26500
388889;-0.27000
391667;-0.28000
394444;-0.29500
397222;-0.28500
400000;-0.27500
402778;-0.28000
405555;-0.28000
408333;-0.29500
411111;-0.30500
413889;-0.29500
416667;-0.28000
419444;-0.30000
422222;-0.30500
425000;-0.30000
427778;-0.30500
430555;-0.29500
433333;-0.29500
436111;-0.29500
438889;-0.30000
441667;-0.30500
444444;-0.31000
447222;-0.30000
450000;-0.29000
452778;-0.30000
455555;-0.30500
458333;-0.31500
461111;-0.32000
463889;-0.31500
466667;-0.31000
469444;-0.31000
472222;-0.32000
475000;-0.32000
477778;-0.32500
480555;-0.32000
483333;-0.31000
486111;-0.31500
488889;-0.32500
491667;-0.33000
494444;-0.34500
497222;-0.33500
500000;-0.32000
502778;-0.32000
505555;-0.32500
508333;-0.32500
511111;-0.32500
513889;-0.31000
516667;-0.31000
519444;-0.30500
522222;-0.30000
525000;-0.31000
527778;-0.32500
530555;-0.31500
533333;-0.30500
536111;-0.30500
538889;-0.31500
541667;-0.32500
544444;-0.32500
547222;-0.31000
550000;-0.30000
552778;-0.29500
555555;-0.30000
558333;-0.31500
561111;-0.30500
563889;-0.27500
566667;-0.27000
569444;-0.27000
572222;-0.28000
575000;-0.27000
577778;-0.27500
580555;-0.26500
583333;-0.25000
586111;-0.25000
588889;-0.25500
591667;-0.25500
594444;-0.25000
597222;-0.23500
600000;-0.21500
602778;-0.21000
605555;-0.20000
608333;-0.21500
611111;-0.20500
613889;-0.19000
616666;-0.18000
619444;-0.18500
622222;-0.19500
625000;-0.20000
627778;-0.21500
630555;-0.21500
633333;-0.20000
636111;-0.19500
638889;-0.20500
641666;-0.21000
644444;-0.20000
647222;-0.17000
650000;-0.14500
652778;-0.17000
655555;-0.22500
658333;-0.26000
661111;-0.27000
663889;-0.27500
666666;-0.27000
669444;-0.28500
672222;-0.30500
675000;-0.32500
677778;-0.34000
680555;-0.33000
683333;-0.31500
686111;-0.32000
688889;-0.32500
691666;-0.34000
694444;-0.34500
697222;-0.34000
700000;-0.34000
702778;-0.35000
705555;-0.36000
708333;-0.35500
711111;-0.36500
713889;-0.36000
716666;-0.34000
719444;-0.36000
722222;-0.35500
725000;-0.36000
727778;-0.37500
730555;-0.37000
733333;-0.36500
736111;-0.36500
738889;-0.37000
741666;-0.40000
744444;-0.44000
747222;-0.46500
750000;-0.46500
752778;-0.48500
755555;-0.53000
758333;-0.58000
761111;-0.59500
763889;-0.53500
766666;-0.42500
769444;-0.32000
772222;-0.21000
775000;-0.08000
777778;0.12000
780555;0.39500
783333;0.64500
786111;0.80500
788889;0.89000
791666;0.86000
794444;0.66500
797222;0.32500
800000;-0.06000
802778;-0.37000
805555;-0.50500
808333;-0.54000
811111;-0.51000
813889;-0.44000
816666;-0.40000
819444;-0.38000
822222;-0.38500
825000;-0.39500
827778;-0.40000
830555;-0.39000
833333;-0.37500
836111;-0.38500
838889;-0.39500
841666;-0.41000
844444;-0.40500
847222;-0.40000
850000;-0.39500
852778;-0.40000
855555;-0.40000
858333;-0.40500
861111;-0.40500
863889;-0.40500
866666;-0.39500
869444;-0.39000
872222;-0.39500
875000;-0.41000
877778;-0.41000
880555;-0.41000
883333;-0.40000
886111;-0.41000
888889;-0.40000
891666;-0.40000
894444;-0.39000
897222;-0.39000
900000;-0.37000
902778;-0.37500
905555;-0.38500
908333;-0.39000
911111;-0.40500
913889;-0.40000
916666;-0.39500
919444;-0.38000
922222;-0.40000
925000;-0.40500
927778;-0.40000
930555;-0.40000
933333;-0.39500
936111;-0.39500
938889;-0.41000
941666;-0.40500
944444;-0.41500
947222;-0.40500
950000;-0.40500
952778;-0.39000
955555;-0.39500
958333;-0.39000
961111;-0.40000
963889;-0.39000
966666;-0.37500
969444;-0.37500
972222;-0.38000
975000;-0.38000
977778;-0.38000
980555;-0.38000
983333;-0.37000
986111;-0.38000
988889;-0.39000
991666;-0.40000
994444;-0.40000
997222;-0.37500
1000000;-0.37500
1002777;-0.37000
1005555;-0.38000
1008333;-0.38500
1011111;-0.39500
1013889;-0.39000
1016666;-0.39500
1019444;-0.38500
1022222;-0.39000
1025000;-0.38500
1027777;-0.40500
1030555;-0.38000
1033333;-0.38000
1036111;-0.37500
1038889;-0.39000
1041666;-0.39500
1044444;-0.39000
1047222;-0.39000
1050000;-0.38000
1052777;-0.39500
1055555;-0.38500
1058333;-0.38500
1061111;-0.39500
1063889;-0.38000
1066666;-0.37000
1069444;-0.37500
1072222;-0.38000
1075000;-0.39000
1077777;-0.38500
1080555;-0.36500
1083333;-0.35000
1086111;-0.35000
1088889;-0.34500
1091666;-0.34500
1094444;-0.35000
1097222;-0.32500
1100000;-0.30500
1102777;-0.29500
1105555;-0.29500
1108333;-0.30000
1111111;-0.31000
1113889;-0.28500
1116666;-0.27000
1119444;-0.29000
1122222;-0.29000
1125000;-0.28500
1127777;-0.29500
1130555;-0.29500
1133333;-0.28000
1136111;-0.27500
1138889;-0.29000
1141666;-0.30000
1144444;-0.31000
1147222;-0.30000
1150000;-0.27500
1152777;-0.28000
1155555;-0.29000
1158333;-0.29500
1161111;-0.30500
1163889;-0.29000
1166666;-0.28000
1169444;-0.28000
1172222;-0.29000
1175000;-0.29500
1177777;-0.30000
1180555;-0.29000
1183333;-0.28500
1186111;-0.29500
1188889;-0.31000
1191666;-0.32500
1194444;-0.31500
1197222;-0.31500
1200000;-0.30500
1202777;-0.31000
1205555;-0.31500
1208333;-0.32500
1211111;-0.33500
1213889;-0.32500
1216666;-0.32000
1219444;-0.33000
1222222;-0.32500
1225000;-0.33000
1227777;-0.34000
1230555;-0.33000
1233333;-0.33000
1236111;-0.32500
1238889;-0.33500
1241666;-0.33000
1244444;-0.33500
1247222;-0.32500
1250000;-0.32000
1252777;-0.32500
1255555;-0.33500
1258333;-0.35000
1261111;-0.34500
1263889;-0.33000
1266666;-0.32000
1269444;-0.34000
1272222;-0.32500
1275000;-0.33500
1277777;-0.33500
1280555;-0.33000
1283333;-0.32000
1286111;-0.33000
1288889;-0.33000
1291666;-0.33500
1294444;-0.34500
1297222;-0.33500
1300000;-0.32500
1302777;-0.32000
1305555;-0.32500
1308333;-0.32500
1311111;-0.33000
1313889;-0.32500
1316666;-0.31500
1319444;-0.31000
1322222;-0.32000
1325000;-0.32000
1327777;-0.32500
1330555;-0.32500
1333333;-0.32500
1336111;-0.32000
1338889;-0.33500
1341666;-0.33500
1344444;-0.32000
1347222;-0.29500
1350000;-0.28500
1352777;-0.28000
1355555;-0.28500
1358333;-0.28000
1361111;-0.28000
1363889;-0.25500
1366666;-0.25000
1369444;-0.24500
1372222;-0.24000
1375000;-0.23500
1377777;-0.22500
1380555;-0.20500
1383333;-0.19000
1386111;-0.19000
1388888;-0.20000
1391666;-0.21000
1394444;-0.22000
1397222;-0.22500
1400000;-0.21500
1402777;-0.20500
1405555;-0.21500
1408333;-0.22000
1411111;-0.22000
1413888;-0.20000
1416666;-0.16500
1419444;-0.15500
1422222;-0.16000
1425000;-0.18500
1427777;-0.23500
1430555;-0.26500
1433333;-0.28000
1436111;-0.29000
1438888;-0.29500
1441666;-0.32500
1444444;-0.33500
1447222;-0.34000
1450000;-0.34500
1452777;-0.34500
1455555;-0.35000
1458333;-0.35500
1461111;-0.35000
1463888;-0.35000
1466666;-0.35500
1469444;-0.34000
1472222;-0.36500
1475000;-0.38500
1477777;-0.38000
1480555;-0.37000
1483333;-0.35500
1486111;-0.37000
1488888;-0.37500
1491666;-0.37500
1494444;-0.39500
1497222;-0.38500
1500000;-0.37500
1502777;-0.37500
1505555;-0.39000
1508333;-0.38500
1511111;-0.41000
1513888;-0.42000
1516666;-0.46000
1519444;-0.49500
1522222;-0.50500
1525000;-0.53500
1527777;-0.59500
1530555;-0.62500
1533333;-0.59000
1536111;-0.54500
1538888;-0.48500
1541666;-0.40000
1544444;-0.30000
1547222;-0.19000
1550000;-0.00500
1552777;0.24000
1555555;0.52000
1558333;0.70500
1561111;0.77500
1563888;0.70000
1566666;0.42000
1569444;-0.01000
1572222;-0.36500
1575000;-0.55000
1577777;-0.56500
1580555;-0.49000
1583333;-0.45000
1586111;-0.43000
1588888;-0.43500
1591666;-0.44000
1594444;-0.43000
1597222;-0.41000
1600000;-0.40000
1602777;-0.41500
1605555;-0.41000
1608333;-0.42500
1611111;-0.43000
1613888;-0.41500
1616666;-0.41000
1619444;-0.41000
1622222;-0.41500
1625000;-0.42500
1627777;-0.42500
1630555;-0.42000
1633333;-0.41500
1636111;-0.41500
1638888;-0.42500
1641666;-0.43000
1644444;-0.44000
1647222;-0.43000
1650000;-0.41500
1652777;-0.41000
1655555;-0.41500
1658333;-0.41500
1661111;-0.42000
1663888;-0.41000
1666666;-0.41000
1669444;-0.41000
1672222;-0.41000
1675000;-0.41000
1677777;-0.42000
1680555;-0.40500
1683333;-0.40000
1686111;-0.39000
1688888;-0.39500
1691666;-0.40000
1694444;-0.41000
1697222;-0.39500
1700000;-0.40000
1702777;-0.40000
1705555;-0.42000
1708333;-0.41500
1711111;-0.42500
1713888;-0.40500
1716666;-0.40500
1719444;-0.40000
1722222;-0.39500
1725000;-0.42000
1727777;-0.43000
1730555;-0.41000
1733333;-0.39000
1736111;-0.40000
1738888;-0.40000
1741666;-0.41500
1744444;-0.40500
1747222;-0.39500
1750000;-0.38500
1752777;-0.38500
1755555;-0.40500
1758333;-0.40000
1761111;-0.40500
1763888;-0.39500
1766666;-0.37500
1769444;-0.38000
1772222;-0.39500
1775000;-0.40500
1777777;-0.40500
1780555;-0.41000
1783333;-0.38500
1786111;-0.39000
1788888;-0.39000
1791666;-0.41500
1794444;-0.41500
1797222;-0.41000
1799999;-0.41500
1802777;-0.40000
1805555;-0.42000
1808333;-0.42000
1811111;-0.41000
1813888;-0.40500
1816666;-0.40500
1819444;-0.41000
1822222;-0.41500
1824999;-0.42000
1827777;-0.42000
1830555;-0.41000
1833333;-0.39000
1836111;-0.38500
1838888;-0.38000
1841666;-0.37000
1844444;-0.37500
1847222;-0.35500
1849999;-0.33500
1852777;-0.33000
1855555;-0.34000
1858333;-0.35000
1861111;-0.34500
1863888;-0.33000
1866666;-0.30500
1869444;-0.29000
1872222;-0.30000
1874999;-0.30500
1877777;-0.30500
1880555;-0.30500
1883333;-0.30000
1886111;-0.31000
1888888;-0.30500
1891666;-0.31500
1894444;-0.31500
1897222;-0.31000
1899999;-0.30000
1902777;-0.29500
1905555;-0.32000
1908333;-0.30500
1911111;-0.32000
1913888;-0.30500
1916666;-0.30500
1919444;-0.30500
1922222;-0.31000
1924999;-0.32000
1927777;-0.31000
1930555;-0.30000
1933333;-0.29500
1936111;-0.29500
1938888;-0.29500
1941666;-0.30500
1944444;-0.31000
1947222;-0.30500
1949999;-0.31000
1952777;-0.32000
1955555;-0.33000
1958333;-0.33000
1961111;-0.33500
1963888;-0.32500
1966666;-0.31000
1969444;-0.31000
1972222;-0.32500
1974999;-0.33500
1977777;-0.35000
1980555;-0.33500
1983333;-0.32000
1986111;-0.32000
1988888;-0.33500
1991666;-0.34000
1994444;-0.34500
1997222;-0.34000
1999999;-0.33000
2002777;-0.33000
2005555;-0.34000
2008333;-0.35500
2011111;-0.35500
2013888;-0.34500
2016666;-0.31500
2019444;-0.33500
2022222;-0.35000
2024999;-0.35000
2027777;-0.35000
2030555;-0.34500
2033333;-0.33500
2036111;-0.34000
2038888;-0.36000
2041666;-0.37000
2044444;-0.37500
2047222;-0.35000
2049999;-0.35500
2052777;-0.35500
2055555;-0.34500
2058333;-0.34000
2061111;-0.35000
2063888;-0.33500
2066666;-0.32000
2069444;-0.33000
2072222;-0.34000
2074999;-0.34500
2077777;-0.34500
2080555;-0.32500
2083333;-0.32000
2086111;-0.33000
2088888;-0.35500
2091666;-0.35500
2094444;-0.35000
2097222;-0.34500
2099999;-0.33500
2102777;-0.32500
2105555;-0.34000
2108333;-0.35000
2111111;-0.34500
2113888;-0.32500
2116666;-0.30500
2119444;-0.29500
2122222;-0.31000
2124999;-0.30500
2127777;-0.30500
2130555;-0.28000
2133333;-0.25500
2136111;-0.25000
2138888;-0.25500
2141666;-0.26000
2144444;-0.25500
2147222;-0.23500
2149999;-0.22500
2152777;-0.22000
2155555;-0.22500
2158333;-0.23000
2161111;-0.23500
2163888;-0.21500
2166666;-0.23000
2169444;-0.24000
2172222;-0.25000
2174999;-0.24000
2177777;-0.24000
2180555;-0.22500
2183333;-0.21000
2186110;-0.21000
2188888;-0.20000
2191666;-0.19500
2194444;-0.23000
2197222;-0.25000
2199999;-0.27000
2202777;-0.29000
2205555;-0.30500
2208333;-0.32000
2211110;-0.33500
2213888;-0.34500
2216666;-0.35000
2219444;-0.35500
2222222;-0.36500
2224999;-0.37500
2227777;-0.38500
2230555;-0.37500
2233333;-0.36000
2236110;-0.36000
2238888;-0.37500
2241666;-0.37500
2244444;-0.38000
2247222;-0.36000
2249999;-0.36000
2252777;-0.35500
2255555;-0.36500
2258333;-0.36500
2261110;-0.37500
2263888;-0.36500
2266666;-0.36000
2269444;-0.35000
2272222;-0.36000
2274999;-0.37000
2277777;-0.39000
2280555;-0.37500
2283333;-0.38000
2286110;-0.40000
2288888;-0.44500
2291666;-0.48500
2294444;-0.50500
2297222;-0.53000
2299999;-0.55500
2302777;-0.57000
2305555;-0.50000
2308333;-0.38000
2311110;-0.23500
2313888;-0.02000
2316666;0.23500
2319444;0.52500
2322222;0.75500
2324999;0.87500
2327777;0.80000
2330555;0.51500
2333333;0.12000
2336110;-0.27500
2338888;-0.49500
2341666;-0.56500
2344444;-0.54000
2347222;-0.49000
2349999;-0.44500
2352777;-0.44000
2355555;-0.44500
2358333;-0.45000
2361110;-0.43500
2363888;-0.42000
2366666;-0.40000
2369444;-0.41500
2372222;-0.41500
2374999;-0.42000
2377777;-0.43500
2380555;-0.42500
2383333;-0.42000
2386110;-0.42500
2388888;-0.43000
2391666;-0.43500
2394444;-0.43500
2397222;-0.44000
2399999;-0.43000
2402777;-0.42500
2405555;-0.44500
2408333;-0.44500
2411110;-0.44500
2413888;-0.44500
2416666;-0.44000
2419444;-0.45000
2422222;-0.45500
2424999;-0.45000
2427777;-0.46000
2430555;-0.44500
2433333;-0.43500
2436110;-0.43500
2438888;-0.44000
2441666;-0.45000
2444444;-0.44500
2447222;-0.43000
2449999;-0.43000
2452777;-0.42500
2455555;-0.43000
2458333;-0.42500
2461110;-0.42500
2463888;-0.42000
2466666;-0.41500
2469444;-0.41500
2472222;-0.42000
2474999;-0.43500
2477777;-0.42500
2480555;-0.42500
2483333;-0.41500
2486110;-0.42000
2488888;-0.43000
2491666;-0.43000
2494444;-0.43500
2497222;-0.44000
2499999;-0.42000
2502777;-0.42000
2505555;-0.43500
2508333;-0.44000
2511110;-0.43500
2513888;-0.43500
2516666;-0.42500
2519444;-0.43500
2522222;-0.42500
2524999;-0.43000
2527777;-0.43500
2530555;-0.42000
2533333;-0.43000
2536110;-0.43000
2538888;-0.42500
2541666;-0.44500
2544444;-0.47000
2547222;-0.45500
2549999;-0.45000
2552777;-0.45500
2555555;-0.46500
2558333;-0.46500
2561110;-0.47000
2563888;-0.46000
2566666;-0.44500
2569444;-0.47000
2572222;-0.47500
2574999;-0.49500
2577777;-0.49000
2580555;-0.48500
2583333;-0.46500
2586110;-0.46500
2588888;-0.46000
2591666;-0.46500
2594444;-0.46500
2597221;-0.42500
2599999;-0.40500
2602777;-0.40500
2605555;-0.38500
2608333;-0.39000
2611110;-0.37500
2613888;-0.36500
2616666;-0.34000
2619444;-0.33000
2622221;-0.34000
2624999;-0.34000
2627777;-0.33000
2630555;-0.31000
2633333;-0.29000
2636110;-0.29000
2638888;-0.29500
2641666;-0.30500
2644444;-0.30500
2647221;-0.29500
2649999;-0.29000
2652777;-0.29000
2655555;-0.29500
2658333;-0.29500
2661110;-0.30500
2663888;-0.30000
2666666;-0.29500
2669444;-0.28000
2672221;-0.28500
2674999;-0.29000
2677777;-0.28500
2680555;-0.28000
2683333;-0.28000
2686110;-0.28000
2688888;-0.29500
2691666;-0.31000
2694444;-0.30500
2697221;-0.30000
2699999;-0.30000
2702777;-0.29000
2705555;-0.30000
2708333;-0.30500
2711110;-0.30000
2713888;-0.29000
2716666;-0.28500
2719444;-0.29000
2722221;-0.30000
2724999;-0.31000
2727777;-0.31000
2730555;-0.30000
2733333;-0.29000
2736110;-0.30500
2738888;-0.31500
2741666;-0.31500
2744444;-0.31500
2747221;-0.30500
2749999;-0.29500
2752777;-0.30000
2755555;-0.30000
2758333;-0.32000
2761110;-0.32500
2763888;-0.30500
2766666;-0.28500
2769444;-0.31500
2772221;-0.32000
2774999;-0.32500
2777777;-0.32500
2780555;-0.31500
2783333;-0.31500
2786110;-0.32000
2788888;-0.32000
2791666;-0.33000
2794444;-0.33000
2797221;-0.32500
2799999;-0.30500
2802777;-0.30500
2805555;-0.32000
2808333;-0.32000
2811110;-0.32000
2813888;-0.32500
2816666;-0.31500
2819444;-0.30500
2822221;-0.31000
2824999;-0.31000
2827777;-0.31500
2830555;-0.30000
2833333;-0.28500
2836110;-0.30000
2838888;-0.30000
2841666;-0.31000
2844444;-0.31500
2847221;-0.30500
2849999;-0.29500
2852777;-0.30000
2855555;-0.31000
2858333;-0.30500
2861110;-0.31000
2863888;-0.30500
2866666;-0.29000
2869444;-0.29000
2872221;-0.29500
2874999;-0.29000
2877777;-0.27500
2880555;-0.26500
2883333;-0.26000
2886110;-0.25500
2888888;-0.25500
2891666;-0.24000
2894444;-0.23000
2897221;-0.21500
2899999;-0.20000
2902777;-0.20000
2905555;-0.19500
2908333;-0.20000
2911110;-0.19500
2913888;-0.18000
2916666;-0.17000
2919444;-0.17000
2922221;-0.18000
2924999;-0.19000
2927777;-0.20000
2930555;-0.19500
2933333;-0.19000
2936110;-0.19500
2938888;-0.19000
2941666;-0.20500
2944444;-0.21000
2947221;-0.18500
2949999;-0.16500
2952777;-0.15000
2955555;-0.16000
2958333;-0.19500
2961110;-0.23500
2963888;-0.24500
2966666;-0.24500
2969444;-0.25500
2972221;-0.28500
2974999;-0.30000
2977777;-0.30500
2980555;-0.30000
2983332;-0.31500
2986110;-0.31000
2988888;-0.31500
2991666;-0.33000
2994444;-0.33500
2997221;-0.32000
2999999;-0.32000
3002777;-0.31500
3005555;-0.31500
3008332;-0.33000
3011110;-0.34000
3013888;-0.32500
3016666;-0.33000
3019444;-0.33000
3022221;-0.33000
3024999;-0.34000
3027777;-0.34500
3030555;-0.32000
3033332;-0.32500
3036110;-0.30500
3038888;-0.32500
3041666;-0.33000
3044444;-0.37000
3047221;-0.38500
3049999;-0.41500
3052777;-0.44500
3055555;-0.46500
3058332;-0.52500
3061110;-0.55500
3063888;-0.53500
3066666;-0.45000
3069444;-0.35000
3072221;-0.26000
3074999;-0.21500
3077777;-0.15000
3080555;-0.03500
3083332;0.15000
3086110;0.38000
3088888;0.65000
3091666;0.84000
3094444;0.90500
3097221;0.79000
3099999;0.47500
3102777;0.03500
3105555;-0.33000
3108332;-0.50000
3111110;-0.52000
3113888;-0.44000
3116666;-0.37000
3119444;-0.36000
3122221;-0.37500
3124999;-0.39000
3127777;-0.39000
3130555;-0.37500
3133332;-0.36000
3136110;-0.37000
3138888;-0.37000
3141666;-0.39000
3144444;-0.38500
3147221;-0.37000
3149999;-0.36500
3152777;-0.37000
3155555;-0.37000
3158332;-0.38500
3161110;-0.38000
3163888;-0.38000
3166666;-0.37000
3169444;-0.36500
3172221;-0.37500
3174999;-0.38000
3177777;-0.38000
3180555;-0.36500
3183332;-0.37000
3186110;-0.37500
3188888;-0.37500
3191666;-0.37000
3194444;-0.38000
3197221;-0.37000
3199999;-0.35500
3202777;-0.37000
3205555;-0.37000
3208332;-0.38500
3211110;-0.38500
3213888;-0.37500
3216666;-0.36500
3219444;-0.35500
3222221;-0.37000
3224999;-0.38000
3227777;-0.38500
3230555;-0.38000
3233332;-0.36500
3236110;-0.36000
3238888;-0.37500
3241666;-0.37500
3244444;-0.38000
3247221;-0.37000
3249999;-0.36000
3252777;-0.35500
3255555;-0.37000
3258332;-0.36500
3261110;-0.37000
3263888;-0.35500
3266666;-0.34000
3269444;-0.35500
3272221;-0.36500
3274999;-0.38000
3277777;-0.37000
3280555;-0.36500
3283332;-0.35500
3286110;-0.35500
3288888;-0.35500
3291666;-0.36500
3294444;-0.37000
3297221;-0.36000
3299999;-0.35500
3302777;-0.35500
3305555;-0.35500
3308332;-0.36500
3311110;-0.36500
3313888;-0.35500
3316666;-0.34500
3319444;-0.35500
3322221;-0.36500
3324999;-0.37500
3327777;-0.38000
3330555;-0.38000
3333332;-0.36000
3336110;-0.36000
3338888;-0.36000
3341666;-0.38000
3344444;-0.38500
3347221;-0.37000
3349999;-0.37000
3352777;-0.35500
3355555;-0.37000
3358332;-0.37000
3361110;-0.36500
3363888;-0.35500
3366666;-0.33500
3369444;-0.33500
3372221;-0.33500
3374999;-0.33500
3377777;-0.32000
3380555;-0.29500
3383332;-0.28500
3386110;-0.27000
3388888;-0.28000
3391666;-0.27500
3394443;-0.29000
3397221;-0.26500
3399999;-0.26000
3402777;-0.26000
3405555;-0.26000
3408332;-0.26500
3411110;-0.26500
3413888;-0.24500
3416666;-0.24500
3419443;-0.24500
3422221;-0.25500
3424999;-0.26000
3427777;-0.26000
3430555;-0.25500
3433332;-0.24000
3436110;-0.23000
3438888;-0.25500
3441666;-0.26000
3444443;-0.26000
3447221;-0.24000
3449999;-0.23500
3452777;-0.23500
3455555;-0.25000
3458332;-0.25000
3461110;-0.24500
3463888;-0.25000
3466666;-0.24500
3469443;-0.25000
3472221;-0.26500
3474999;-0.27000
3477777;-0.27000
3480555;-0.26500
3483332;-0.26000
3486110;-0.25500
3488888;-0.26000
3491666;-0.28000
3494443;-0.27500
3497221;-0.27000
3499999;-0.26500
3502777;-0.26500
3505555;-0.27500
3508332;-0.28500
3511110;-0.28500
3513888;-0.27000
3516666;-0.26000
3519443;-0.26000
3522221;-0.26000
3524999;-0.26500
3527777;-0.27000
3530555;-0.26500
3533332;-0.25000
3536110;-0.26000
3538888;-0.26500
3541666;-0.28000
3544443;-0.28500
3547221;-0.27000
3549999;-0.26500
3552777;-0.27000
3555555;-0.28000
3558332;-0.29000
3561110;-0.30500
3563888;-0.29000
3566666;-0.28000
3569443;-0.29000
3572221;-0.29500
3574999;-0.30000
3577777;-0.29500
3580555;-0.30500
3583332;-0.29000
3586110;-0.29000
3588888;-0.30000
3591666;-0.30500
3594443;-0.30500
3597221;-0.29500
3599999;-0.29000
3602777;-0.28500
3605555;-0.28000
3608332;-0.29000
3611110;-0.30000
3613888;-0.28000
3616666;-0.28000
3619443;-0.27500
3622221;-0.28000
3624999;-0.28000
3627777;-0.28500
3630555;-0.27500
3633332;-0.26500
3636110;-0.26500
3638888;-0.27000
3641666;-0.26000
3644443;-0.25500
3647221;-0.24000
3649999;-0.23500
3652777;-0.22500
3655555;-0.22500
3658332;-0.23000
3661110;-0.22500
3663888;-0.21500
3666666;-0.20500
3669443;-0.21000
3672221;-0.20500
3674999;-0.20500
3677777;-0.19000
3680555;-0.17500
3683332;-0.15500
3686110;-0.15500
3688888;-0.15000
3691666;-0.16000
3694443;-0.16000
3697221;-0.16000
3699999;-0.17000
3702777;-0.16000
3705555;-0.17000
3708332;-0.17500
3711110;-0.18000
3713888;-0.17000
3716666;-0.17000
3719443;-0.16000
3722221;-0.15500
3724999;-0.13500
3727777;-0.14000
3730555;-0.17500
3733332;-0.21500
3736110;-0.23000
3738888;-0.23500
3741666;-0.26500
3744443;-0.26000
3747221;-0.27000
3749999;-0.27500
3752777;-0.28000
3755555;-0.29000
3758332;-0.29000
3761110;-0.29500
3763888;-0.29500
3766666;-0.29500
3769443;-0.30000
3772221;-0.31500
3774999;-0.32500
3777777;-0.31000
3780554;-0.32000
3783332;-0.31500
3786110;-0.30000
3788888;-0.32000
3791666;-0.33000
3794443;-0.32000
3797221;-0.32000
3799999;-0.30500
3802777;-0.30000
3805554;-0.31500
3808332;-0.32500
3811110;-0.33000
3813888;-0.31000
3816666;-0.29500
3819443;-0.29500
3822221;-0.31000
3824999;-0.34000
3827777;-0.36500
3830554;-0.39500
3833332;-0.42000
3836110;-0.44000
3838888;-0.47500
3841666;-0.52000
3844443;-0.52500
3847221;-0.46500
3849999;-0.34500
3852777;-0.21000
3855554;-0.07000
3858332;0.13500
3861110;0.41000
3863888;0.66000
3866666;0.83000
3869443;0.85000
3872221;0.69000
3874999;0.35000
3877777;-0.06000
3880554;-0.34500
3883332;-0.47500
3886110;-0.47000
3888888;-0.42000
3891666;-0.37500
3894443;-0.37000
3897221;-0.36000
3899999;-0.36000
3902777;-0.34500
3905554;-0.35500
3908332;-0.36000
3911110;-0.37000
3913888;-0.36000
3916666;-0.35500
3919443;-0.35000
3922221;-0.36000
3924999;-0.37000
3927777;-0.37500
3930554;-0.35500
3933332;-0.34500
3936110;-0.34000
3938888;-0.33500
3941666;-0.35000
3944443;-0.34500
3947221;-0.34500
3949999;-0.33500
3952777;-0.34000
3955554;-0.35500
3958332;-0.35500
3961110;-0.35500
3963888;-0.34500
3966666;-0.35000
3969443;-0.34000
3972221;-0.35500
3974999;-0.36000
3977777;-0.36000
3980554;-0.34000
3983332;-0.34000
3986110;-0.34500
3988888;-0.35500
3991666;-0.35000
3994443;-0.35500
3997221;-0.35500
3999999;-0.34500
4002777;-0.33500
4005554;-0.34000
4008332;-0.33500
4011110;-0.35500
4013888;-0.34500
4016666;-0.33000
4019443;-0.33000
4022221;-0.32500
4024999;-0.35000
4027777;-0.34500
4030554;-0.33500
4033332;-0.33500
4036110;-0.34000
4038888;-0.34500
4041666;-0.34000
4044443;-0.35000
4047221;-0.34000
4049999;-0.33500
4052777;-0.33500
4055554;-0.35000
4058332;-0.35500
4061110;-0.36500
4063888;-0.35000
4066666;-0.33500
4069443;-0.33000
4072221;-0.33000
4074999;-0.34500
4077777;-0.34000
4080554;-0.33500
4083332;-0.33000
4086110;-0.33000
4088888;-0.33000
4091666;-0.34500
4094443;-0.35000
4097221;-0.34000
4099999;-0.32000
4102777;-0.32500
4105554;-0.33500
4108332;-0.35500
4111110;-0.35000
4113888;-0.34500
4116666;-0.33500
4119443;-0.33500
4122221;-0.35000
4124999;-0.35500
4127777;-0.35000
4130554;-0.34500
4133332;-0.33500
4136110;-0.33500
4138888;-0.34500
4141666;-0.34500
4144443;-0.35500
4147221;-0.34000
4149999;-0.32500
4152777;-0.31500
4155554;-0.31000
4158332;-0.31000
4161110;-0.31000
4163888;-0.29500
4166666;-0.27500
4169443;-0.27500
4172221;-0.26500
4174999;-0.27000
4177777;-0.26500
4180554;-0.26000
4183332;-0.24500
4186110;-0.25000
4188888;-0.24500
4191665;-0.25000
4194443;-0.24500
4197221;-0.24500
4199999;-0.23500
4202777;-0.23000
4205554;-0.22500
4208332;-0.24000
4211110;-0.24000
4213888;-0.23500
4216665;-0.22000
4219443;-0.22000
4222221;-0.24000
4224999;-0.24500
4227777;-0.24500
4230554;-0.23500
4233332;-0.23500
4236110;-0.22500
4238888;-0.23000
4241665;-0.24000
4244443;-0.25000
4247221;-0.23500
4249999;-0.23000
4252777;-0.22500
4255554;-0.23000
4258332;-0.24000
4261110;-0.24500
4263888;-0.24000
4266665;-0.24500
4269443;-0.25000
4272221;-0.25000
4274999;-0.26000
4277777;-0.25500
4280554;-0.26000
4283332;-0.24500
4286110;-0.25500
4288888;-0.26000
4291665;-0.27000
4294443;-0.26500
4297221;-0.25000
4299999;-0.23500
4302777;-0.24000
4305554;-0.23000
4308332;-0.25500
4311110;-0.26000
4313888;-0.27500
4316665;-0.25500
4319443;-0.24500
4322221;-0.26000
4324999;-0.26500
4327777;-0.26500
4330554;-0.26500
4333332;-0.26000
4336110;-0.26000
4338888;-0.28500
4341665;-0.29500
4344443;-0.29000
4347221;-0.28500
4349999;-0.27000
4352777;-0.28500
4355554;-0.29000
4358332;-0.29000
4361110;-0.28500
4363888;-0.27500
4366665;-0.27000
4369443;-0.27000
4372221;-0.27000
4374999;-0.27000
4377777;-0.27500
4380554;-0.26500
4383332;-0.26000
4386110;-0.26500
4388888;-0.27000
4391665;-0.29500
4394443;-0.29500
4397221;-0.29000
4399999;-0.27500
4402777;-0.27000
4405554;-0.27500
4408332;-0.29000
4411110;-0.30000
4413888;-0.29000
4416665;-0.28000
4419443;-0.27500
4422221;-0.28500
4424999;-0.29500
4427777;-0.29500
4430554;-0.28000
4433332;-0.27500
4436110;-0.25000
4438888;-0.24500
4441665;-0.25000
4444443;-0.24000
4447221;-0.22000
4449999;-0.22000
4452777;-0.22000
4455554;-0.22000
4458332;-0.22000
4461110;-0.22500
4463888;-0.21000
4466665;-0.19500
4469443;-0.19000
4472221;-0.19500
4474999;-0.19000
4477777;-0.18000
4480554;-0.17000
4483332;-0.17000
