time_ms;ecg_value
0;-0.19500
2778;-0.18500
5556;-0.18000
8333;-0.14500
11111;-0.14000
13889;-0.18000
16667;-0.23000
19444;-0.24500
22222;-0.25500
25000;-0.24500
27778;-0.26000
30556;-0.29000
33333;-0.31000
36111;-0.31000
38889;-0.32500
41667;-0.31500
44444;-0.31000
47222;-0.32000
50000;-0.33000
52778;-0.33000
55556;-0.31500
58333;-0.32000
61111;-0.32000
63889;-0.32500
66667;-0.33500
69444;-0.33000
72222;-0.32000
75000;-0.31500
77778;-0.33000
80556;-0.33000
83333;-0.34000
86111;-0.33500
88889;-0.32500
91667;-0.32500
94444;-0.32500
97222;-0.33500
100000;-0.34500
102778;-0.35500
105556;-0.37500
108333;-0.40000
111111;-0.43000
113889;-0.45500
116667;-0.47000
119444;-0.48500
122222;-0.51000
125000;-0.55000
127778;-0.54000
130556;-0.47500
133333;-0.36500
136111;-0.19000
138889;0.00500
141667;0.26500
144444;0.58000
147222;0.80500
150000;0.91000
152778;0.84500
155556;0.57000
158333;0.14000
161111;-0.28000
163889;-0.50000
166667;-0.52500
169444;-0.46500
172222;-0.39500
175000;-0.36500
177778;-0.36500
180556;-0.39000
183333;-0.40500
186111;-0.38500
188889;-0.38000
191667;-0.38000
194444;-0.38000
197222;-0.38000
200000;-0.40000
202778;-0.38000
205555;-0.37500
208333;-0.37500
211111;-0.36500
213889;-0.38000
216667;-0.39000
219444;-0.38500
222222;-0.37500
225000;-0.38000
227778;-0.38000
230555;-0.38500
233333;-0.39500
236111;-0.40000
238889;-0.39000
241667;-0.39000
244444;-0.38500
247222;-0.39500
250000;-0.38500
252778;-0.38000
255555;-0.38500
258333;-0.36500
261111;-0.36500
263889;-0.38500
266667;-0.38500
269444;-0.38000
272222;-0.38000
275000;-0.37000
277778;-0.36500
280555;-0.37500
283333;-0.37500
286111;-0.36500
288889;-0.36500
291667;-0.35500
294444;-0.35000
297222;-0.35500
300000;-0.37500
302778;-0.38000
305555;-0.37500
308333;-0.36500
311111;-0.37000
313889;-0.38000
316667;-0.38000
319444;-0.38000
322222;-0.37000
325000;-0.36500
327778;-0.35500
330555;-0.36000
333333;-0.38500
336111;-0.37500
338889;-0.36500
341667;-0.35000
344444;-0.35000
347222;-0.36500
350000;-0.37000
352778;-0.37500
355555;-0.35500
358333;-0.36000
361111;-0.35500
363889;-0.36000
366667;-0.36500
369444;-0.36500
372222;-0.37000
375000;-0.37000
377778;-0.37000
380555;-0.37500
383333;-0.38500
386111;-0.38500
388889;-0.38000
391667;-0.36000
394444;-0.36500
397222;-0.37500
400000;-0.38500
402778;-0.38500
405555;-0.37000
408333;-0.35500
411111;-0.36000
413889;-0.35000
416667;-0.37000
419444;-0.35000
422222;-0.34000
425000;-0.32500
427778;-0.32500
430555;-0.33500
433333;-0.31500
436111;-0.32000
438889;-0.30500
441667;-0.29500
444444;-0.29000
447222;-0.29000
450000;-0.30000
452778;-0.29000
455555;-0.27500
458333;-0.26000
461111;-0.26500
463889;-0.26500
466667;-0.26500
469444;-0.26500
472222;-0.25000
475000;-0.24500
477778;-0.24500
480555;-0.26000
483333;-0.26500
486111;-0.26000
488889;-0.24000
491667;-0.24500
494444;-0.24500
497222;-0.26000
500000;-0.26000
502778;-0.26500
505555;-0.25000
508333;-0.26000
511111;-0.25500
513889;-0.27000
516667;-0.28500
519444;-0.27000
522222;-0.27500
525000;-0.27000
527778;-0.28000
530555;-0.29500
533333;-0.28500
536111;-0.28000
538889;-0.28000
541667;-0.27000
544444;-0.27000
547222;-0.27500
550000;-0.28000
552778;-0.28500
555555;-0.27000
558333;-0.27500
561111;-0.27500
563889;-0.27000
566667;-0.29500
569444;-0.29000
572222;-0.29000
575000;-0.28000
577778;-0.28000
580555;-0.29500
583333;-0.30500
586111;-0.30500
588889;-0.30000
591667;-0.29000
594444;-0.29000
597222;-0.30000
600000;-0.31500
602778;-0.31500
605555;-0.30500
608333;-0.29500
611111;-0.29500
613889;-0.30500
616666;-0.31500
619444;-0.31500
622222;-0.30500
625000;-0.30500
627778;-0.30000
630555;-0.30500
633333;-0.32000
636111;-0.32500
638889;-0.31000
641666;-0.31000
644444;-0.30000
647222;-0.32000
650000;-0.31000
652778;-0.31500
655555;-0.29500
658333;-0.30000
661111;-0.30000
663889;-0.30500
666666;-0.31000
669444;-0.30000
672222;-0.29500
675000;-0.28500
677778;-0.28000
680555;-0.29000
683333;-0.30500
686111;-0.29000
688889;-0.27000
691666;-0.26000
694444;-0.26500
697222;-0.26500
700000;-0.26000
702778;-0.26500
705555;-0.24500
708333;-0.24000
711111;-0.23500
713889;-0.23000
716666;-0.24500
719444;-0.23500
722222;-0.23000
725000;-0.21500
727778;-0.21500
730555;-0.22000
733333;-0.21000
736111;-0.21000
738889;-0.19500
741666;-0.18500
744444;-0.17000
747222;-0.17500
750000;-0.18000
752778;-0.18500
755555;-0.17500
758333;-0.17500
761111;-0.18000
763889;-0.19000
766666;-0.19000
769444;-0.18500
772222;-0.18500
775000;-0.17500
777778;-0.17000
780555;-0.16000
783333;-0.15500
786111;-0.17500
788889;-0.22500
791666;-0.24000
794444;-0.25000
797222;-0.26000
800000;-0.28500
802778;-0.29000
805555;-0.29000
808333;-0.29500
811111;-0.30500
813889;-0.31500
816666;-0.32500
819444;-0.31500
822222;-0.32000
825000;-0.32500
827778;-0.32000
830555;-0.33500
833333;-0.34000
836111;-0.34000
838889;-0.32500
841666;-0.32500
844444;-0.33000
847222;-0.34500
850000;-0.36000
852778;-0.35000
855555;-0.35000
858333;-0.33500
861111;-0.33000
863889;-0.33500
866666;-0.35000
869444;-0.34500
872222;-0.34500
875000;-0.33000
877778;-0.34000
880555;-0.36500
883333;-0.40500
886111;-0.43000
888889;-0.45500
891666;-0.46500
894444;-0.50000
897222;-0.56000
900000;-0.57000
902778;-0.51500
905555;-0.41500
908333;-0.31500
911111;-0.24000
913889;-0.16500
916666;-0.07000
919444;0.09000
922222;0.31000
925000;0.55000
927778;0.71500
930555;0.82500
933333;0.89000
936111;0.90000
938889;0.75000
941666;0.42000
944444;0.01500
947222;-0.31500
950000;-0.49500
952778;-0.51500
955555;-0.46000
958333;-0.40500
961111;-0.38000
963889;-0.39000
966666;-0.40000
969444;-0.39500
972222;-0.38500
975000;-0.37500
977778;-0.37500
980555;-0.38500
983333;-0.39000
986111;-0.39000
988889;-0.39500
991666;-0.38500
994444;-0.38500
997222;-0.38000
1000000;-0.39500
1002777;-0.38500
1005555;-0.39000
1008333;-0.39500
1011111;-0.39000
1013889;-0.39500
1016666;-0.39500
1019444;-0.39500
1022222;-0.39000
1025000;-0.38000
1027777;-0.39000
1030555;-0.39000
1033333;-0.40000
1036111;-0.39000
1038889;-0.39000
1041666;-0.38000
1044444;-0.38000
1047222;-0.38500
1050000;-0.40000
1052777;-0.40500
1055555;-0.40000
1058333;-0.38000
1061111;-0.39500
1063889;-0.39000
1066666;-0.40500
1069444;-0.40500
1072222;-0.38500
1075000;-0.37500
1077777;-0.38000
1080555;-0.39000
1083333;-0.39500
1086111;-0.40000
1088889;-0.40000
1091666;-0.39000
1094444;-0.39000
1097222;-0.39000
1100000;-0.40500
1102777;-0.40000
1105555;-0.40000
1108333;-0.38000
1111111;-0.38500
1113889;-0.37500
1116666;-0.38000
1119444;-0.38500
1122222;-0.38000
1125000;-0.37500
1127777;-0.36000
1130555;-0.38500
1133333;-0.39000
1136111;-0.39500
1138889;-0.38500
1141666;-0.36000
1144444;-0.36500
1147222;-0.37500
1150000;-0.40000
1152777;-0.39000
1155555;-0.37500
1158333;-0.37500
1161111;-0.38000
1163889;-0.39500
1166666;-0.40500
1169444;-0.40500
1172222;-0.40000
1175000;-0.38000
1177777;-0.38500
1180555;-0.40000
1183333;-0.40500
1186111;-0.42000
1188889;-0.39500
1191666;-0.39000
1194444;-0.39500
1197222;-0.39500
1200000;-0.39500
1202777;-0.39500
1205555;-0.38000
1208333;-0.38000
1211111;-0.37500
1213889;-0.37500
1216666;-0.38500
1219444;-0.37500
1222222;-0.37000
1225000;-0.35500
1227777;-0.36000
1230555;-0.36000
1233333;-0.37500
1236111;-0.36500
1238889;-0.34500
1241666;-0.32000
1244444;-0.31500
1247222;-0.31500
1250000;-0.32500
1252777;-0.31000
1255555;-0.29500
1258333;-0.29500
1261111;-0.30500
1263889;-0.31000
1266666;-0.32500
1269444;-0.32000
1272222;-0.31500
1275000;-0.30500
1277777;-0.30500
1280555;-0.32000
1283333;-0.33000
1286111;-0.33500
1288889;-0.30500
1291666;-0.29500
1294444;-0.30500
1297222;-0.30000
1300000;-0.32500
1302777;-0.32500
1305555;-0.30500
1308333;-0.30000
1311111;-0.30500
1313889;-0.31000
1316666;-0.32500
1319444;-0.32000
1322222;-0.31500
1325000;-0.30000
1327777;-0.30000
1330555;-0.32500
1333333;-0.33000
1336111;-0.33500
1338889;-0.33000
1341666;-0.33000
1344444;-0.33000
1347222;-0.34000
1350000;-0.35500
1352777;-0.35500
1355555;-0.35000
1358333;-0.34000
1361111;-0.33500
1363889;-0.35000
1366666;-0.36000
1369444;-0.35500
1372222;-0.34500
1375000;-0.34500
1377777;-0.34500
1380555;-0.34500
1383333;-0.35500
1386111;-0.36000
1388888;-0.34500
1391666;-0.34500
1394444;-0.35500
1397222;-0.36000
1400000;-0.37000
1402777;-0.37000
1405555;-0.36500
1408333;-0.35500
1411111;-0.35000
1413888;-0.36500
1416666;-0.37500
1419444;-0.37500
1422222;-0.37000
1425000;-0.36500
1427777;-0.37000
1430555;-0.38000
1433333;-0.39000
1436111;-0.40000
1438888;-0.38500
1441666;-0.37000
1444444;-0.36500
1447222;-0.39500
1450000;-0.40000
1452777;-0.38500
1455555;-0.37500
1458333;-0.35500
1461111;-0.36500
1463888;-0.38000
1466666;-0.39000
1469444;-0.38500
1472222;-0.38500
1475000;-0.38000
1477777;-0.36000
1480555;-0.36500
1483333;-0.37500
1486111;-0.38500
1488888;-0.37000
1491666;-0.36000
1494444;-0.36500
1497222;-0.38000
1500000;-0.37500
1502777;-0.36500
1505555;-0.34500
1508333;-0.34000
1511111;-0.33500
1513888;-0.34000
1516666;-0.35000
1519444;-0.33500
1522222;-0.32000
1525000;-0.31500
1527777;-0.30500
1530555;-0.31500
1533333;-0.33000
1536111;-0.32000
1538888;-0.31000
1541666;-0.28500
1544444;-0.27500
1547222;-0.27000
1550000;-0.28000
1552777;-0.25500
1555555;-0.24500
1558333;-0.24500
1561111;-0.27000
1563888;-0.28000
1566666;-0.28000
1569444;-0.28500
1572222;-0.26500
1575000;-0.26000
1577777;-0.25000
1580555;-0.26500
1583333;-0.27000
1586111;-0.25000
1588888;-0.22500
1591666;-0.23000
1594444;-0.27000
1597222;-0.30500
1600000;-0.33500
1602777;-0.33500
1605555;-0.34000
1608333;-0.35000
1611111;-0.36500
1613888;-0.37500
1616666;-0.40000
1619444;-0.39500
1622222;-0.39500
1625000;-0.37000
1627777;-0.38000
1630555;-0.39000
1633333;-0.39500
1636111;-0.39000
1638888;-0.39000
1641666;-0.38500
1644444;-0.38500
1647222;-0.39500
1650000;-0.42000
1652777;-0.40500
1655555;-0.40000
1658333;-0.38000
1661111;-0.39000
1663888;-0.39500
1666666;-0.41000
1669444;-0.41000
1672222;-0.40000
1675000;-0.40500
1677777;-0.39500
1680555;-0.40000
1683333;-0.42000
1686111;-0.42000
1688888;-0.41000
1691666;-0.40500
1694444;-0.42000
1697222;-0.42000
1700000;-0.44500
1702777;-0.46000
1705555;-0.49000
1708333;-0.51000
1711111;-0.53000
1713888;-0.57500
1716666;-0.62000
1719444;-0.63000
1722222;-0.57500
1725000;-0.48000
1727777;-0.36500
1730555;-0.25000
1733333;-0.08000
1736111;0.17500
1738888;0.44000
1741666;0.65500
1744444;0.80000
1747222;0.83000
1750000;0.69000
1752777;0.39000
1755555;0.03000
1758333;-0.27000
1761111;-0.46500
1763888;-0.56500
1766666;-0.58000
1769444;-0.55000
1772222;-0.49000
1775000;-0.46500
1777777;-0.45500
1780555;-0.47000
1783333;-0.47500
1786111;-0.47000
1788888;-0.45500
1791666;-0.44000
1794444;-0.44000
1797222;-0.46500
1799999;-0.47000
1802777;-0.45000
1805555;-0.44000
1808333;-0.43500
1811111;-0.45000
1813888;-0.44000
1816666;-0.46000
1819444;-0.44500
1822222;-0.44000
1824999;-0.43500
1827777;-0.44000
1830555;-0.45000
1833333;-0.46500
1836111;-0.45000
1838888;-0.46000
1841666;-0.45500
1844444;-0.45000
1847222;-0.46500
1849999;-0.48000
1852777;-0.47500
1855555;-0.45500
1858333;-0.44000
1861111;-0.44500
1863888;-0.46000
1866666;-0.46500
1869444;-0.45000
1872222;-0.45000
1874999;-0.45500
1877777;-0.45000
1880555;-0.45000
1883333;-0.46000
1886111;-0.46500
1888888;-0.44500
1891666;-0.44500
1894444;-0.45000
1897222;-0.46000
1899999;-0.46500
1902777;-0.46000
1905555;-0.46500
1908333;-0.45000
1911111;-0.45500
1913888;-0.46500
1916666;-0.47000
1919444;-0.45500
1922222;-0.46000
1924999;-0.45000
1927777;-0.45000
1930555;-0.45500
1933333;-0.47000
1936111;-0.47000
1938888;-0.45000
1941666;-0.44500
1944444;-0.44500
1947222;-0.43500
1949999;-0.45500
1952777;-0.44500
1955555;-0.44500
1958333;-0.45000
1961111;-0.43500
1963888;-0.44500
1966666;-0.46000
1969444;-0.45500
1972222;-0.46000
1974999;-0.44500
1977777;-0.46000
1980555;-0.47000
1983333;-0.47500
1986111;-0.47500
1988888;-0.48000
1991666;-0.47000
1994444;-0.48500
1997222;-0.50000
1999999;-0.49500
2002777;-0.49500
2005555;-0.49000
2008333;-0.48000
2011111;-0.47500
2013888;-0.49000
2016666;-0.50000
2019444;-0.49500
2022222;-0.48500
2024999;-0.48000
2027777;-0.48000
2030555;-0.47500
2033333;-0.48500
2036111;-0.46500
2038888;-0.46000
2041666;-0.44500
2044444;-0.44000
2047222;-0.44500
2049999;-0.45500
2052777;-0.45000
2055555;-0.43000
2058333;-0.41000
2061111;-0.41000
2063888;-0.40500
2066666;-0.41000
2069444;-0.39500
2072222;-0.37000
2074999;-0.36500
2077777;-0.35000
2080555;-0.35000
2083333;-0.36000
2086111;-0.34500
2088888;-0.33000
2091666;-0.32000
2094444;-0.33000
2097222;-0.33000
2099999;-0.34000
2102777;-0.32500
2105555;-0.30500
2108333;-0.30000
2111111;-0.30000
2113888;-0.31500
2116666;-0.33500
2119444;-0.32500
2122222;-0.32500
2124999;-0.30500
2127777;-0.30500
2130555;-0.31500
2133333;-0.33000
2136111;-0.32000
2138888;-0.32000
2141666;-0.32000
2144444;-0.32000
2147222;-0.32500
2149999;-0.34000
2152777;-0.33500
2155555;-0.33000
2158333;-0.32000
2161111;-0.31500
2163888;-0.33000
2166666;-0.33000
2169444;-0.33500
2172222;-0.33500
2174999;-0.31000
2177777;-0.31000
2180555;-0.33000
2183333;-0.33000
2186110;-0.32500
2188888;-0.33500
2191666;-0.32000
2194444;-0.32500
2197222;-0.34000
2199999;-0.35000
2202777;-0.34000
2205555;-0.35000
2208333;-0.33500
2211110;-0.34500
2213888;-0.34000
2216666;-0.35000
2219444;-0.35500
2222222;-0.34000
2224999;-0.33500
2227777;-0.34000
2230555;-0.34500
2233333;-0.36500
2236110;-0.36000
2238888;-0.35000
2241666;-0.33500
2244444;-0.34000
2247222;-0.34500
2249999;-0.35500
2252777;-0.36000
2255555;-0.34500
2258333;-0.32500
2261110;-0.33500
2263888;-0.34000
2266666;-0.35500
2269444;-0.35000
2272222;-0.33500
2274999;-0.32500
2277777;-0.32500
2280555;-0.33500
2283333;-0.35500
2286110;-0.35500
2288888;-0.34000
2291666;-0.33500
2294444;-0.33500
2297222;-0.33500
2299999;-0.34500
2302777;-0.34000
2305555;-0.32000
2308333;-0.30000
2311110;-0.31000
2313888;-0.31000
2316666;-0.33000
2319444;-0.32000
2322222;-0.30000
2324999;-0.27000
2327777;-0.27500
2330555;-0.29000
2333333;-0.29000
2336110;-0.28500
2338888;-0.27000
2341666;-0.24500
2344444;-0.24500
2347222;-0.25000
2349999;-0.26000
2352777;-0.25000
2355555;-0.23500
2358333;-0.22500
2361110;-0.22000
2363888;-0.22500
2366666;-0.23000
2369444;-0.23000
2372222;-0.22000
2374999;-0.20500
2377777;-0.19500
2380555;-0.20000
2383333;-0.21000
2386110;-0.20000
2388888;-0.20000
2391666;-0.21500
2394444;-0.20500
2397222;-0.20500
2399999;-0.21000
2402777;-0.20000
2405555;-0.19000
2408333;-0.18500
2411110;-0.17500
2413888;-0.16000
2416666;-0.17500
2419444;-0.19000
2422222;-0.22000
2424999;-0.23500
2427777;-0.24500
2430555;-0.26500
2433333;-0.28000
2436110;-0.30000
2438888;-0.31000
2441666;-0.31500
2444444;-0.31500
2447222;-0.33000
2449999;-0.33500
2452777;-0.34000
2455555;-0.32500
2458333;-0.31000
2461110;-0.32000
2463888;-0.32500
2466666;-0.35000
2469444;-0.34000
2472222;-0.33000
2474999;-0.31000
2477777;-0.32500
2480555;-0.33000
2483333;-0.34000
2486110;-0.33000
2488888;-0.32500
2491666;-0.31500
2494444;-0.32000
2497222;-0.33500
2499999;-0.34500
2502777;-0.34000
2505555;-0.32000
2508333;-0.31500
2511110;-0.32000
2513888;-0.33000
2516666;-0.36000
2519444;-0.37500
2522222;-0.41000
2524999;-0.42500
2527777;-0.44000
2530555;-0.47500
2533333;-0.53500
2536110;-0.54000
2538888;-0.50000
2541666;-0.40000
2544444;-0.27000
2547222;-0.15500
2549999;0.01500
2552777;0.25000
2555555;0.52000
2558333;0.75000
2561110;0.89500
2563888;0.92000
